Data from test_V78500241_2621.txt Node
Date: Fri Mar 25 15:59:57 CST 2022
User: usil
Spectrometer: V785-0024
Trigger mode: 0
Integration Time (sec): 4.000000E-1
Scans to average: 1
Nonlinearity correction enabled: false
Boxcar width: 0
Storing dark spectrum: false
XAxis mode: Wavelengths
Number of Pixels in Spectrum: 1024
>>>>>Begin Spectral Data<<<<<
801.071	29064
801.214	29037
801.356	28885
801.499	28778
801.641	28561
801.783	28637
801.926	28744
802.068	28634
802.211	28569
802.353	28424
802.496	28375
802.638	28306
802.78	28272
802.923	28310
803.065	28128
803.208	28219
803.35	28352
803.492	28409
803.635	28603
803.777	28474
803.919	28656
804.061	28923
804.204	28641
804.346	28504
804.488	28489
804.63	28672
804.773	28489
804.915	28637
805.057	28790
805.199	28725
805.341	28725
805.483	28778
805.626	28862
805.768	28607
805.91	28778
806.052	28740
806.194	28634
806.336	28911
806.478	28755
806.62	28691
806.762	28869
806.904	29197
807.046	29220
807.188	29166
807.33	29151
807.472	29288
807.614	29113
807.756	29235
807.898	28965
808.04	28976
808.182	29044
808.324	29227
808.465	29140
808.607	29292
808.749	29474
808.891	29547
809.033	29699
809.174	29627
809.316	29471
809.458	29474
809.6	29478
809.741	29535
809.883	29649
810.025	29775
810.166	29729
810.308	29729
810.45	29707
810.591	29646
810.733	29505
810.875	29471
811.016	29315
811.158	29292
811.299	29611
811.441	29600
811.582	29684
811.724	29444
811.865	29421
812.007	29459
812.148	29490
812.29	29429
812.431	29672
812.573	29866
812.714	29977
812.855	30030
812.997	30144
813.138	30262
813.279	30190
813.421	29969
813.562	29870
813.703	29733
813.845	29790
813.986	29421
814.127	29391
814.268	29273
814.41	29277
814.551	29277
814.692	29368
814.833	29064
814.974	29200
815.115	29216
815.256	29006
815.397	29018
815.539	29212
815.68	28965
815.821	28961
815.962	29071
816.103	28915
816.244	28915
816.385	28790
816.526	28771
816.666	28577
816.807	28512
816.948	28660
817.089	28820
817.23	28546
817.371	28516
817.512	28535
817.653	28500
817.793	28542
817.934	28314
818.075	28485
818.216	28565
818.356	28481
818.497	28508
818.638	28265
818.778	28333
818.919	28413
819.06	28360
819.2	28512
819.341	28550
819.481	28557
819.622	28687
819.762	28949
819.903	28862
820.043	28691
820.184	28805
820.324	28710
820.465	28847
820.605	28535
820.746	28546
820.886	28398
821.026	28634
821.167	28538
821.307	28656
821.447	28611
821.588	28489
821.728	28310
821.868	28230
822.008	28021
822.149	27975
822.289	28029
822.429	27736
822.569	27739
822.709	27732
822.849	27572
822.99	27538
823.13	27466
823.27	27496
823.41	27249
823.55	27355
823.69	27272
823.83	27412
823.97	27378
824.11	27176
824.25	27195
824.389	27173
824.529	27237
824.669	27256
824.809	27294
824.949	27249
825.089	27329
825.228	27131
825.368	27009
825.508	27020
825.648	27180
825.787	27180
825.927	27199
826.067	26998
826.206	27024
826.346	27009
826.485	27138
826.625	27032
826.765	27188
826.904	27043
827.044	26872
827.183	26842
827.323	26739
827.462	26842
827.601	26777
827.741	26815
827.88	26686
828.02	26659
828.159	26876
828.298	26765
828.437	26975
828.577	26682
828.716	26697
828.855	26754
828.994	26473
829.134	26465
829.273	26503
829.412	26412
829.551	26370
829.69	26583
829.829	26457
829.968	26587
830.107	26560
830.246	26594
830.385	26415
830.524	26423
830.663	26385
830.802	26343
830.941	25959
831.08	26020
831.219	26119
831.357	26221
831.496	26320
831.635	26107
831.774	26119
831.913	26001
832.051	25902
832.19	25807
832.329	25860
832.467	25738
832.606	25769
832.744	25696
832.883	25677
833.022	25845
833.16	25814
833.299	25795
833.437	25807
833.576	25791
833.714	25807
833.852	25879
833.991	25780
834.129	25951
834.267	25814
834.406	25856
834.544	25795
834.682	25826
834.821	25852
834.959	26084
835.097	25738
835.235	25799
835.373	25731
835.511	25868
835.65	25521
835.788	25635
835.926	25601
836.064	25491
836.202	25578
836.34	25643
836.478	25761
836.615	25548
836.753	25609
836.891	25635
837.029	25628
837.167	25544
837.305	25518
837.443	25384
837.58	25430
837.718	25578
837.856	25487
837.993	25430
838.131	25327
838.269	25392
838.406	25441
838.544	25381
838.681	25107
838.819	25027
838.956	24928
839.094	25084
839.231	25046
839.369	25046
839.506	25278
839.643	25027
839.781	24947
839.918	25027
840.055	24863
840.193	24932
840.33	24867
840.467	24890
840.604	24939
840.742	25160
840.879	24627
841.016	24791
841.153	24612
841.29	24901
841.427	24711
841.564	24711
841.701	24829
841.838	24658
841.975	24760
842.112	24814
842.249	24798
842.385	24467
842.522	24821
842.659	24563
842.796	24525
842.933	24658
843.069	24540
843.206	24494
843.343	24582
843.479	24631
843.616	24589
843.752	24304
843.889	24300
844.025	24505
844.162	24353
844.298	24426
844.435	24304
844.571	24319
844.708	24513
844.844	24574
844.98	24517
845.117	24422
845.253	24346
845.389	24213
845.525	24235
845.661	24232
845.798	24114
845.934	24182
846.07	24079
846.206	24285
846.342	24114
846.478	24034
846.614	23809
846.75	23748
846.886	23866
847.022	24038
847.158	23817
847.294	23745
847.429	23813
847.565	23775
847.701	24015
847.837	23497
847.972	23627
848.108	23520
848.244	23585
848.379	23398
848.515	23429
848.65	23440
848.786	23444
848.921	23467
849.057	23459
849.192	23573
849.328	23414
849.463	23364
849.598	23345
849.734	23189
849.869	23178
850.004	23140
850.14	23109
850.275	23170
850.41	23018
850.545	23064
850.68	23014
850.815	23159
850.95	23143
851.085	23261
851.22	23303
851.355	23174
851.49	23170
851.625	23143
851.76	23159
851.895	23083
852.03	23033
852.165	23060
852.299	23113
852.434	23166
852.569	23170
852.703	23132
852.838	23208
852.973	23307
853.107	23330
853.242	22889
853.376	22881
853.511	22835
853.645	22790
853.78	23025
853.914	23033
854.048	22972
854.183	22934
854.317	22934
854.451	23060
854.585	23102
854.72	23041
854.854	23044
854.988	22847
855.122	23071
855.256	22797
855.39	22847
855.524	22995
855.658	23060
855.792	22995
855.926	22999
856.06	22961
856.194	23041
856.327	22999
856.461	23090
856.595	22831
856.729	22938
856.862	23071
856.996	23018
857.13	23079
857.263	23029
857.397	22930
857.53	22885
857.664	22968
857.797	23121
857.931	23075
858.064	23056
858.197	23117
858.331	22927
858.464	22835
858.597	22748
858.731	22885
858.864	22904
858.997	22835
859.13	23083
859.263	22915
859.396	23006
859.529	22885
859.662	23094
859.795	22949
859.928	22930
860.061	23174
860.194	23166
860.327	23037
860.46	23048
860.592	23151
860.725	23250
860.858	23052
860.99	22968
861.123	22980
861.256	23060
861.388	22995
861.521	23790
861.653	22915
861.786	22782
861.918	22869
862.05	22824
862.183	22946
862.315	22911
862.447	23006
862.58	22831
862.712	22717
862.844	22634
862.976	22850
863.108	22706
863.24	23200
863.372	22630
863.504	22736
863.636	22611
863.768	22816
863.9	22740
864.032	22546
864.164	22687
864.296	22729
864.428	22797
864.559	22706
864.691	22725
864.823	22778
864.954	22694
865.086	22664
865.217	22504
865.349	22493
865.48	22622
865.612	22634
865.743	22679
865.875	22527
866.006	22573
866.137	22504
866.269	22527
866.4	22398
866.531	22561
866.662	22523
866.793	22535
866.924	22474
867.055	22348
867.186	22504
867.317	22538
867.448	22390
867.579	22436
867.71	22314
867.841	22325
867.972	22432
868.103	22405
868.233	22516
868.364	22493
868.495	22565
868.625	22748
868.756	22987
868.886	22736
869.017	22812
869.147	22877
869.278	22889
869.408	22725
869.539	22767
869.669	22793
869.799	22866
869.929	22873
870.06	22805
870.19	23113
870.32	23086
870.45	23124
870.58	23197
870.71	23193
870.84	23185
870.97	23124
871.1	23117
871.23	23334
871.36	23425
871.489	23330
871.619	23349
871.749	23391
871.879	23261
872.008	23463
872.138	23452
872.267	23239
872.397	23258
872.526	23083
872.656	23174
872.785	23170
872.915	23345
873.044	23471
873.173	23421
873.303	23326
873.432	23341
873.561	23383
873.69	23421
873.819	23311
873.948	23330
874.077	23406
874.206	23307
874.335	23395
874.464	23562
874.593	23455
874.722	23520
874.851	23554
874.979	23478
875.108	23604
875.237	23463
875.365	23547
875.494	23493
875.623	23714
875.751	23547
875.88	23577
876.008	23638
876.136	23657
876.265	23916
876.393	24030
876.521	24045
876.65	23939
876.778	24041
876.906	23916
877.034	24091
877.162	23817
877.29	23870
877.418	23961
877.546	23923
877.674	23764
877.802	23908
877.93	23821
878.058	23745
878.185	23843
878.313	23851
878.441	23908
878.568	23672
878.696	23882
878.824	23965
878.951	24011
879.079	24064
879.206	24197
879.333	24060
879.461	23885
879.588	23984
879.715	24049
879.842	24243
879.97	24003
880.097	23623
880.224	23748
880.351	23737
880.478	23771
880.605	23554
880.732	23710
880.859	23969
880.986	23710
881.112	23680
881.239	23562
881.366	23414
881.493	23307
881.619	23159
881.746	23364
881.872	23299
881.999	23364
882.125	23109
882.252	23269
882.378	23174
882.505	23280
882.631	23109
882.757	23010
882.883	22934
883.01	22972
883.136	22847
883.262	22915
883.388	22763
883.514	22892
883.64	22999
883.766	22752
883.892	22683
884.018	22767
884.143	22949
884.269	22938
884.395	22569
884.52	22603
884.646	22592
884.772	22615
884.897	22375
885.023	22626
885.148	22637
885.274	22755
885.399	22706
885.524	22645
885.65	22683
885.775	22645
885.9	22538
886.025	22683
886.15	22641
886.275	22557
886.4	22599
886.525	22512
886.65	22451
886.775	22504
886.9	22729
887.025	22653
887.149	22382
887.274	22280
887.399	22363
887.523	22310
887.648	22325
887.773	22284
887.897	22344
888.021	22322
888.146	22223
888.27	22367
888.395	22402
888.519	22291
888.643	22363
888.767	22341
888.891	22272
889.015	22048
889.139	22139
889.263	21968
889.387	22230
889.511	22314
889.635	22265
889.759	22051
889.883	22090
890.006	22143
890.13	22204
890.254	22059
890.377	22059
890.501	21876
890.624	21812
890.748	21880
890.871	21644
890.995	21660
891.118	21603
891.241	21682
891.364	21625
891.488	21816
891.611	21800
891.734	21557
891.857	21614
891.98	21637
892.103	21751
892.226	21583
892.349	21538
892.471	21526
892.594	21492
892.717	21576
892.839	21538
892.962	21462
893.085	21557
893.207	21515
893.33	21405
893.452	21450
893.575	21545
893.697	21431
893.819	21686
893.941	21755
894.064	21663
894.186	21439
894.308	21405
894.43	21587
894.552	21724
894.674	21572
894.796	21382
894.918	21564
895.04	21485
895.161	21534
895.283	21519
895.405	21561
895.526	21511
895.648	21454
895.769	21542
895.891	21538
896.012	21553
896.134	21561
896.255	21329
896.376	21420
896.498	21511
896.619	21526
896.74	21488
896.861	21450
896.982	21751
897.103	21861
897.224	21778
897.345	21720
897.466	21428
897.587	21690
897.708	21759
897.828	21766
897.949	21675
898.07	21488
898.19	21663
898.311	21682
898.431	21648
898.552	21663
898.672	21736
898.792	21698
898.913	21713
899.033	21534
899.153	21564
899.273	21359
899.393	21473
899.513	21553
899.633	21355
899.753	21424
899.873	21428
899.993	21416
900.113	21344
900.232	21241
900.352	21291
900.472	21180
900.591	21085
900.711	21169
900.83	21283
900.95	21370
901.069	21370
901.189	21058
901.308	20811
901.427	20674
901.546	20526
901.665	20788
901.784	20640
901.904	20571
902.023	20495
902.141	20282
902.26	20225
902.379	20343
902.498	20214
902.617	20183
902.735	20278
902.854	20206
902.973	20039
903.091	19879
903.21	19955
903.328	19860
903.446	19712
903.565	19628
903.683	19624
903.801	19506
903.919	19643
904.038	19712
904.156	19377
904.274	19491
904.392	19350
904.51	19354
904.627	19392
904.745	19495
904.863	19495
904.981	19213
905.098	19145
905.216	19084
905.334	19110
905.451	19114
905.569	18924
905.686	19080
905.803	19110
905.921	18871
906.038	19023
906.155	18985
906.272	18837
906.389	18844
906.506	18528
906.623	18555
906.74	18650
906.857	18486
906.974	18490
907.091	18734
907.208	18829
907.324	18673
907.441	18563
907.557	18391
907.674	18410
907.79	18296
907.907	18300
908.023	18350
908.139	18277
908.256	18403
908.372	18270
908.488	18197
908.604	18079
908.72	17961
908.836	18106
908.952	18136
909.068	18015
909.184	18163
909.3	18091
909.415	18064
909.531	17969
909.647	17733
909.762	17794
909.878	17707
909.993	17646
910.108	17653
910.224	17707
910.339	17707
910.454	17592
910.57	17558
910.685	17452
910.8	17703
910.915	17680
911.03	17490
911.145	17296
911.259	17227
911.374	17299
911.489	17284
911.604	17140
911.718	17041
911.833	17124
911.947	16999
912.062	16881
912.176	17010
912.291	17132
912.405	17045
912.519	17239
912.633	17121
912.748	17064
912.862	17010
912.976	16824
913.09	16729
913.204	16778
913.318	16927
913.431	16911
913.545	16946
913.659	16946
913.772	16797
913.886	16729
914	16607
914.113	16793
914.226	16816
914.34	16744
914.453	16504
914.566	16641
914.68	16436
914.793	16500
914.906	16325
915.019	16299
915.132	16200
915.245	16112
915.358	16268
915.47	16215
915.583	16112
915.696	16177
915.809	16299
915.921	16299
916.034	16105
916.146	16051
916.259	16154
916.371	16154
916.483	16226
916.595	15949
916.708	16002
916.82	15991
916.932	15979
917.044	15949
917.156	15926
917.268	15762
917.38	15835
917.491	15823
917.603	15762
917.715	15831
917.826	15751
917.938	15717
918.049	15576
918.161	15762
918.272	15915
918.384	15827
918.495	15755
918.606	15564
918.717	15488
918.828	15618
918.939	15584
919.05	15488
919.161	15504
919.272	15294
919.383	15393
919.494	15538
919.604	15766
919.715	15633
919.826	15374
919.936	15458
920.047	15625
920.157	15488
920.267	15488
920.378	15416
920.488	15511
920.598	15629
920.708	15793
920.818	15564
920.928	15713
921.038	15713
921.148	15732
921.258	15336
921.368	15226
921.477	15184
921.587	15157
921.697	15112
921.806	15123
921.916	15097
922.025	14872
922.134	14887
922.244	14716
922.353	14921
922.462	14724
922.571	14602
922.68	14484
922.789	14434
922.898	14446
923.007	14336
923.116	14511
923.224	14488
923.333	14461
923.442	14313
923.55	14324
923.659	14278
923.767	14385
923.876	14328
923.984	14259
924.092	14111
924.201	14191
924.309	14176
924.417	14202
924.525	14065
924.633	14084
924.741	15085
924.849	13833
924.956	14054
925.064	13917
925.172	13795
925.279	13894
925.387	13845
925.494	13723
925.602	13982
925.709	13849
925.816	13769
925.924	13833
926.031	13856
926.138	13662
926.245	13799
926.352	13609
926.459	13731
926.566	13757
926.673	13708
926.779	13643
926.886	13605
926.993	13472
927.099	13365
927.206	13274
927.312	13244
927.419	13453
927.525	13297
927.631	13457
927.737	13228
927.843	13278
927.95	13129
928.056	13190
928.162	13209
928.267	13236
928.373	13693
928.479	13175
928.585	13088
928.69	13129
928.796	13168
928.901	12989
929.007	12867
929.112	12962
929.218	12981
929.323	12932
929.428	12798
929.533	13149
929.638	12848
929.743	12920
929.848	12973
929.953	12867
930.058	12700
930.163	12623
930.267	12502
930.372	12677
930.477	12460
930.581	12760
930.685	12574
930.79	12422
930.894	12448
930.998	12460
931.103	12528
931.207	12205
931.311	12041
931.415	12041
931.519	11798
931.623	11752
