Data from test_V78500241_2265.txt Node
Date: Fri Mar 25 15:57:29 CST 2022
User: usil
Spectrometer: V785-0024
Trigger mode: 0
Integration Time (sec): 4.000000E-1
Scans to average: 1
Nonlinearity correction enabled: false
Boxcar width: 0
Storing dark spectrum: false
XAxis mode: Wavelengths
Number of Pixels in Spectrum: 1024
>>>>>Begin Spectral Data<<<<<
801.071	29170
801.214	29140
801.356	28972
801.499	29025
801.641	28908
801.783	28869
801.926	28801
802.068	28740
802.211	28744
802.353	28729
802.496	28573
802.638	28561
802.78	28500
802.923	28478
803.065	28390
803.208	28565
803.35	28641
803.492	28721
803.635	28691
803.777	28786
803.919	28892
804.061	29041
804.204	28828
804.346	28698
804.488	28740
804.63	28839
804.773	28664
804.915	28843
805.057	28934
805.199	28786
805.341	28908
805.483	29022
805.626	29022
805.768	28710
805.91	28999
806.052	28957
806.194	28961
806.336	29235
806.478	29162
806.62	29113
806.762	29136
806.904	29147
807.046	29520
807.188	29406
807.33	29429
807.472	29649
807.614	29444
807.756	29562
807.898	29387
808.04	29330
808.182	29223
808.324	29345
808.465	29410
808.607	29592
808.749	29695
808.891	29809
809.033	29878
809.174	29771
809.316	29710
809.458	29665
809.6	29573
809.741	29847
809.883	29874
810.025	30034
810.166	29977
810.308	30125
810.45	30022
810.591	29897
810.733	29752
810.875	29741
811.016	29493
811.158	29531
811.299	29862
811.441	29916
811.582	29920
811.724	29836
811.865	29745
812.007	29737
812.148	29870
812.29	29916
812.431	29843
812.573	30022
812.714	30228
812.855	30197
812.997	30254
813.138	30658
813.279	30410
813.421	30319
813.562	30213
813.703	29935
813.845	30015
813.986	29741
814.127	29520
814.268	29375
814.41	29501
814.551	29543
814.692	29516
814.833	29543
814.974	29444
815.115	29551
815.256	29440
815.397	29356
815.539	29337
815.68	29345
815.821	29242
815.962	29242
816.103	29181
816.244	29109
816.385	28923
816.526	29261
816.666	28911
816.807	28702
816.948	28847
817.089	29014
817.23	28812
817.371	28774
817.512	28930
817.653	28835
817.793	28801
817.934	28816
818.075	28896
818.216	28771
818.356	28809
818.497	28637
818.638	28516
818.778	28455
818.919	28550
819.06	28679
819.2	28767
819.341	28854
819.481	28599
819.622	28938
819.762	29204
819.903	29086
820.043	29124
820.184	29025
820.324	28991
820.465	28957
820.605	28904
820.746	28946
820.886	28786
821.026	28885
821.167	28850
821.307	28991
821.447	28721
821.588	28645
821.728	28649
821.868	28447
822.008	28405
822.149	28333
822.289	28329
822.429	28006
822.569	27941
822.709	28032
822.849	27728
822.99	27781
823.13	27759
823.27	28029
823.41	27568
823.55	27473
823.69	27660
823.83	27641
823.97	27424
824.11	27218
824.25	27412
824.389	27511
824.529	27408
824.669	27420
824.809	27530
824.949	27447
825.089	27637
825.228	27466
825.368	27310
825.508	27283
825.648	27313
825.787	27325
825.927	27370
826.067	27374
826.206	27317
826.346	27336
826.485	27443
826.625	27363
826.765	27530
826.904	27458
827.044	27146
827.183	27169
827.323	26990
827.462	27195
827.601	27005
827.741	27024
827.88	27123
828.02	26921
828.159	26994
828.298	27009
828.437	27062
828.577	27066
828.716	27116
828.855	26975
828.994	26762
829.134	26701
829.273	26819
829.412	26674
829.551	26549
829.69	26636
829.829	26796
829.968	26891
830.107	26659
830.246	26792
830.385	26678
830.524	26636
830.663	26507
830.802	26590
830.941	26324
831.08	26271
831.219	26389
831.357	26317
831.496	26560
831.635	26442
831.774	26259
831.913	26183
832.051	26126
832.19	26199
832.329	26119
832.467	26024
832.606	25940
832.744	25932
832.883	26027
833.022	26035
833.16	26096
833.299	25932
833.437	26187
833.576	26157
833.714	25982
833.852	26161
833.991	26096
834.129	26180
834.267	26020
834.406	26054
834.544	26096
834.682	26100
834.821	25970
834.959	26206
835.097	26046
835.235	26073
835.373	26027
835.511	26069
835.65	25852
835.788	25887
835.926	25864
836.064	25693
836.202	25742
836.34	25784
836.478	26001
836.615	25913
836.753	25925
836.891	26020
837.029	25879
837.167	25841
837.305	25921
837.443	25700
837.58	25639
837.718	25928
837.856	25799
837.993	25677
838.131	25731
838.269	25491
838.406	25723
838.544	25613
838.681	25441
838.819	25415
838.956	25213
839.094	25046
839.231	25190
839.369	25373
839.506	25529
839.643	25468
839.781	25152
839.918	25107
840.055	25236
840.193	25156
840.33	25107
840.467	25183
840.604	25126
840.742	25285
840.879	24886
841.016	25107
841.153	25046
841.29	25168
841.427	24985
841.564	25168
841.701	25129
841.838	24951
841.975	24848
842.112	24966
842.249	24897
842.385	24981
842.522	25080
842.659	24905
842.796	24810
842.933	24791
843.069	24787
843.206	24726
843.343	24894
843.479	24833
843.616	24920
843.752	24650
843.889	24623
844.025	24882
844.162	24502
844.298	24753
844.435	24563
844.571	24574
844.708	24639
844.844	24726
844.98	24875
845.117	24722
845.253	24563
845.389	24372
845.525	24498
845.661	24414
845.798	24357
845.934	24456
846.07	24296
846.206	24330
846.342	24262
846.478	24281
846.614	24117
846.75	23893
846.886	24129
847.022	24121
847.158	24026
847.294	23961
847.429	24026
847.565	24060
847.701	24281
847.837	23828
847.972	23821
848.108	23817
848.244	23904
848.379	23661
848.515	23638
848.65	23551
848.786	23474
848.921	23653
849.057	23630
849.192	23668
849.328	23577
849.463	23627
849.598	23505
849.734	23482
849.869	23512
850.004	23512
850.14	23330
850.275	23471
850.41	23204
850.545	23303
850.68	23242
850.815	23379
850.95	23307
851.085	23573
851.22	23490
851.355	23474
851.49	23391
851.625	23250
851.76	23372
851.895	23296
852.03	23239
852.165	23299
852.299	23436
852.434	23562
852.569	23425
852.703	23440
852.838	23520
852.973	23334
853.107	23638
853.242	23288
853.376	23208
853.511	23132
853.645	23242
853.78	23372
853.914	23155
854.048	23121
854.183	23280
854.317	23159
854.451	23417
854.585	23246
854.72	23277
854.854	23174
854.988	23220
855.122	23345
855.256	23079
855.39	23094
855.524	23185
855.658	23128
855.792	23284
855.926	23181
856.06	23341
856.194	23455
856.327	23246
856.461	23128
856.595	23178
856.729	23227
856.862	23318
856.996	23250
857.13	23261
857.263	23254
857.397	23345
857.53	23265
857.664	23166
857.797	23246
857.931	23250
858.064	23364
858.197	23303
858.331	23227
858.464	23181
858.597	23181
858.731	23132
858.864	23204
858.997	23181
859.13	23246
859.263	23109
859.396	23231
859.529	23212
859.662	23159
859.795	23105
859.928	23105
860.061	23334
860.194	23356
860.327	23493
860.46	23265
860.592	23277
860.725	23402
860.858	23345
860.99	23208
861.123	23083
861.256	23151
861.388	23242
861.521	23923
861.653	23098
861.786	22995
861.918	23010
862.05	23044
862.183	23216
862.315	23140
862.447	23284
862.58	23170
862.712	23044
862.844	22835
862.976	22927
863.108	22873
863.24	23360
863.372	22915
863.504	22957
863.636	22949
863.768	22900
863.9	22908
864.032	22816
864.164	22930
864.296	22904
864.428	23064
864.559	22984
864.691	22957
864.823	22972
864.954	22915
865.086	22873
865.217	22877
865.349	22729
865.48	22801
865.612	22790
865.743	22850
865.875	22869
866.006	22637
866.137	22850
866.269	22725
866.4	22771
866.531	22664
866.662	22599
866.793	22713
866.924	22721
867.055	22782
867.186	22923
867.317	22626
867.448	22694
867.579	22668
867.71	22637
867.841	22615
867.972	22672
868.103	22645
868.233	22679
868.364	22736
868.495	22778
868.625	22889
868.756	22942
868.886	22942
869.017	22904
869.147	23060
869.278	23151
869.408	22961
869.539	22866
869.669	22965
869.799	23041
869.929	22949
870.06	23136
870.19	23231
870.32	23094
870.45	23307
870.58	23406
870.71	23520
870.84	23474
870.97	23258
871.1	23292
871.23	23570
871.36	23528
871.489	23402
871.619	23558
871.749	23516
871.879	23600
872.008	23649
872.138	23539
872.267	23448
872.397	23463
872.526	23497
872.656	23353
872.785	23482
872.915	23570
873.044	23703
873.173	23417
873.303	23524
873.432	23623
873.561	23722
873.69	23474
873.819	23543
873.948	23623
874.077	23493
874.206	23444
874.335	23535
874.464	23493
874.593	23783
874.722	23832
874.851	23813
874.979	23821
875.108	23703
875.237	23745
875.365	23661
875.494	23684
875.623	23790
875.751	23733
875.88	23832
876.008	23927
876.136	23958
876.265	24133
876.393	24304
876.521	24266
876.65	24266
876.778	24178
876.906	24091
877.034	24167
877.162	24076
877.29	24018
877.418	24007
877.546	24072
877.674	24152
877.802	24098
877.93	24095
878.058	24034
878.185	23893
878.313	24049
878.441	24155
878.568	23958
878.696	23961
878.824	24136
878.951	24152
879.079	24365
879.206	24388
879.333	24342
879.461	24053
879.588	24136
879.715	24209
879.842	24346
879.97	24178
880.097	23764
880.224	23821
880.351	23939
880.478	23942
880.605	23908
880.732	23897
880.859	24136
880.986	23965
881.112	23923
881.239	23783
881.366	23687
881.493	23596
881.619	23429
881.746	23493
881.872	23421
881.999	23444
882.125	23402
882.252	23551
882.378	23410
882.505	23406
882.631	23376
882.757	23037
882.883	23178
883.01	23113
883.136	23052
883.262	23075
883.388	22946
883.514	23136
883.64	23140
883.766	23102
883.892	22919
884.018	22900
884.143	23113
884.269	23098
884.395	22725
884.52	22687
884.646	22809
884.772	22672
884.897	22588
885.023	22710
885.148	22919
885.274	22923
885.399	22953
885.524	22668
885.65	22843
885.775	22759
885.9	22622
886.025	22885
886.15	22790
886.275	22649
886.4	22641
886.525	22698
886.65	22672
886.775	22630
886.9	22683
887.025	23003
887.149	22622
887.274	22596
887.399	22394
887.523	22531
887.648	22428
887.773	22489
887.897	22546
888.021	22535
888.146	22542
888.27	22504
888.395	22641
888.519	22656
888.643	22390
888.767	22443
888.891	22333
889.015	22147
889.139	22360
889.263	22257
889.387	22310
889.511	22447
889.635	22375
889.759	22394
889.883	22204
890.006	22367
890.13	22337
890.254	22207
890.377	22280
890.501	22101
890.624	21915
890.748	21991
890.871	21797
890.995	21812
891.118	21831
891.241	21762
891.364	21827
891.488	21930
891.611	21755
891.734	21789
891.857	21808
891.98	21972
892.103	21781
892.226	21778
892.349	21793
892.471	21652
892.594	21671
892.717	21736
892.839	21644
892.962	21644
893.085	21641
893.207	21732
893.33	21644
893.452	21686
893.575	21717
893.697	21751
893.819	21903
893.941	21797
894.064	21797
894.186	21545
894.308	21800
894.43	21751
894.552	21804
894.674	21679
894.796	21610
894.918	21641
895.04	21576
895.161	21743
895.283	21663
895.405	21622
895.526	21587
895.648	21705
895.769	21671
895.891	21690
896.012	21736
896.134	21675
896.255	21755
896.376	21572
896.498	21648
896.619	21682
896.74	21717
896.861	21682
896.982	22002
897.103	22154
897.224	21956
897.345	21918
897.466	21827
897.587	21865
897.708	21949
897.828	21827
897.949	21819
898.07	21564
898.19	21648
898.311	21827
898.431	21827
898.552	21797
898.672	21793
898.792	21949
898.913	21911
899.033	21667
899.153	21530
899.273	21359
899.393	21603
899.513	21561
899.633	21488
899.753	21660
899.873	21450
899.993	21545
900.113	21424
900.232	21435
900.352	21549
900.472	21344
900.591	21230
900.711	21374
900.83	21306
900.95	21447
901.069	21412
901.189	21176
901.308	20914
901.427	20967
901.546	20823
901.665	20845
901.784	20815
901.904	20735
902.023	20735
902.141	20408
902.26	20286
902.379	20362
902.498	20389
902.617	20301
902.735	20469
902.854	20248
902.973	20434
903.091	20081
903.21	20046
903.328	20027
903.446	19967
903.565	19875
903.683	19947
903.801	19769
903.919	19860
904.038	19788
904.156	19635
904.274	19727
904.392	19639
904.51	19411
904.627	19430
904.745	19548
904.863	19609
904.981	19266
905.098	19255
905.216	19168
905.334	19369
905.451	19187
905.569	19225
905.686	19304
905.803	19171
905.921	19076
906.038	19190
906.155	19015
906.272	18867
906.389	18928
906.506	18764
906.623	18661
906.74	18798
906.857	18700
906.974	18768
907.091	18760
907.208	18848
907.324	18810
907.441	18604
907.557	18528
907.674	18506
907.79	18369
907.907	18483
908.023	18399
908.139	18456
908.256	18448
908.372	18232
908.488	18338
908.604	18254
908.72	18182
908.836	18224
908.952	18167
909.068	18133
909.184	18148
909.3	18091
909.415	18155
909.531	18125
909.647	17870
909.762	17901
909.878	17920
909.993	17756
910.108	17863
910.224	17836
910.339	17756
910.454	17665
910.57	17619
910.685	17490
910.8	17908
910.915	17821
911.03	17573
911.145	17478
911.259	17436
911.374	17493
911.489	17410
911.604	17280
911.718	17231
911.833	17265
911.947	17189
912.062	16942
912.176	17208
912.291	17322
912.405	17197
912.519	17246
912.633	17368
912.748	17181
912.862	17025
912.976	17029
913.09	16854
913.204	16835
913.318	17014
913.431	17048
913.545	17067
913.659	17159
913.772	16900
913.886	16816
914	16691
914.113	16812
914.226	16961
914.34	16698
914.453	16744
914.566	16752
914.68	16645
914.793	16691
914.906	16424
915.019	16337
915.132	16242
915.245	16356
915.358	16394
915.47	16303
915.583	16375
915.696	16367
915.809	16432
915.921	16462
916.034	16284
916.146	16211
916.259	16120
916.371	16253
916.483	16242
916.595	16120
916.708	16128
916.82	16093
916.932	16124
917.044	16051
917.156	16055
917.268	15975
917.38	16040
917.491	15937
917.603	15964
917.715	15895
917.826	16036
917.938	15899
918.049	15732
918.161	15876
918.272	15998
918.384	16040
918.495	15907
918.606	15644
918.717	15660
918.828	15686
918.939	15690
919.05	15610
919.161	15637
919.272	15530
919.383	15530
919.494	15694
919.604	15873
919.715	15561
919.826	15641
919.936	15530
920.047	15720
920.157	15568
920.267	15739
920.378	15637
920.488	15618
920.598	15690
920.708	15838
920.818	15743
920.928	15736
921.038	15899
921.148	15816
921.258	15435
921.368	15412
921.477	15332
921.587	15374
921.697	15218
921.806	15283
921.916	15100
922.025	15043
922.134	14948
922.244	14765
922.353	14948
922.462	14853
922.571	14811
922.68	14644
922.789	14590
922.898	14552
923.007	14499
923.116	14644
923.224	14492
923.333	14492
923.442	14408
923.55	14351
923.659	14442
923.767	14484
923.876	14336
923.984	14412
924.092	14301
924.201	14229
924.309	14225
924.417	14301
924.525	14168
924.633	14191
924.741	15032
924.849	13982
924.956	14096
925.064	13986
925.172	13871
925.279	13967
925.387	13963
925.494	14012
925.602	14027
925.709	14039
925.816	13731
925.924	13993
926.031	13959
926.138	13902
926.245	13875
926.352	13799
926.459	13875
926.566	13879
926.673	13723
926.779	13761
926.886	13658
926.993	13578
927.099	13468
927.206	13464
927.312	13396
927.419	13518
927.525	13487
927.631	13457
927.737	13339
927.843	13266
927.95	13217
928.056	13308
928.162	13293
928.267	13266
928.373	13864
928.479	13339
928.585	13004
928.69	13236
928.796	13263
928.901	13129
929.007	13019
929.112	13133
929.218	13110
929.323	12928
929.428	13038
929.533	13179
929.638	12913
929.743	12882
929.848	12871
929.953	12894
930.058	12878
930.163	12677
930.267	12604
930.372	12753
930.477	12521
930.581	12772
930.685	12604
930.79	12536
930.894	12517
930.998	12464
931.103	12559
931.207	12239
931.311	12125
931.415	12068
931.519	11828
931.623	11847
