Data from test_V78500241_1943.txt Node
Date: Fri Mar 25 15:55:15 CST 2022
User: usil
Spectrometer: V785-0024
Trigger mode: 0
Integration Time (sec): 4.000000E-1
Scans to average: 1
Nonlinearity correction enabled: false
Boxcar width: 0
Storing dark spectrum: false
XAxis mode: Wavelengths
Number of Pixels in Spectrum: 1024
>>>>>Begin Spectral Data<<<<<
801.071	28873
801.214	28721
801.356	28474
801.499	28462
801.641	28424
801.783	28322
801.926	28500
802.068	28382
802.211	28291
802.353	28246
802.496	28101
802.638	27991
802.78	28006
802.923	28017
803.065	27956
803.208	27994
803.35	28082
803.492	28036
803.635	28310
803.777	28154
803.919	28356
804.061	28550
804.204	28276
804.346	28249
804.488	28291
804.63	28265
804.773	28162
804.915	28295
805.057	28451
805.199	28341
805.341	28344
805.483	28550
805.626	28500
805.768	28382
805.91	28401
806.052	28413
806.194	28337
806.336	28649
806.478	28497
806.62	28504
806.762	28630
806.904	28702
807.046	28873
807.188	28873
807.33	28919
807.472	28911
807.614	28824
807.756	28858
807.898	28858
808.04	28592
808.182	28763
808.324	28809
808.465	28858
808.607	29079
808.749	29239
808.891	29345
809.033	29216
809.174	29280
809.316	29200
809.458	29094
809.6	29052
809.741	29204
809.883	29280
810.025	29330
810.166	29391
810.308	29417
810.45	29284
810.591	29410
810.733	29147
810.875	29056
811.016	29018
811.158	29067
811.299	29273
811.441	29273
811.582	29429
811.724	29322
811.865	29136
812.007	29140
812.148	29185
812.29	29216
812.431	29406
812.573	29577
812.714	29539
812.855	29718
812.997	29908
813.138	29783
813.279	29942
813.421	29672
813.562	29547
813.703	29509
813.845	29486
813.986	29113
814.127	28915
814.268	28847
814.41	28881
814.551	28824
814.692	28820
814.833	28953
814.974	28637
815.115	28790
815.256	28713
815.397	28828
815.539	28740
815.68	28557
815.821	28592
815.962	28683
816.103	28664
816.244	28538
816.385	28394
816.526	28580
816.666	28276
816.807	28135
816.948	28143
817.089	28322
817.23	28226
817.371	28169
817.512	28147
817.653	28032
817.793	28150
817.934	28120
818.075	28154
818.216	28249
818.356	28131
818.497	28002
818.638	27876
818.778	28139
818.919	27884
819.06	28051
819.2	28059
819.341	28181
819.481	28131
819.622	28352
819.762	28599
819.903	28451
820.043	28363
820.184	28421
820.324	28386
820.465	28295
820.605	28265
820.746	28219
820.886	28154
821.026	28223
821.167	28268
821.307	28333
821.447	28158
821.588	28154
821.728	27960
821.868	27762
822.008	27698
822.149	27637
822.289	27667
822.429	27492
822.569	27363
822.709	27359
822.849	27230
822.99	27180
823.13	27119
823.27	27081
823.41	27017
823.55	26811
823.69	26940
823.83	27005
823.97	26956
824.11	26712
824.25	26636
824.389	26754
824.529	26998
824.669	26910
824.809	26906
824.949	26823
825.089	26937
825.228	26921
825.368	26689
825.508	26644
825.648	26674
825.787	26758
825.927	26864
826.067	26640
826.206	26674
826.346	26735
826.485	26716
826.625	26788
826.765	26743
826.904	26727
827.044	26507
827.183	26541
827.323	26522
827.462	26465
827.601	26370
827.741	26305
827.88	26579
828.02	26317
828.159	26484
828.298	26450
828.437	26480
828.577	26332
828.716	26469
828.855	26317
828.994	26130
829.134	26126
829.273	26107
829.412	26130
829.551	25963
829.69	26153
829.829	26221
829.968	26252
830.107	26164
830.246	26157
830.385	26084
830.524	25925
830.663	26012
830.802	25803
830.941	25712
831.08	25567
831.219	25731
831.357	25753
831.496	25947
831.635	25742
831.774	25529
831.913	25571
832.051	25441
832.19	25472
832.329	25594
832.467	25396
832.606	25434
832.744	25362
832.883	25377
833.022	25403
833.16	25301
833.299	25381
833.437	25499
833.576	25506
833.714	25449
833.852	25445
833.991	25434
834.129	25620
834.267	25563
834.406	25529
834.544	25613
834.682	25388
834.821	25476
834.959	25605
835.097	25343
835.235	25346
835.373	25445
835.511	25282
835.65	25312
835.788	25384
835.926	25171
836.064	24932
836.202	25107
836.34	25316
836.478	25354
836.615	25263
836.753	25175
836.891	25285
837.029	25270
837.167	25293
837.305	25122
837.443	25133
837.58	25122
837.718	25145
837.856	25046
837.993	25065
838.131	25145
838.269	24886
838.406	24992
838.544	24859
838.681	24776
838.819	24688
838.956	24441
839.094	24528
839.231	24479
839.369	24684
839.506	24852
839.643	24768
839.781	24593
839.918	24399
840.055	24547
840.193	24597
840.33	24547
840.467	24559
840.604	24544
840.742	24741
840.879	24410
841.016	24292
841.153	24277
841.29	24544
841.427	24441
841.564	24433
841.701	24437
841.838	24399
841.975	24266
842.112	24182
842.249	24311
842.385	24228
842.522	24357
842.659	24224
842.796	24266
842.933	24239
843.069	24148
843.206	24079
843.343	24190
843.479	24197
843.616	24182
843.752	24087
843.889	23977
844.025	23996
844.162	23916
844.298	24026
844.435	23958
844.571	23961
844.708	23878
844.844	24171
844.98	24110
845.117	24110
845.253	23878
845.389	23802
845.525	23882
845.661	23771
845.798	23775
845.934	23790
846.07	23585
846.206	23760
846.342	23802
846.478	23733
846.614	23600
846.75	23478
846.886	23303
847.022	23543
847.158	23478
847.294	23406
847.429	23376
847.565	23322
847.701	23729
847.837	23136
847.972	23140
848.108	23208
848.244	23136
848.379	23025
848.515	23052
848.65	22980
848.786	23052
848.921	23079
849.057	23048
849.192	23044
849.328	23121
849.463	23033
849.598	22885
849.734	22854
849.869	22892
850.004	22744
850.14	22725
850.275	22778
850.41	22630
850.545	22782
850.68	22622
850.815	22702
850.95	22774
851.085	22991
851.22	22797
851.355	22736
851.49	22782
851.625	22801
851.76	22615
851.895	22767
852.03	22694
852.165	22801
852.299	22706
852.434	23014
852.569	22797
852.703	22710
852.838	22812
852.973	22797
853.107	22839
853.242	22752
853.376	22538
853.511	22466
853.645	22569
853.78	22717
853.914	22542
854.048	22569
854.183	22611
854.317	22679
854.451	22653
854.585	22493
854.72	22535
854.854	22630
854.988	22432
855.122	22603
855.256	22382
855.39	22504
855.524	22603
855.658	22664
855.792	22626
855.926	22653
856.06	22519
856.194	22729
856.327	22618
856.461	22428
856.595	22611
856.729	22603
856.862	22660
856.996	22641
857.13	22702
857.263	22717
857.397	22584
857.53	22470
857.664	22626
857.797	22645
857.931	22744
858.064	22519
858.197	22538
858.331	22630
858.464	22535
858.597	22493
858.731	22455
858.864	22451
858.997	22497
859.13	22634
859.263	22691
859.396	22615
859.529	22607
859.662	22531
859.795	22569
859.928	22481
860.061	22778
860.194	22896
860.327	22599
860.46	22622
860.592	22626
860.725	22763
860.858	22759
860.99	22683
861.123	22569
861.256	22523
861.388	22611
861.521	23391
861.653	22451
861.786	22306
861.918	22295
862.05	22516
862.183	22580
862.315	22478
862.447	22599
862.58	22405
862.712	22424
862.844	22341
862.976	22352
863.108	22447
863.24	22854
863.372	22188
863.504	22371
863.636	22242
863.768	22348
863.9	22230
864.032	22329
864.164	22284
864.296	22402
864.428	22436
864.559	22375
864.691	22413
864.823	22440
864.954	22185
865.086	22265
865.217	22192
865.349	22147
865.48	22147
865.612	22268
865.743	22352
865.875	22196
866.006	22230
866.137	22322
866.269	22147
866.4	22112
866.531	22166
866.662	22109
866.793	22158
866.924	22154
867.055	22070
867.186	22200
867.317	22070
867.448	21956
867.579	22128
867.71	22059
867.841	22032
867.972	22150
868.103	22109
868.233	22192
868.364	22200
868.495	22226
868.625	22284
868.756	22451
868.886	22268
869.017	22352
869.147	22363
869.278	22413
869.408	22386
869.539	22386
869.669	22508
869.799	22371
869.929	22428
870.06	22436
870.19	22816
870.32	22516
870.45	22596
870.58	22805
870.71	22809
870.84	22847
870.97	22664
871.1	22675
871.23	22881
871.36	22900
871.489	22675
871.619	22919
871.749	22869
871.879	23041
872.008	23033
872.138	22949
872.267	22923
872.397	22900
872.526	22744
872.656	22790
872.785	22675
872.915	23067
873.044	23052
873.173	22987
873.303	22927
873.432	23018
873.561	23064
873.69	22923
873.819	23037
873.948	22942
874.077	22976
874.206	22896
874.335	22889
874.464	23079
874.593	23098
874.722	23037
874.851	23159
874.979	23193
875.108	23368
875.237	23041
875.365	23048
875.494	23124
875.623	23181
875.751	23269
875.88	23223
876.008	23288
876.136	23216
876.265	23535
876.393	23646
876.521	23642
876.65	23592
876.778	23547
876.906	23448
877.034	23452
877.162	23474
877.29	23455
877.418	23493
877.546	23448
877.674	23493
877.802	23497
877.93	23547
878.058	23436
878.185	23364
878.313	23471
878.441	23452
878.568	23337
878.696	23414
878.824	23649
878.951	23611
879.079	23718
879.206	23737
879.333	23748
879.461	23577
879.588	23756
879.715	23630
879.842	23710
879.97	23581
880.097	23391
880.224	23318
880.351	23452
880.478	23356
880.605	23360
880.732	23303
880.859	23524
880.986	23368
881.112	23440
881.239	23220
881.366	23117
881.493	23014
881.619	22946
881.746	23022
881.872	22900
881.999	22828
882.125	22824
882.252	22942
882.378	22866
882.505	23079
882.631	22664
882.757	22554
882.883	22565
883.01	22485
883.136	22618
883.262	22489
883.388	22470
883.514	22573
883.64	22527
883.766	22493
883.892	22329
884.018	22337
884.143	22493
884.269	22710
884.395	22265
884.52	22246
884.646	22223
884.772	22112
884.897	22109
885.023	22162
885.148	22291
885.274	22382
885.399	22405
885.524	22204
885.65	22196
885.775	22150
885.9	22150
886.025	22314
886.15	22272
886.275	22055
886.4	22158
886.525	22097
886.65	22097
886.775	22086
886.9	22306
887.025	22402
887.149	22116
887.274	22006
887.399	21994
887.523	21991
887.648	21793
887.773	21915
887.897	21926
888.021	21987
888.146	21918
888.27	22021
888.395	21941
888.519	21945
888.643	21888
888.767	22017
888.891	21926
889.015	21686
889.139	21747
889.263	21804
889.387	21804
889.511	22013
889.635	21861
889.759	21633
889.883	21709
890.006	21747
890.13	21778
890.254	21553
890.377	21511
890.501	21370
890.624	21405
890.748	21549
890.871	21310
890.995	21214
891.118	21329
891.241	21348
891.364	21245
891.488	21355
891.611	21294
891.734	21291
891.857	21272
891.98	21260
892.103	21279
892.226	21340
892.349	21135
892.471	21127
892.594	21104
892.717	21249
892.839	21150
892.962	21173
893.085	21230
893.207	21252
893.33	21116
893.452	21047
893.575	21188
893.697	21154
893.819	21306
893.941	21348
894.064	21275
894.186	21077
894.308	21066
894.43	21233
894.552	21207
894.674	21237
894.796	21108
894.918	21089
895.04	21173
895.161	21123
895.283	21214
895.405	21154
895.526	21096
895.648	21017
895.769	21127
895.891	21245
896.012	21173
896.134	21218
896.255	21169
896.376	21138
896.498	21135
896.619	21306
896.74	21093
896.861	21272
896.982	21443
897.103	21622
897.224	21393
897.345	21351
897.466	21298
897.587	21370
897.708	21443
897.828	21386
897.949	21310
898.07	21180
898.19	21313
898.311	21420
898.431	21291
898.552	21287
898.672	21439
898.792	21370
898.913	21302
899.033	21119
899.153	21123
899.273	20963
899.393	21146
899.513	21165
899.633	21055
899.753	21074
899.873	20956
899.993	21127
900.113	21188
900.232	20933
900.352	20929
900.472	20891
900.591	20868
900.711	20918
900.83	20785
900.95	20986
901.069	20876
901.189	20735
901.308	20533
901.427	20366
901.546	20427
901.665	20309
901.784	20332
901.904	20237
902.023	20202
902.141	20020
902.26	19837
902.379	20005
902.498	19925
902.617	19909
902.735	19871
902.854	19989
902.973	19803
903.091	19635
903.21	19502
903.328	19605
903.446	19495
903.565	19293
903.683	19396
903.801	19236
903.919	19251
904.038	19312
904.156	19228
904.274	19179
904.392	19179
904.51	19072
904.627	19072
904.745	19175
904.863	19129
904.981	18928
905.098	18783
905.216	18871
905.334	18760
905.451	18749
905.569	18749
905.686	18798
905.803	18791
905.921	18509
906.038	18707
906.155	18540
906.272	18479
906.389	18479
906.506	18350
906.623	18228
906.74	18327
906.857	18140
906.974	18277
907.091	18296
907.208	18315
907.324	18384
907.441	18152
907.557	18038
907.674	18072
907.79	18057
907.907	18053
908.023	18049
908.139	18015
908.256	17920
908.372	17988
908.488	17996
908.604	17767
908.72	17745
908.836	17756
908.952	17786
909.068	17802
909.184	17760
909.3	17756
909.415	17847
909.531	17653
909.647	17429
909.762	17566
909.878	17433
909.993	17471
910.108	17459
910.224	17497
910.339	17379
910.454	17337
910.57	17337
910.685	17155
910.8	17455
910.915	17414
911.03	17223
911.145	17003
911.259	17075
911.374	17022
911.489	17029
911.604	16927
911.718	16801
911.833	16881
911.947	16683
912.062	16634
912.176	16698
912.291	16752
912.405	16713
912.519	16869
912.633	17018
912.748	16908
912.862	16812
912.976	16615
913.09	16436
913.204	16561
913.318	16634
913.431	16881
913.545	16710
913.659	16683
913.772	16611
913.886	16535
914	16329
914.113	16561
914.226	16527
914.34	16432
914.453	16261
914.566	16257
914.68	16204
914.793	16162
914.906	16063
915.019	15926
915.132	15941
915.245	15895
915.358	15987
915.47	15888
915.583	15968
915.696	15975
915.809	16086
915.921	16063
916.034	15934
916.146	15915
916.259	15892
916.371	15907
916.483	15930
916.595	15747
916.708	15720
916.82	15736
916.932	15675
917.044	15854
917.156	15629
917.268	15606
917.38	15511
917.491	15663
917.603	15644
917.715	15629
917.826	15720
917.938	15526
918.049	15393
918.161	15504
918.272	15690
918.384	15599
918.495	15553
918.606	15340
918.717	15272
918.828	15447
918.939	15302
919.05	15207
919.161	15317
919.272	15051
919.383	15184
919.494	15298
919.604	15485
919.715	15195
919.826	15131
919.936	15226
920.047	15237
920.157	15230
920.267	15507
920.378	15294
920.488	15192
920.598	15450
920.708	15530
920.818	15363
920.928	15405
921.038	15526
921.148	15405
921.258	15157
921.368	15039
921.477	14975
921.587	15001
921.697	14765
921.806	14944
921.916	14811
922.025	14708
922.134	14636
922.244	14488
922.353	14746
922.462	14454
922.571	14438
922.68	14233
922.789	14229
922.898	14210
923.007	14153
923.116	14161
923.224	14294
923.333	14210
923.442	14065
923.55	14111
923.659	14103
923.767	14199
923.876	13955
923.984	14107
924.092	13986
924.201	14096
924.309	14016
924.417	13970
924.525	13913
924.633	13898
924.741	14834
924.849	13712
924.956	13879
925.064	13742
925.172	13639
925.279	13597
925.387	13658
925.494	13708
925.602	13712
925.709	13651
925.816	13613
925.924	13533
926.031	13632
926.138	13681
926.245	13544
926.352	13548
926.459	13613
926.566	13559
926.673	13396
926.779	13373
926.886	13422
926.993	13274
927.099	13175
927.206	13126
927.312	13209
927.419	13240
927.525	13179
927.631	13183
927.737	13019
927.843	13061
927.95	12897
928.056	13046
928.162	12973
928.267	13088
928.373	13723
928.479	12962
928.585	12783
928.69	12970
928.796	12916
928.901	12768
929.007	12703
929.112	12939
929.218	12715
929.323	12722
929.428	12722
929.533	12821
929.638	12741
929.743	12741
929.848	12715
929.953	12585
930.058	12604
930.163	12441
930.267	12361
930.372	12483
930.477	12334
930.581	12517
930.685	12483
930.79	12235
930.894	12235
930.998	12239
931.103	12437
931.207	11931
931.311	11878
931.415	11805
931.519	11615
931.623	11642
