Data from test_V78500241_2983.txt Node
Date: Fri Mar 25 16:02:27 CST 2022
User: usil
Spectrometer: V785-0024
Trigger mode: 0
Integration Time (sec): 4.000000E-1
Scans to average: 1
Nonlinearity correction enabled: false
Boxcar width: 0
Storing dark spectrum: false
XAxis mode: Wavelengths
Number of Pixels in Spectrum: 1024
>>>>>Begin Spectral Data<<<<<
801.071	28329
801.214	28246
801.356	28204
801.499	27956
801.641	27804
801.783	27895
801.926	28051
802.068	28017
802.211	27876
802.353	27880
802.496	27618
802.638	27504
802.78	27679
802.923	27583
803.065	27485
803.208	27473
803.35	27625
803.492	27762
803.635	27857
803.777	27766
803.919	27804
804.061	28219
804.204	27876
804.346	27698
804.488	27717
804.63	27869
804.773	27903
804.915	27888
805.057	27972
805.199	27865
805.341	27953
805.483	28002
805.626	27930
805.768	27854
805.91	28044
806.052	28105
806.194	27892
806.336	28105
806.478	27979
806.62	27998
806.762	28169
806.904	28272
807.046	28500
807.188	28531
807.33	28603
807.472	28531
807.614	28409
807.756	28413
807.898	28363
808.04	28272
808.182	28405
808.324	28363
808.465	28440
808.607	28565
808.749	28759
808.891	28771
809.033	28816
809.174	28801
809.316	28569
809.458	28763
809.6	28637
809.741	28805
809.883	28949
810.025	29014
810.166	28919
810.308	28946
810.45	28915
810.591	28839
810.733	28725
810.875	28729
811.016	28584
811.158	28516
811.299	28626
811.441	28736
811.582	28869
811.724	28702
811.865	28733
812.007	28603
812.148	28645
812.29	28721
812.431	28976
812.573	29102
812.714	29090
812.855	29250
812.997	29307
813.138	29509
813.279	29318
813.421	29227
813.562	29227
813.703	29014
813.845	28805
813.986	28645
814.127	28546
814.268	28257
814.41	28424
814.551	28299
814.692	28459
814.833	28409
814.974	28352
815.115	28424
815.256	28291
815.397	28299
815.539	28257
815.68	28253
815.821	28173
815.962	28162
816.103	28025
816.244	28044
816.385	28021
816.526	28051
816.666	27861
816.807	27797
816.948	27679
817.089	27808
817.23	27709
817.371	27686
817.512	27568
817.653	27835
817.793	27633
817.934	27599
818.075	27675
818.216	27785
818.356	27603
818.497	27667
818.638	27462
818.778	27606
818.919	27526
819.06	27485
819.2	27572
819.341	27892
819.481	27686
819.622	27922
819.762	28109
819.903	27884
820.043	27960
820.184	27873
820.324	27911
820.465	27991
820.605	27846
820.746	27812
820.886	27854
821.026	27755
821.167	27755
821.307	27846
821.447	27698
821.588	27591
821.728	27545
821.868	27427
822.008	27298
822.149	27260
822.289	27264
822.429	27119
822.569	26918
822.709	26876
822.849	26735
822.99	26590
823.13	26712
823.27	26579
823.41	26613
823.55	26427
823.69	26438
823.83	26461
823.97	26503
824.11	26389
824.25	26214
824.389	26389
824.529	26358
824.669	26320
824.809	26412
824.949	26473
825.089	26473
825.228	26343
825.368	26142
825.508	26237
825.648	26286
825.787	26240
825.927	26225
826.067	26183
826.206	26244
826.346	26195
826.485	26377
826.625	26275
826.765	26351
826.904	26328
827.044	26073
827.183	26103
827.323	25807
827.462	25974
827.601	25997
827.741	25902
827.88	26020
828.02	25696
828.159	25761
828.298	25928
828.437	25818
828.577	25814
828.716	25932
828.855	25723
828.994	25525
829.134	25548
829.273	25639
829.412	25601
829.551	25491
829.69	25700
829.829	25616
829.968	25674
830.107	25700
830.246	25693
830.385	25525
830.524	25460
830.663	25483
830.802	25422
830.941	25228
831.08	25266
831.219	25331
831.357	25263
831.496	25400
831.635	25270
831.774	25232
831.913	25061
832.051	25080
832.19	25232
832.329	24962
832.467	24981
832.606	24852
832.744	24821
832.883	24875
833.022	24779
833.16	24909
833.299	24932
833.437	24989
833.576	25012
833.714	25015
833.852	25076
833.991	25141
834.129	25069
834.267	25103
834.406	24939
834.544	24932
834.682	25012
834.821	24882
834.959	25198
835.097	24981
835.235	25027
835.373	24916
835.511	24951
835.65	24779
835.788	24932
835.926	24635
836.064	24570
836.202	24669
836.34	24886
836.478	24810
836.615	24726
836.753	24798
836.891	24852
837.029	24817
837.167	24734
837.305	24715
837.443	24612
837.58	24719
837.718	24741
837.856	24711
837.993	24563
838.131	24658
838.269	24460
838.406	24582
838.544	24574
838.681	24323
838.819	24327
838.956	24167
839.094	24079
839.231	24068
839.369	24251
839.506	24521
839.643	24327
839.781	24098
839.918	24011
840.055	24098
840.193	24007
840.33	23996
840.467	23992
840.604	24102
840.742	24220
840.879	23802
841.016	23927
841.153	23855
841.29	24117
841.427	23996
841.564	24091
841.701	23832
841.838	23893
841.975	23901
842.112	23954
842.249	23771
842.385	23726
842.522	24015
842.659	23817
842.796	23828
842.933	23710
843.069	23577
843.206	23608
843.343	23836
843.479	23802
843.616	23684
843.752	23589
843.889	23608
844.025	23779
844.162	23501
844.298	23661
844.435	23467
844.571	23417
844.708	23440
844.844	23646
844.98	23733
845.117	23672
845.253	23429
845.389	23463
845.525	23455
845.661	23440
845.798	23174
845.934	23471
846.07	23318
846.206	23402
846.342	23334
846.478	23277
846.614	23155
846.75	23018
846.886	22919
847.022	23056
847.158	23136
847.294	23025
847.429	23056
847.565	22991
847.701	23220
847.837	22733
847.972	22691
848.108	22702
848.244	22733
848.379	22691
848.515	22569
848.65	22504
848.786	22546
848.921	22607
849.057	22615
849.192	22637
849.328	22569
849.463	22592
849.598	22478
849.734	22523
849.869	22417
850.004	22402
850.14	22356
850.275	22284
850.41	22257
850.545	22276
850.68	22405
850.815	22337
850.95	22291
851.085	22618
851.22	22500
851.355	22348
851.49	22344
851.625	22375
851.76	22299
851.895	22249
852.03	22253
852.165	22303
852.299	22223
852.434	22306
852.569	22428
852.703	22371
852.838	22421
852.973	22462
853.107	22348
853.242	22265
853.376	22177
853.511	22162
853.645	22158
853.78	22363
853.914	22295
854.048	22139
854.183	22067
854.317	22287
854.451	22356
854.585	22097
854.72	22120
854.854	22215
854.988	22048
855.122	22238
855.256	22044
855.39	22246
855.524	22143
855.658	22192
855.792	22131
855.926	22200
856.06	22322
856.194	22246
856.327	22177
856.461	22188
856.595	22204
856.729	22162
856.862	22287
856.996	22150
857.13	22211
857.263	22276
857.397	22306
857.53	22204
857.664	22048
857.797	22337
857.931	22314
858.064	22242
858.197	22272
858.331	22097
858.464	22101
858.597	22070
858.731	22196
858.864	22185
858.997	22086
859.13	22139
859.263	22242
859.396	22109
859.529	22181
859.662	22188
859.795	22101
859.928	22211
860.061	22337
860.194	22287
860.327	22268
860.46	22204
860.592	22303
860.725	22348
860.858	22329
860.99	22223
861.123	22112
861.256	22048
861.388	22223
861.521	22790
861.653	21926
861.786	21930
861.918	22017
862.05	22006
862.183	22147
862.315	22078
862.447	22162
862.58	22090
862.712	22006
862.844	21892
862.976	21972
863.108	21953
863.24	22344
863.372	21873
863.504	21899
863.636	21918
863.768	21827
863.9	21876
864.032	21960
864.164	21838
864.296	21895
864.428	21975
864.559	22029
864.691	22040
864.823	21941
864.954	21941
865.086	21953
865.217	21827
865.349	21603
865.48	21720
865.612	21759
865.743	21975
865.875	21770
866.006	21755
866.137	21816
866.269	21720
866.4	21819
866.531	21682
866.662	21530
866.793	21747
866.924	21591
867.055	21774
867.186	21679
867.317	21686
867.448	21572
867.579	21774
867.71	21606
867.841	21736
867.972	21751
868.103	21599
868.233	21694
868.364	21713
868.495	21698
868.625	21975
868.756	22002
868.886	21888
869.017	21892
869.147	22048
869.278	22097
869.408	21941
869.539	22029
869.669	21975
869.799	21915
869.929	22063
870.06	22006
870.19	22306
870.32	22139
870.45	22257
870.58	22291
870.71	22508
870.84	22386
870.97	22325
871.1	22390
871.23	22440
871.36	22622
871.489	22538
871.619	22409
871.749	22592
871.879	22554
872.008	22672
872.138	22538
872.267	22504
872.397	22348
872.526	22322
872.656	22421
872.785	22394
872.915	22516
873.044	22687
873.173	22577
873.303	22531
873.432	22622
873.561	22713
873.69	22554
873.819	22538
873.948	22508
874.077	22634
874.206	22500
874.335	22611
874.464	22797
874.593	22767
874.722	22729
874.851	22896
874.979	22752
875.108	22820
875.237	22866
875.365	22721
875.494	22634
875.623	22828
875.751	22771
875.88	22919
876.008	22915
876.136	22938
876.265	23174
876.393	23364
876.521	23315
876.65	23162
876.778	23235
876.906	23105
877.034	23086
877.162	23121
877.29	23105
877.418	23162
877.546	23113
877.674	23159
877.802	23132
877.93	23162
878.058	23223
878.185	23010
878.313	23075
878.441	22995
878.568	23090
878.696	23102
878.824	23197
878.951	23261
879.079	23326
879.206	23425
879.333	23239
879.461	23113
879.588	23250
879.715	23337
879.842	23334
879.97	23140
880.097	22991
880.224	23075
880.351	22927
880.478	22911
880.605	22995
880.732	22866
880.859	23102
880.986	23010
881.112	22805
881.239	22831
881.366	22618
881.493	22706
881.619	22580
881.746	22538
881.872	22489
881.999	22443
882.125	22436
882.252	22500
882.378	22546
882.505	22493
882.631	22287
882.757	22207
882.883	22265
883.01	22207
883.136	22173
883.262	22109
883.388	21994
883.514	22158
883.64	22211
883.766	22135
883.892	21991
884.018	22040
884.143	22082
884.269	22154
884.395	21880
884.52	21835
884.646	21835
884.772	21759
884.897	21698
885.023	21884
885.148	22006
885.274	22036
885.399	21857
885.524	21766
885.65	21831
885.775	21797
885.9	21983
886.025	21964
886.15	21956
886.275	21797
886.4	21755
886.525	21739
886.65	21656
886.775	21713
886.9	21960
887.025	22036
887.149	21766
887.274	21553
887.399	21488
887.523	21561
887.648	21580
887.773	21462
887.897	21656
888.021	21530
888.146	21481
888.27	21720
888.395	21644
888.519	21637
888.643	21743
888.767	21671
888.891	21462
889.015	21466
889.139	21481
889.263	21237
889.387	21549
889.511	21462
889.635	21485
889.759	21389
889.883	21431
890.006	21386
890.13	21534
890.254	21397
890.377	21310
890.501	21199
890.624	21176
890.748	21180
890.871	20952
890.995	20963
891.118	20861
891.241	21039
891.364	20956
891.488	21001
891.611	20876
891.734	20872
891.857	21017
891.98	20921
892.103	20933
892.226	21005
892.349	20788
892.471	20796
892.594	20811
892.717	20842
892.839	20689
892.962	20815
893.085	20887
893.207	20849
893.33	20682
893.452	20838
893.575	20861
893.697	20845
893.819	21009
893.941	21104
894.064	20925
894.186	20823
894.308	20640
894.43	20861
894.552	20883
894.674	20948
894.796	20682
894.918	20815
895.04	20800
895.161	20899
895.283	20967
895.405	20788
895.526	20807
895.648	20792
895.769	20899
895.891	20895
896.012	20960
896.134	20887
896.255	20781
896.376	20811
896.498	20769
896.619	20758
896.74	20750
896.861	20842
896.982	21100
897.103	21207
897.224	21184
897.345	21077
897.466	20994
897.587	21051
897.708	21104
897.828	21131
897.949	20918
898.07	20811
898.19	20925
898.311	21005
898.431	21058
898.552	20941
898.672	20929
898.792	20975
898.913	20990
899.033	20895
899.153	20941
899.273	20727
899.393	20682
899.513	20750
899.633	20758
899.753	20765
899.873	20746
899.993	20777
900.113	20735
900.232	20689
900.352	20762
900.472	20518
900.591	20492
900.711	20419
900.83	20488
900.95	20609
901.069	20686
901.189	20404
901.308	20206
901.427	20126
901.546	20126
901.665	20180
901.784	20237
901.904	20012
902.023	19913
902.141	19662
902.26	19693
902.379	19712
902.498	19552
902.617	19613
902.735	19639
902.854	19590
902.973	19521
903.091	19327
903.21	19289
903.328	19324
903.446	19179
903.565	19190
903.683	19061
903.801	18939
903.919	18973
904.038	19004
904.156	18787
904.274	18897
904.392	18741
904.51	18867
904.627	18738
904.745	18863
904.863	18825
904.981	18559
905.098	18494
905.216	18532
905.334	18490
905.451	18528
905.569	18486
905.686	18528
905.803	18509
905.921	18304
906.038	18407
906.155	18292
906.272	18171
906.389	18159
906.506	17923
906.623	18087
906.74	18053
906.857	17946
906.974	17832
907.091	18106
907.208	18159
907.324	18117
907.441	18011
907.557	17745
907.674	17665
907.79	17687
907.907	17737
908.023	17752
908.139	17771
908.256	17703
908.372	17547
908.488	17554
908.604	17429
908.72	17440
908.836	17497
908.952	17455
909.068	17570
909.184	17505
909.3	17433
909.415	17520
909.531	17486
909.647	17246
909.762	17136
909.878	17121
909.993	17143
910.108	16984
910.224	17060
910.339	17124
910.454	17018
910.57	16987
910.685	16854
910.8	17140
910.915	17052
911.03	16938
911.145	16786
911.259	16763
911.374	16721
911.489	16637
911.604	16607
911.718	16535
911.833	16417
911.947	16455
912.062	16284
912.176	16394
912.291	16466
912.405	16455
912.519	16653
912.633	16603
912.748	16565
912.862	16493
912.976	16318
913.09	16086
913.204	16310
913.318	16158
913.431	16356
913.545	16314
913.659	16257
913.772	16150
913.886	16071
914	15991
914.113	16105
914.226	16215
914.34	16200
914.453	15998
914.566	16192
914.68	16006
914.793	15812
914.906	15724
915.019	15701
915.132	15584
915.245	15682
915.358	15698
915.47	15724
915.583	15637
915.696	15759
915.809	15720
915.921	15732
916.034	15660
916.146	15614
916.259	15515
916.371	15629
916.483	15614
916.595	15519
916.708	15359
916.82	15469
916.932	15492
917.044	15469
917.156	15466
917.268	15188
917.38	15378
917.491	15260
917.603	15272
917.715	15408
917.826	15382
917.938	15264
918.049	15013
918.161	15222
918.272	15435
918.384	15340
918.495	15203
918.606	15062
918.717	15112
918.828	15123
918.939	15135
919.05	14963
919.161	15024
919.272	14800
919.383	14872
919.494	15135
919.604	15252
919.715	14994
919.826	14960
919.936	15055
920.047	14937
920.157	15058
920.267	15119
920.378	14998
920.488	14956
920.598	15169
920.708	15317
920.818	15108
920.928	15112
921.038	15249
921.148	15298
921.258	14921
921.368	14868
921.477	14769
921.587	14693
921.697	14625
921.806	14716
921.916	14594
922.025	14423
922.134	14385
922.244	14267
922.353	14419
922.462	14218
922.571	14164
922.68	14024
922.789	14008
922.898	14103
923.007	13879
923.116	14054
923.224	14027
923.333	13963
923.442	13902
923.55	13860
923.659	13814
923.767	13822
923.876	13784
923.984	13925
924.092	13750
924.201	13795
924.309	13818
924.417	13814
924.525	13632
924.633	13712
924.741	14476
924.849	13556
924.956	13601
925.064	13388
925.172	13373
925.279	13407
925.387	13460
925.494	13354
925.602	13521
925.709	13487
925.816	13293
925.924	13331
926.031	13316
926.138	13354
926.245	13407
926.352	13282
926.459	13430
926.566	13377
926.673	13209
926.779	13057
926.886	13190
926.993	12981
927.099	12901
927.206	12878
927.312	12981
927.419	13008
927.525	12909
927.631	12951
927.737	12760
927.843	12814
927.95	12779
928.056	12810
928.162	12783
928.267	12859
928.373	13384
928.479	12821
928.585	12551
928.69	12719
928.796	12722
928.901	12658
929.007	12460
929.112	12578
929.218	12578
929.323	12433
929.428	12513
929.533	12585
929.638	12551
929.743	12380
929.848	12448
929.953	12376
930.058	12224
930.163	12186
930.267	12190
930.372	12319
930.477	12098
930.581	12426
930.685	12262
930.79	12072
930.894	12064
930.998	12019
931.103	12125
931.207	11790
931.311	11699
931.415	11653
931.519	11383
931.623	11417
