Data from test_V78500241_415.txt Node
Date: Fri Mar 25 15:44:40 CST 2022
User: usil
Spectrometer: V785-0024
Trigger mode: 0
Integration Time (sec): 4.000000E-1
Scans to average: 1
Nonlinearity correction enabled: false
Boxcar width: 0
Storing dark spectrum: false
XAxis mode: Wavelengths
Number of Pixels in Spectrum: 1024
>>>>>Begin Spectral Data<<<<<
801.071	28542
801.214	28455
801.356	28074
801.499	28166
801.641	28116
801.783	28116
801.926	28032
802.068	28051
802.211	27762
802.353	27960
802.496	27766
802.638	27644
802.78	27698
802.923	27549
803.065	27686
803.208	27682
803.35	27694
803.492	27751
803.635	27869
803.777	27679
803.919	27804
804.061	28036
804.204	27865
804.346	27728
804.488	27679
804.63	27728
804.773	27625
804.915	27812
805.057	27884
805.199	27652
805.341	27781
805.483	27953
805.626	27804
805.768	27728
805.91	27854
806.052	27914
806.194	27911
806.336	28166
806.478	27994
806.62	27869
806.762	28021
806.904	28306
807.046	28363
807.188	28371
807.33	28379
807.472	28447
807.614	28181
807.756	28348
807.898	28097
808.04	28051
808.182	28124
808.324	28303
808.465	28143
808.607	28246
808.749	28554
808.891	28626
809.033	28607
809.174	28535
809.316	28474
809.458	28542
809.6	28523
809.741	28546
809.883	28660
810.025	28702
810.166	28740
810.308	28862
810.45	28904
810.591	28820
810.733	28489
810.875	28573
811.016	28352
811.158	28398
811.299	28759
811.441	28710
811.582	28672
811.724	28584
811.865	28455
812.007	28440
812.148	28401
812.29	28493
812.431	28725
812.573	28782
812.714	28915
812.855	29079
812.997	29132
813.138	29246
813.279	29159
813.421	29094
813.562	28961
813.703	28710
813.845	28626
813.986	28421
814.127	28303
814.268	28131
814.41	28200
814.551	28253
814.692	28249
814.833	28048
814.974	28211
815.115	28230
815.256	27953
815.397	27991
815.539	27998
815.68	27979
815.821	27823
815.962	28032
816.103	28036
816.244	27747
816.385	27679
816.526	27591
816.666	27500
816.807	27351
816.948	27519
817.089	27519
817.23	27447
817.371	27260
817.512	27473
817.653	27245
817.793	27302
817.934	27420
818.075	27469
818.216	27386
818.356	27252
818.497	27294
818.638	27077
818.778	27203
818.919	27108
819.06	27157
819.2	27321
819.341	27260
819.481	27393
819.622	27500
819.762	27679
819.903	27656
820.043	27530
820.184	27408
820.324	27450
820.465	27557
820.605	27504
820.746	27511
820.886	27298
821.026	27397
821.167	27374
821.307	27545
821.447	27359
821.588	27138
821.728	27169
821.868	26910
822.008	26826
822.149	26743
822.289	26902
822.429	26579
822.569	26461
822.709	26415
822.849	26252
822.99	26126
823.13	26100
823.27	26183
823.41	26081
823.55	26115
823.69	26172
823.83	26050
823.97	26050
824.11	25887
824.25	25936
824.389	25974
824.529	25826
824.669	25894
824.809	26043
824.949	26027
825.089	25864
825.228	25978
825.368	25594
825.508	25666
825.648	25875
825.787	25746
825.927	25677
826.067	25639
826.206	25693
826.346	25727
826.485	25712
826.625	25746
826.765	25894
826.904	25685
827.044	25441
827.183	25464
827.323	25392
827.462	25449
827.601	25358
827.741	25422
827.88	25381
828.02	25293
828.159	25396
828.298	25449
828.437	25518
828.577	25358
828.716	25457
828.855	25358
828.994	25069
829.134	25103
829.273	25160
829.412	25038
829.551	25168
829.69	24970
829.829	25168
829.968	25217
830.107	25187
830.246	25152
830.385	25084
830.524	24859
830.663	25031
830.802	24768
830.941	24696
831.08	24681
831.219	24623
831.357	24730
831.496	24875
831.635	24745
831.774	24555
831.913	24361
832.051	24403
832.19	24429
832.329	24498
832.467	24369
832.606	24235
832.744	24228
832.883	24266
833.022	24281
833.16	24205
833.299	24376
833.437	24357
833.576	24323
833.714	24315
833.852	24380
833.991	24403
834.129	24319
834.267	24281
834.406	24262
834.544	24437
834.682	24418
834.821	24266
834.959	24429
835.097	24216
835.235	24247
835.373	24247
835.511	24350
835.65	24232
835.788	24235
835.926	23988
836.064	24007
836.202	23885
836.34	24174
836.478	24308
836.615	24144
836.753	24201
836.891	24136
837.029	24178
837.167	24106
837.305	24072
837.443	24060
837.58	23984
837.718	23980
837.856	24053
837.993	23999
838.131	23832
838.269	23897
838.406	23885
838.544	23901
838.681	23592
838.819	23687
838.956	23471
839.094	23444
839.231	23577
839.369	23657
839.506	23737
839.643	23779
839.781	23444
839.918	23395
840.055	23425
840.193	23421
840.33	23341
840.467	23395
840.604	23372
840.742	23611
840.879	23216
841.016	23356
841.153	23223
841.29	23356
841.427	23223
841.564	23261
841.701	23410
841.838	23193
841.975	23178
842.112	23239
842.249	23102
842.385	23136
842.522	23326
842.659	23185
842.796	23079
842.933	23079
843.069	23048
843.206	22961
843.343	23064
843.479	23048
843.616	23117
843.752	22809
843.889	22915
844.025	22930
844.162	22824
844.298	22847
844.435	22771
844.571	22634
844.708	22831
844.844	23014
844.98	23033
845.117	22820
845.253	22843
845.389	22550
845.525	22763
845.661	22611
845.798	22634
845.934	22710
846.07	22500
846.206	22516
846.342	22485
846.478	22447
846.614	22265
846.75	22109
846.886	22257
847.022	22348
847.158	22238
847.294	22276
847.429	22367
847.565	22219
847.701	22459
847.837	21994
847.972	22017
848.108	22086
848.244	22105
848.379	21987
848.515	21827
848.65	21633
848.786	21766
848.921	21983
849.057	21934
849.192	21812
849.328	21838
849.463	21785
849.598	21709
849.734	21755
849.869	21641
850.004	21572
850.14	21641
850.275	21488
850.41	21420
850.545	21507
850.68	21591
850.815	21549
850.95	21534
851.085	21690
851.22	21728
851.355	21523
851.49	21614
851.625	21603
851.76	21530
851.895	21420
852.03	21530
852.165	21591
852.299	21473
852.434	21648
852.569	21561
852.703	21542
852.838	21606
852.973	21652
853.107	21709
853.242	21408
853.376	21340
853.511	21287
853.645	21363
853.78	21568
853.914	21393
854.048	21268
854.183	21481
854.317	21287
854.451	21496
854.585	21325
854.72	21370
854.854	21447
854.988	21336
855.122	21351
855.256	21359
855.39	21340
855.524	21420
855.658	21355
855.792	21214
855.926	21416
856.06	21466
856.194	21481
856.327	21336
856.461	21233
856.595	21344
856.729	21416
856.862	21462
856.996	21412
857.13	21511
857.263	21507
857.397	21359
857.53	21302
857.664	21382
857.797	21447
857.931	21458
858.064	21401
858.197	21469
858.331	21389
858.464	21367
858.597	21165
858.731	21393
858.864	21310
858.997	21252
859.13	21397
859.263	21351
859.396	21545
859.529	21313
859.662	21226
859.795	21233
859.928	21447
860.061	21397
860.194	21614
860.327	21348
860.46	21351
860.592	21370
860.725	21447
860.858	21374
860.99	21374
861.123	21268
861.256	21218
861.388	21382
861.521	21937
861.653	21313
861.786	21203
861.918	21127
862.05	21207
862.183	21283
862.315	21226
862.447	21420
862.58	21245
862.712	20994
862.844	21009
862.976	21199
863.108	21066
863.24	21439
863.372	21020
863.504	21043
863.636	21062
863.768	21112
863.9	21150
864.032	20880
864.164	21009
864.296	21036
864.428	21165
864.559	21123
864.691	21154
864.823	20982
864.954	21001
865.086	21093
865.217	21028
865.349	20883
865.48	21036
865.612	20849
865.743	21024
865.875	20960
866.006	20826
866.137	20956
866.269	20910
866.4	21009
866.531	20857
866.662	20918
866.793	20788
866.924	20899
867.055	20906
867.186	20887
867.317	20781
867.448	20796
867.579	20880
867.71	20689
867.841	20861
867.972	20872
868.103	20777
868.233	20868
868.364	20823
868.495	20914
868.625	21081
868.756	21093
868.886	20902
869.017	21096
869.147	21313
869.278	21180
869.408	21058
869.539	21058
869.669	21207
869.799	21142
869.929	21294
870.06	21081
870.19	21370
870.32	21252
870.45	21435
870.58	21526
870.71	21564
870.84	21587
870.97	21561
871.1	21496
871.23	21770
871.36	21671
871.489	21523
871.619	21557
871.749	21614
871.879	21622
872.008	21759
872.138	21553
872.267	21644
872.397	21511
872.526	21431
872.656	21466
872.785	21568
872.915	21747
873.044	21880
873.173	21705
873.303	21747
873.432	21610
873.561	21819
873.69	21739
873.819	21671
873.948	21926
874.077	21812
874.206	21644
874.335	21709
874.464	21800
874.593	21937
874.722	21926
874.851	21998
874.979	21911
875.108	22082
875.237	21975
875.365	21759
875.494	21911
875.623	22021
875.751	22010
875.88	22036
876.008	22059
876.136	22067
876.265	22234
876.393	22512
876.521	22379
876.65	22428
876.778	22382
876.906	22356
877.034	22166
877.162	22265
877.29	22219
877.418	22173
877.546	22280
877.674	22291
877.802	22257
877.93	22303
878.058	22261
878.185	22147
878.313	22265
878.441	22169
878.568	22067
878.696	22169
878.824	22143
878.951	22322
879.079	22485
879.206	22588
879.333	22462
879.461	22348
879.588	22398
879.715	22424
879.842	22542
879.97	22398
880.097	22226
880.224	22158
880.351	22139
880.478	21998
880.605	22010
880.732	22032
880.859	22348
880.986	22173
881.112	22093
881.239	21941
881.366	21911
881.493	21755
881.619	21724
881.746	21873
881.872	21728
881.999	21606
882.125	21648
882.252	21728
882.378	21587
882.505	21835
882.631	21542
882.757	21450
882.883	21382
883.01	21431
883.136	21374
883.262	21222
883.388	21329
883.514	21294
883.64	21378
883.766	21344
883.892	21203
884.018	21184
884.143	21321
884.269	21355
884.395	21138
884.52	21005
884.646	21028
884.772	20971
884.897	20948
885.023	21039
885.148	21123
885.274	21096
885.399	21233
885.524	21093
885.65	20941
885.775	21074
885.9	20982
886.025	21192
886.15	21154
886.275	21077
886.4	20887
886.525	21062
886.65	21070
886.775	20842
886.9	21222
887.025	21173
887.149	21062
887.274	20899
887.399	20762
887.523	20842
887.648	20739
887.773	20701
887.897	20952
888.021	20701
888.146	20788
888.27	20804
888.395	20933
888.519	20807
888.643	20921
888.767	20819
888.891	20712
889.015	20541
889.139	20484
889.263	20625
889.387	20743
889.511	20788
889.635	20750
889.759	20571
889.883	20511
890.006	20606
890.13	20655
890.254	20522
890.377	20530
890.501	20328
890.624	20256
890.748	20355
890.871	20237
890.995	20043
891.118	20130
891.241	20138
891.364	20237
891.488	20332
891.611	20153
891.734	20096
891.857	20248
891.98	20092
892.103	20237
892.226	20168
892.349	20088
892.471	19913
892.594	20084
892.717	20130
892.839	20005
892.962	20100
893.085	19982
893.207	20096
893.33	19974
893.452	19963
893.575	20206
893.697	20115
893.819	20252
893.941	20301
894.064	20149
894.186	20111
894.308	20035
894.43	20180
894.552	20233
894.674	20145
894.796	20005
894.918	20039
895.04	20088
895.161	20130
895.283	20065
895.405	20039
895.526	20088
895.648	20084
895.769	19982
895.891	20145
896.012	20149
896.134	20039
896.255	20183
896.376	20031
896.498	20027
896.619	20142
896.74	20084
896.861	20218
896.982	20358
897.103	20530
897.224	20454
897.345	20370
897.466	20240
897.587	20374
897.708	20454
897.828	20305
897.949	20377
898.07	20096
898.19	20172
898.311	20332
898.431	20229
898.552	20336
898.672	20286
898.792	20351
898.913	20328
899.033	20100
899.153	20164
899.273	19974
899.393	20020
899.513	20180
899.633	20058
899.753	20142
899.873	19997
899.993	20046
900.113	19963
900.232	20054
900.352	19906
900.472	19776
900.591	19731
900.711	19887
900.83	19864
900.95	19947
901.069	19852
901.189	19632
901.308	19457
901.427	19434
901.546	19441
901.665	19350
901.784	19392
901.904	19392
902.023	19148
902.141	19027
902.26	18973
902.379	19034
902.498	18913
902.617	18916
902.735	18890
902.854	18977
902.973	18791
903.091	18563
903.21	18486
903.328	18646
903.446	18448
903.565	18471
903.683	18361
903.801	18311
903.919	18365
904.038	18254
904.156	18121
904.274	18247
904.392	18190
904.51	18114
904.627	18136
904.745	18171
904.863	18266
904.981	18079
905.098	17805
905.216	17847
905.334	17859
905.451	17878
905.569	17855
905.686	17726
905.803	17828
905.921	17463
906.038	17718
906.155	17539
906.272	17554
906.389	17596
906.506	17364
906.623	17372
906.74	17303
906.857	17216
906.974	17235
907.091	17368
907.208	17410
907.324	17318
907.441	17383
907.557	16999
907.674	16946
907.79	16938
907.907	16968
908.023	17018
908.139	17014
908.256	17056
908.372	16873
908.488	16908
908.604	16805
908.72	16649
908.836	16736
908.952	16691
909.068	16915
909.184	16904
909.3	16725
909.415	16759
909.531	16786
909.647	16436
909.762	16409
909.878	16428
909.993	16447
910.108	16512
910.224	16352
910.339	16443
910.454	16299
910.57	16249
910.685	16067
910.8	16500
910.915	16455
911.03	16287
911.145	16124
911.259	15987
911.374	16032
911.489	15998
911.604	15922
911.718	15823
911.833	15804
911.947	15686
912.062	15572
912.176	15781
912.291	15819
912.405	15850
912.519	16002
912.633	16002
912.748	15808
912.862	15698
912.976	15648
913.09	15492
913.204	15557
913.318	15538
913.431	15701
913.545	15572
913.659	15641
913.772	15534
913.886	15454
914	15473
914.113	15488
914.226	15606
914.34	15344
914.453	15222
914.566	15420
914.68	15370
914.793	15268
914.906	15089
915.019	15001
915.132	15009
915.245	15070
915.358	15028
915.47	15009
915.583	15062
915.696	14963
915.809	15173
915.921	15112
916.034	14990
916.146	14937
916.259	14883
916.371	14944
916.483	14857
916.595	14773
916.708	14838
916.82	14823
916.932	14845
917.044	14762
917.156	14765
917.268	14731
917.38	14693
917.491	14693
917.603	14571
917.715	14758
917.826	14705
917.938	14583
918.049	14461
918.161	14629
918.272	14708
918.384	14746
918.495	14594
918.606	14419
918.717	14358
918.828	14358
918.939	14442
919.05	14362
919.161	14381
919.272	14183
919.383	14252
919.494	14419
919.604	14560
919.715	14438
919.826	14362
919.936	14385
920.047	14488
920.157	14400
920.267	14507
920.378	14396
920.488	14233
920.598	14530
920.708	14644
920.818	14541
920.928	14583
921.038	14686
921.148	14648
921.258	14282
921.368	14244
921.477	14134
921.587	13951
921.697	13963
921.806	14134
921.916	14062
922.025	13715
922.134	13807
922.244	13605
922.353	13727
922.462	13620
922.571	13613
922.68	13552
922.789	13472
922.898	13358
923.007	13282
923.116	13480
923.224	13373
923.333	13392
923.442	13293
923.55	13160
923.659	13285
923.767	13270
923.876	13228
923.984	13247
924.092	13057
924.201	13206
924.309	13168
924.417	13126
924.525	13057
924.633	13053
924.741	13887
924.849	12867
924.956	12977
925.064	12856
925.172	12863
925.279	12749
925.387	12837
925.494	12848
925.602	12954
925.709	12802
925.816	12719
925.924	12779
926.031	12821
926.138	12757
926.245	12833
926.352	12703
926.459	12760
926.566	12909
926.673	12627
926.779	12582
926.886	12662
926.993	12414
927.099	12407
927.206	12372
927.312	12338
927.419	12441
927.525	12395
927.631	12456
927.737	12224
927.843	12235
927.95	12106
928.056	12182
928.162	12159
928.267	12247
928.373	12916
928.479	12311
928.585	12049
928.69	12167
928.796	12224
928.901	12053
929.007	11935
929.112	12041
929.218	12076
929.323	11973
929.428	12011
929.533	12038
929.638	11885
929.743	11870
929.848	11942
929.953	11855
930.058	11767
930.163	11611
930.267	11634
930.372	11699
930.477	11653
930.581	11817
930.685	11691
930.79	11535
930.894	11558
930.998	11524
931.103	11585
931.207	11284
931.311	11204
931.415	11109
931.519	10835
931.623	10877
