Data from test_V78500241_2161.txt Node
Date: Fri Mar 25 15:56:46 CST 2022
User: usil
Spectrometer: V785-0024
Trigger mode: 0
Integration Time (sec): 4.000000E-1
Scans to average: 1
Nonlinearity correction enabled: false
Boxcar width: 0
Storing dark spectrum: false
XAxis mode: Wavelengths
Number of Pixels in Spectrum: 1024
>>>>>Begin Spectral Data<<<<<
801.071	28942
801.214	28927
801.356	28729
801.499	28645
801.641	28542
801.783	28447
801.926	28596
802.068	28538
802.211	28421
802.353	28398
802.496	28150
802.638	28181
802.78	28188
802.923	28181
803.065	28059
803.208	28211
803.35	28226
803.492	28325
803.635	28451
803.777	28424
803.919	28455
804.061	28786
804.204	28474
804.346	28474
804.488	28333
804.63	28459
804.773	28405
804.915	28459
805.057	28580
805.199	28432
805.341	28569
805.483	28611
805.626	28675
805.768	28569
805.91	28630
806.052	28599
806.194	28622
806.336	28630
806.478	28611
806.62	28603
806.762	28759
806.904	28862
807.046	29216
807.188	29006
807.33	29056
807.472	29212
807.614	28881
807.756	28908
807.898	28934
808.04	28744
808.182	28816
808.324	28942
808.465	28934
808.607	29147
808.749	29235
808.891	29436
809.033	29452
809.174	29398
809.316	29151
809.458	29315
809.6	29254
809.741	29383
809.883	29349
810.025	29672
810.166	29703
810.308	29463
810.45	29463
810.591	29471
810.733	29284
810.875	29258
811.016	29280
811.158	29220
811.299	29486
811.441	29398
811.582	29619
811.724	29292
811.865	29368
812.007	29223
812.148	29425
812.29	29311
812.431	29600
812.573	29722
812.714	29703
812.855	29855
812.997	29920
813.138	30140
813.279	30030
813.421	29950
813.562	29748
813.703	29535
813.845	29566
813.986	29345
814.127	29204
814.268	28927
814.41	29056
814.551	29022
814.692	29037
814.833	29044
814.974	28984
815.115	29014
815.256	29041
815.397	28892
815.539	28881
815.68	28824
815.821	28645
815.962	28831
816.103	28949
816.244	28679
816.385	28596
816.526	28656
816.666	28219
816.807	28173
816.948	28489
817.089	28417
817.23	28291
817.371	28394
817.512	28287
817.653	28382
817.793	28185
817.934	28379
818.075	28508
818.216	28417
818.356	28329
818.497	28185
818.638	28029
818.778	28196
818.919	28048
819.06	28082
819.2	28303
819.341	28310
819.481	28333
819.622	28611
819.762	28679
819.903	28611
820.043	28672
820.184	28527
820.324	28325
820.465	28451
820.605	28436
820.746	28577
820.886	28219
821.026	28550
821.167	28314
821.307	28546
821.447	28329
821.588	28310
821.728	28147
821.868	28048
822.008	27869
822.149	27934
822.289	27800
822.429	27488
822.569	27485
822.709	27374
822.849	27218
822.99	27416
823.13	27306
823.27	27294
823.41	27150
823.55	27077
823.69	27256
823.83	27062
823.97	27100
824.11	26891
824.25	26979
824.389	27020
824.529	27017
824.669	27051
824.809	27104
824.949	27169
825.089	27222
825.228	27131
825.368	26914
825.508	26960
825.648	26769
825.787	26845
825.927	27047
826.067	26880
826.206	26929
826.346	26910
826.485	27017
826.625	26811
826.765	26982
826.904	26883
827.044	26777
827.183	26587
827.323	26640
827.462	26773
827.601	26621
827.741	26655
827.88	26663
828.02	26518
828.159	26556
828.298	26678
828.437	26686
828.577	26499
828.716	26716
828.855	26556
828.994	26298
829.134	26282
829.273	26355
829.412	26187
829.551	26218
829.69	26347
829.829	26339
829.968	26427
830.107	26351
830.246	26267
830.385	26130
830.524	26233
830.663	26153
830.802	26054
830.941	25871
831.08	25826
831.219	26001
831.357	25936
831.496	26229
831.635	25959
831.774	25776
831.913	25818
832.051	25723
832.19	25693
832.329	25677
832.467	25685
832.606	25544
832.744	25548
832.883	25499
833.022	25643
833.16	25632
833.299	25567
833.437	25521
833.576	25681
833.714	25624
833.852	25632
833.991	25742
834.129	25715
834.267	25765
834.406	25685
834.544	25811
834.682	25620
834.821	25601
834.959	25784
835.097	25624
835.235	25624
835.373	25620
835.511	25742
835.65	25502
835.788	25601
835.926	25419
836.064	25346
836.202	25312
836.34	25479
836.478	25658
836.615	25499
836.753	25502
836.891	25514
837.029	25449
837.167	25502
837.305	25369
837.443	25377
837.58	25285
837.718	25388
837.856	25316
837.993	25251
838.131	25377
838.269	25164
838.406	25244
838.544	24996
838.681	25015
838.819	24897
838.956	24821
839.094	24829
839.231	24817
839.369	24863
839.506	25148
839.643	25050
839.781	24688
839.918	24601
840.055	24719
840.193	24722
840.33	24757
840.467	24654
840.604	24696
840.742	24981
840.879	24593
841.016	24597
841.153	24490
841.29	24585
841.427	24734
841.564	24741
841.701	24719
841.838	24547
841.975	24464
842.112	24566
842.249	24395
842.385	24391
842.522	24627
842.659	24555
842.796	24483
842.933	24502
843.069	24350
843.206	24270
843.343	24620
843.479	24338
843.616	24399
843.752	24053
843.889	24277
844.025	24448
844.162	24289
844.298	24251
844.435	24232
844.571	24060
844.708	24262
844.844	24296
844.98	24258
845.117	24323
845.253	24159
845.389	24194
845.525	23961
845.661	24045
845.798	23908
845.934	23950
846.07	23790
846.206	23882
846.342	23950
846.478	23805
846.614	23710
846.75	23630
846.886	23619
847.022	23615
847.158	23577
847.294	23649
847.429	23566
847.565	23562
847.701	23809
847.837	23414
847.972	23410
848.108	23531
848.244	23311
848.379	23330
848.515	23197
848.65	23166
848.786	23208
848.921	23284
849.057	23379
849.192	23345
849.328	23318
849.463	23269
849.598	23117
849.734	23143
849.869	23067
850.004	22927
850.14	22984
850.275	22946
850.41	22843
850.545	23067
850.68	22915
850.815	23010
850.95	23064
851.085	23296
851.22	23048
851.355	22957
851.49	23048
851.625	22904
851.76	22957
851.895	22774
852.03	22809
852.165	22980
852.299	23098
852.434	23048
852.569	23018
852.703	22873
852.838	22999
852.973	23162
853.107	23102
853.242	22953
853.376	22721
853.511	22622
853.645	22763
853.78	22968
853.914	22911
854.048	22774
854.183	22713
854.317	22748
854.451	22831
854.585	22816
854.72	22744
854.854	22854
854.988	22626
855.122	22908
855.256	22580
855.39	22778
855.524	22930
855.658	22953
855.792	22892
855.926	22805
856.06	22923
856.194	22801
856.327	22729
856.461	22801
856.595	22820
856.729	22831
856.862	22771
856.996	22740
857.13	22835
857.263	22934
857.397	22934
857.53	22729
857.664	22877
857.797	22908
857.931	22900
858.064	22809
858.197	22946
858.331	22824
858.464	22778
858.597	22733
858.731	22850
858.864	22698
858.997	22786
859.13	22858
859.263	22786
859.396	22930
859.529	22797
859.662	22824
859.795	22740
859.928	22850
860.061	22942
860.194	22919
860.327	22854
860.46	22725
860.592	22850
860.725	22934
860.858	22968
860.99	22790
861.123	22538
861.256	22771
861.388	22782
861.521	23516
861.653	22588
861.786	22531
861.918	22550
862.05	22717
862.183	22630
862.315	22744
862.447	22801
862.58	22767
862.712	22443
862.844	22493
862.976	22569
863.108	22531
863.24	23010
863.372	22405
863.504	22485
863.636	22493
863.768	22580
863.9	22577
864.032	22394
864.164	22493
864.296	22512
864.428	22611
864.559	22599
864.691	22588
864.823	22580
864.954	22409
865.086	22516
865.217	22512
865.349	22398
865.48	22459
865.612	22398
865.743	22592
865.875	22405
866.006	22314
866.137	22405
866.269	22344
866.4	22344
866.531	22265
866.662	22204
866.793	22303
866.924	22303
867.055	22238
867.186	22344
867.317	22261
867.448	22215
867.579	22207
867.71	22166
867.841	22128
867.972	22432
868.103	22177
868.233	22284
868.364	22196
868.495	22428
868.625	22478
868.756	22599
868.886	22474
869.017	22550
869.147	22713
869.278	22580
869.408	22596
869.539	22451
869.669	22584
869.799	22531
869.929	22622
870.06	22733
870.19	22835
870.32	22801
870.45	22869
870.58	22881
870.71	22965
870.84	23025
870.97	22885
871.1	22812
871.23	23124
871.36	23102
871.489	23128
871.619	23018
871.749	23181
871.879	23128
872.008	23258
872.138	23147
872.267	23246
872.397	22976
872.526	22900
872.656	23048
872.785	23014
872.915	23220
873.044	23105
873.173	23102
873.303	23193
873.432	23193
873.561	23235
873.69	23121
873.819	23064
873.948	23242
874.077	23185
874.206	23121
874.335	23273
874.464	23402
874.593	23353
874.722	23402
874.851	23334
874.979	23368
875.108	23349
875.237	23376
875.365	23254
875.494	23372
875.623	23414
875.751	23372
875.88	23391
876.008	23516
876.136	23581
876.265	23741
876.393	23813
876.521	23714
876.65	23885
876.778	23741
876.906	23684
877.034	23703
877.162	23805
877.29	23707
877.418	23718
877.546	23729
877.674	23771
877.802	23726
877.93	23794
878.058	23779
878.185	23608
878.313	23547
878.441	23703
878.568	23524
878.696	23596
878.824	23794
878.951	23832
879.079	23931
879.206	24011
879.333	23939
879.461	23623
879.588	23775
879.715	23863
879.842	23897
879.97	23737
880.097	23634
880.224	23570
880.351	23463
880.478	23520
880.605	23528
880.732	23577
880.859	23813
880.986	23444
881.112	23585
881.239	23330
881.366	23231
881.493	23223
881.619	23155
881.746	23246
881.872	23155
881.999	22999
882.125	22987
882.252	23044
882.378	23155
882.505	23155
882.631	22927
882.757	22675
882.883	22820
883.01	22702
883.136	22698
883.262	22653
883.388	22725
883.514	22744
883.64	22691
883.766	22523
883.892	22405
884.018	22599
884.143	22512
884.269	22691
884.395	22542
884.52	22272
884.646	22402
884.772	22303
884.897	22318
885.023	22367
885.148	22428
885.274	22565
885.399	22466
885.524	22276
885.65	22398
885.775	22516
885.9	22428
886.025	22402
886.15	22379
886.275	22382
886.4	22185
886.525	22291
886.65	22268
886.775	22306
886.9	22402
887.025	22550
887.149	22280
887.274	22173
887.399	22219
887.523	22105
887.648	22051
887.773	22021
887.897	22185
888.021	22158
888.146	22074
888.27	22169
888.395	22139
888.519	22112
888.643	22093
888.767	22143
888.891	22051
889.015	21899
889.139	21964
889.263	21926
889.387	22017
889.511	22150
889.635	22013
889.759	21892
889.883	21831
890.006	21987
890.13	21895
890.254	21785
890.377	21922
890.501	21660
890.624	21591
890.748	21583
890.871	21439
890.995	21439
891.118	21439
891.241	21424
891.364	21408
891.488	21599
891.611	21583
891.734	21519
891.857	21431
891.98	21435
892.103	21469
892.226	21393
892.349	21370
892.471	21237
892.594	21428
892.717	21359
892.839	21420
892.962	21351
893.085	21500
893.207	21321
893.33	21138
893.452	21279
893.575	21313
893.697	21321
893.819	21355
893.941	21549
894.064	21477
894.186	21317
894.308	21173
894.43	21294
894.552	21485
894.674	21439
894.796	21207
894.918	21260
895.04	21306
895.161	21264
895.283	21321
895.405	21188
895.526	21294
895.648	21367
895.769	21416
895.891	21355
896.012	21443
896.134	21405
896.255	21294
896.376	21260
896.498	21256
896.619	21321
896.74	21268
896.861	21386
896.982	21698
897.103	21762
897.224	21583
897.345	21583
897.466	21359
897.587	21576
897.708	21622
897.828	21500
897.949	21420
898.07	21386
898.19	21507
898.311	21523
898.431	21458
898.552	21519
898.672	21538
898.792	21663
898.913	21515
899.033	21393
899.153	21291
899.273	21203
899.393	21249
899.513	21233
899.633	21325
899.753	21214
899.873	21260
899.993	21226
900.113	21264
900.232	21161
900.352	21047
900.472	21127
900.591	20925
900.711	20986
900.83	20990
900.95	21036
901.069	21013
901.189	20899
901.308	20686
901.427	20613
901.546	20541
901.665	20640
901.784	20568
901.904	20457
902.023	20286
902.141	20191
902.26	20100
902.379	20103
902.498	20119
902.617	19989
902.735	19928
902.854	19993
902.973	19989
903.091	19788
903.21	19845
903.328	19685
903.446	19655
903.565	19594
903.683	19613
903.801	19384
903.919	19502
904.038	19460
904.156	19415
904.274	19312
904.392	19259
904.51	19301
904.627	19209
904.745	19377
904.863	19324
904.981	19061
905.098	18840
905.216	18951
905.334	18981
905.451	18958
905.569	18928
905.686	19088
905.803	18951
905.921	18741
906.038	18871
906.155	18764
906.272	18642
906.389	18719
906.506	18357
906.623	18597
906.74	18521
906.857	18384
906.974	18479
907.091	18506
907.208	18582
907.324	18460
907.441	18350
907.557	18182
907.674	18369
907.79	18174
907.907	18114
908.023	18102
908.139	18201
908.256	18152
908.372	18148
908.488	18045
908.604	17973
908.72	17984
908.836	17961
908.952	17935
909.068	17973
909.184	17999
909.3	17836
909.415	17939
909.531	17866
909.647	17722
909.762	17623
909.878	17657
909.993	17611
910.108	17551
910.224	17573
910.339	17611
910.454	17505
910.57	17372
910.685	17315
910.8	17619
910.915	17528
911.03	17414
911.145	17296
911.259	17189
911.374	17140
911.489	17204
911.604	17010
911.718	16946
911.833	16923
911.947	16771
912.062	16771
912.176	16881
912.291	16881
912.405	16896
912.519	17003
912.633	17098
912.748	16976
912.862	16816
912.976	16759
913.09	16538
913.204	16729
913.318	16744
913.431	16858
913.545	16786
913.659	16797
913.772	16733
913.886	16580
914	16497
914.113	16577
914.226	16565
914.34	16561
914.453	16352
914.566	16573
914.68	16352
914.793	16398
914.906	16200
915.019	16124
915.132	16078
915.245	16169
915.358	16097
915.47	16086
915.583	16139
915.696	16093
915.809	16246
915.921	16154
916.034	16067
916.146	15968
916.259	15953
916.371	15987
916.483	16074
916.595	15857
916.708	15880
916.82	15941
916.932	15861
917.044	15720
917.156	15755
917.268	15755
917.38	15762
917.491	15774
917.603	15690
917.715	15789
917.826	15842
917.938	15610
918.049	15545
918.161	15667
918.272	15789
918.384	15682
918.495	15709
918.606	15477
918.717	15397
918.828	15504
918.939	15530
919.05	15363
919.161	15485
919.272	15222
919.383	15313
919.494	15374
919.604	15648
919.715	15344
919.826	15340
919.936	15428
920.047	15477
920.157	15408
920.267	15637
920.378	15348
920.488	15492
920.598	15507
920.708	15717
920.818	15534
920.928	15481
921.038	15606
921.148	15599
921.258	15256
921.368	15157
921.477	14948
921.587	15112
921.697	14982
921.806	15237
921.916	14868
922.025	14731
922.134	14792
922.244	14674
922.353	14693
922.462	14636
922.571	14518
922.68	14431
922.789	14244
922.898	14313
923.007	14286
923.116	14259
923.224	14351
923.333	14282
923.442	14206
923.55	14100
923.659	14164
923.767	14214
923.876	14134
923.984	14248
924.092	14130
924.201	14218
924.309	14024
924.417	14092
924.525	13944
924.633	14024
924.741	14663
924.849	13826
924.956	13974
925.064	13887
925.172	13746
925.279	13689
925.387	13746
925.494	13791
925.602	13868
925.709	13811
925.816	13613
925.924	13590
926.031	13677
926.138	13624
926.245	13734
926.352	13590
926.459	13632
926.566	13731
926.673	13597
926.779	13419
926.886	13464
926.993	13293
927.099	13365
927.206	13301
927.312	13240
927.419	13228
927.525	13202
927.631	13266
927.737	13179
927.843	13168
927.95	13072
928.056	13027
928.162	13145
928.267	13198
928.373	13674
928.479	13069
928.585	12894
928.69	13103
928.796	13034
928.901	12928
929.007	12722
929.112	12947
929.218	12954
929.323	12833
929.428	12707
929.533	12821
929.638	12734
929.743	12772
929.848	12787
929.953	12776
930.058	12631
930.163	12486
930.267	12490
930.372	12559
930.477	12418
930.581	12681
930.685	12433
930.79	12353
930.894	12342
930.998	12388
931.103	12426
931.207	12129
931.311	12022
931.415	11840
931.519	11760
931.623	11676
