Data from test_V78500241_2315.txt Node
Date: Fri Mar 25 15:57:50 CST 2022
User: usil
Spectrometer: V785-0024
Trigger mode: 0
Integration Time (sec): 4.000000E-1
Scans to average: 1
Nonlinearity correction enabled: false
Boxcar width: 0
Storing dark spectrum: false
XAxis mode: Wavelengths
Number of Pixels in Spectrum: 1024
>>>>>Begin Spectral Data<<<<<
801.071	29010
801.214	28812
801.356	28634
801.499	28744
801.641	28386
801.783	28382
801.926	28516
802.068	28398
802.211	28344
802.353	28303
802.496	28253
802.638	28120
802.78	28158
802.923	28120
803.065	28086
803.208	28044
803.35	28169
803.492	28363
803.635	28325
803.777	28253
803.919	28348
804.061	28725
804.204	28333
804.346	28390
804.488	28367
804.63	28344
804.773	28352
804.915	28360
805.057	28554
805.199	28394
805.341	28519
805.483	28512
805.626	28592
805.768	28645
805.91	28390
806.052	28554
806.194	28462
806.336	28588
806.478	28436
806.62	28447
806.762	28599
806.904	28805
807.046	28915
807.188	28999
807.33	28927
807.472	28995
807.614	28900
807.756	28942
807.898	28812
808.04	28801
808.182	28820
808.324	28930
808.465	29018
808.607	29151
808.749	29292
808.891	29345
809.033	29459
809.174	29444
809.316	29060
809.458	29254
809.6	29185
809.741	29299
809.883	29341
810.025	29638
810.166	29573
810.308	29566
810.45	29512
810.591	29395
810.733	29231
810.875	29341
811.016	29193
811.158	29109
811.299	29299
811.441	29356
811.582	29330
811.724	29391
811.865	29265
812.007	29326
812.148	29231
812.29	29372
812.431	29539
812.573	29589
812.714	29608
812.855	29680
812.997	29961
813.138	29999
813.279	29665
813.421	29771
813.562	29691
813.703	29619
813.845	29562
813.986	29273
814.127	29090
814.268	28968
814.41	28877
814.551	28968
814.692	29071
814.833	28934
814.974	29022
815.115	28957
815.256	28793
815.397	28888
815.539	28752
815.68	28847
815.821	28736
815.962	28892
816.103	28733
816.244	28546
816.385	28596
816.526	28516
816.666	28386
816.807	28394
816.948	28413
817.089	28481
817.23	28409
817.371	28280
817.512	28314
817.653	28090
817.793	28226
817.934	28196
818.075	28215
818.216	28253
818.356	28101
818.497	28257
818.638	27884
818.778	28116
818.919	27979
819.06	28067
819.2	28169
819.341	28299
819.481	28314
819.622	28451
819.762	28672
819.903	28550
820.043	28481
820.184	28466
820.324	28424
820.465	28432
820.605	28257
820.746	28535
820.886	28150
821.026	28375
821.167	28382
821.307	28447
821.447	28398
821.588	28177
821.728	28242
821.868	28013
822.008	27888
822.149	27751
822.289	27755
822.429	27561
822.569	27462
822.709	27488
822.849	27313
822.99	27287
823.13	27093
823.27	27218
823.41	27157
823.55	26948
823.69	27138
823.83	27100
823.97	27096
824.11	26887
824.25	26834
824.389	26975
824.529	27036
824.669	26944
824.809	26925
824.949	27001
825.089	26986
825.228	26975
825.368	26845
825.508	26773
825.648	26979
825.787	26819
825.927	26891
826.067	26769
826.206	26765
826.346	26910
826.485	26891
826.625	26895
826.765	26963
826.904	26819
827.044	26537
827.183	26526
827.323	26556
827.462	26484
827.601	26613
827.741	26579
827.88	26526
828.02	26499
828.159	26480
828.298	26716
828.437	26632
828.577	26320
828.716	26522
828.855	26412
828.994	26221
829.134	26122
829.273	26225
829.412	26237
829.551	26183
829.69	26221
829.829	26252
829.968	26294
830.107	26229
830.246	26142
830.385	26077
830.524	26039
830.663	25887
830.802	25860
830.941	25909
831.08	25791
831.219	25993
831.357	25978
831.496	26107
831.635	25784
831.774	25719
831.913	25791
832.051	25624
832.19	25495
832.329	25540
832.467	25559
832.606	25438
832.744	25419
832.883	25525
833.022	25544
833.16	25453
833.299	25567
833.437	25567
833.576	25506
833.714	25590
833.852	25556
833.991	25578
834.129	25548
834.267	25567
834.406	25537
834.544	25639
834.682	25556
834.821	25510
834.959	25731
835.097	25537
835.235	25670
835.373	25457
835.511	25628
835.65	25479
835.788	25282
835.926	25316
836.064	25228
836.202	25244
836.34	25373
836.478	25392
836.615	25388
836.753	25240
836.891	25381
837.029	25449
837.167	25354
837.305	25221
837.443	25240
837.58	25118
837.718	25274
837.856	25251
837.993	25076
838.131	25126
838.269	25050
838.406	25053
838.544	24935
838.681	24920
838.819	24886
838.956	24612
839.094	24711
839.231	24509
839.369	24768
839.506	25080
839.643	24890
839.781	24669
839.918	24612
840.055	24677
840.193	24589
840.33	24551
840.467	24661
840.604	24681
840.742	24894
840.879	24475
841.016	24460
841.153	24410
841.29	24741
841.427	24631
841.564	24464
841.701	24525
841.838	24410
841.975	24365
842.112	24585
842.249	24319
842.385	24334
842.522	24528
842.659	24319
842.796	24247
842.933	24277
843.069	24114
843.206	24228
843.343	24350
843.479	24338
843.616	24346
843.752	24194
843.889	24174
844.025	24197
844.162	24053
844.298	24190
844.435	24034
844.571	24041
844.708	24201
844.844	24117
844.98	24194
845.117	24095
845.253	24045
845.389	23912
845.525	23942
845.661	23893
845.798	23878
845.934	23927
846.07	23710
846.206	23874
846.342	23984
846.478	23726
846.614	23501
846.75	23577
846.886	23512
847.022	23661
847.158	23509
847.294	23421
847.429	23604
847.565	23566
847.701	23752
847.837	23193
847.972	23174
848.108	23395
848.244	23337
848.379	23193
848.515	23109
848.65	23048
848.786	23143
848.921	23083
849.057	23223
849.192	23200
849.328	23117
849.463	23208
849.598	23083
849.734	22911
849.869	23018
850.004	22911
850.14	22873
850.275	22873
850.41	22793
850.545	22885
850.68	22733
850.815	22961
850.95	22786
851.085	23071
851.22	23098
851.355	22839
851.49	22881
851.625	22873
851.76	22866
851.895	22839
852.03	22786
852.165	22900
852.299	22889
852.434	22957
852.569	22866
852.703	22828
852.838	22957
852.973	23010
853.107	22942
853.242	22782
853.376	22763
853.511	22573
853.645	22733
853.78	22862
853.914	22774
854.048	22706
854.183	22645
854.317	22797
854.451	22892
854.585	22691
854.72	22630
854.854	22816
854.988	22668
855.122	22755
855.256	22626
855.39	22660
855.524	22744
855.658	22744
855.792	22763
855.926	22660
856.06	22706
856.194	22649
856.327	22656
856.461	22740
856.595	22713
856.729	22687
856.862	22797
856.996	22603
857.13	22717
857.263	22767
857.397	22877
857.53	22778
857.664	22687
857.797	22824
857.931	22710
858.064	22816
858.197	22793
858.331	22675
858.464	22622
858.597	22679
858.731	22687
858.864	22694
858.997	22729
859.13	22736
859.263	22763
859.396	22797
859.529	22675
859.662	22679
859.795	22656
859.928	22717
860.061	22953
860.194	22987
860.327	22702
860.46	22733
860.592	22923
860.725	22744
860.858	22759
860.99	22656
861.123	22649
861.256	22611
861.388	22634
861.521	23478
861.653	22561
861.786	22512
861.918	22504
862.05	22489
862.183	22679
862.315	22649
862.447	22691
862.58	22653
862.712	22386
862.844	22409
862.976	22481
863.108	22402
863.24	22828
863.372	22249
863.504	22234
863.636	22455
863.768	22348
863.9	22489
864.032	22284
864.164	22367
864.296	22322
864.428	22432
864.559	22409
864.691	22535
864.823	22356
864.954	22348
865.086	22360
865.217	22280
865.349	22234
865.48	22223
865.612	22246
865.743	22379
865.875	22306
866.006	22280
866.137	22253
866.269	22310
866.4	22223
866.531	22207
866.662	22139
866.793	22287
866.924	22318
867.055	22265
867.186	22086
867.317	22112
867.448	22162
867.579	22204
867.71	22120
867.841	22093
867.972	22188
868.103	22207
868.233	22097
868.364	22215
868.495	22246
868.625	22512
868.756	22504
868.886	22371
869.017	22322
869.147	22519
869.278	22516
869.408	22276
869.539	22386
869.669	22497
869.799	22481
869.929	22527
870.06	22497
870.19	22748
870.32	22691
870.45	22672
870.58	22698
870.71	22877
870.84	22835
870.97	22904
871.1	22797
871.23	23064
871.36	23052
871.489	22923
871.619	22885
871.749	23037
871.879	22984
872.008	23136
872.138	23117
872.267	23037
872.397	23003
872.526	22850
872.656	22949
872.785	22850
872.915	23090
873.044	23109
873.173	23117
873.303	23090
873.432	23064
873.561	23071
873.69	23155
873.819	23124
873.948	23174
874.077	23056
874.206	22965
874.335	23010
874.464	23098
874.593	23326
874.722	23345
874.851	23200
874.979	23410
875.108	23372
875.237	23197
875.365	23075
875.494	23223
875.623	23387
875.751	23330
875.88	23128
876.008	23406
876.136	23372
876.265	23695
876.393	23718
876.521	23756
876.65	23786
876.778	23668
876.906	23573
877.034	23714
877.162	23611
877.29	23547
877.418	23684
877.546	23592
877.674	23604
877.802	23562
877.93	23619
878.058	23471
878.185	23482
878.313	23676
878.441	23638
878.568	23459
878.696	23634
878.824	23592
878.951	23764
879.079	23798
879.206	23923
879.333	23980
879.461	23672
879.588	23726
879.715	23699
879.842	23961
879.97	23710
880.097	23505
880.224	23524
880.351	23524
880.478	23414
880.605	23497
880.732	23433
880.859	23668
880.986	23486
881.112	23539
881.239	23322
881.366	23121
881.493	23151
881.619	23075
881.746	22965
881.872	23048
881.999	22934
882.125	22934
882.252	22908
882.378	23033
882.505	22984
882.631	22805
882.757	22653
882.883	22831
883.01	22702
883.136	22694
883.262	22519
883.388	22611
883.514	22733
883.64	22626
883.766	22649
883.892	22527
884.018	22519
884.143	22660
884.269	22569
884.395	22337
884.52	22333
884.646	22352
884.772	22303
884.897	22246
885.023	22226
885.148	22447
885.274	22405
885.399	22424
885.524	22257
885.65	22367
885.775	22341
885.9	22249
886.025	22405
886.15	22303
886.275	22272
886.4	22093
886.525	22192
886.65	22204
886.775	22230
886.9	22455
887.025	22432
887.149	22257
887.274	22086
887.399	22086
887.523	22029
887.648	22017
887.773	21945
887.897	22124
888.021	22048
888.146	21972
888.27	22093
888.395	22128
888.519	22044
888.643	22188
888.767	22116
888.891	22036
889.015	21865
889.139	21960
889.263	21774
889.387	21972
889.511	22143
889.635	21956
889.759	21816
889.883	21926
890.006	21842
890.13	21861
890.254	21675
890.377	21755
890.501	21667
890.624	21553
890.748	21595
890.871	21519
890.995	21511
891.118	21401
891.241	21473
891.364	21336
891.488	21534
891.611	21378
891.734	21401
891.857	21500
891.98	21325
892.103	21473
892.226	21382
892.349	21317
892.471	21264
892.594	21310
892.717	21249
892.839	21348
892.962	21313
893.085	21355
893.207	21386
893.33	21024
893.452	21192
893.575	21329
893.697	21310
893.819	21359
893.941	21431
894.064	21344
894.186	21279
894.308	21195
894.43	21310
894.552	21363
894.674	21279
894.796	21165
894.918	21237
895.04	21386
895.161	21283
895.283	21264
895.405	21241
895.526	21222
895.648	21306
895.769	21344
895.891	21291
896.012	21237
896.134	21291
896.255	21268
896.376	21157
896.498	21256
896.619	21298
896.74	21230
896.861	21351
896.982	21523
897.103	21652
897.224	21458
897.345	21420
897.466	21397
897.587	21420
897.708	21682
897.828	21462
897.949	21344
898.07	21214
898.19	21367
898.311	21599
898.431	21332
898.552	21439
898.672	21496
898.792	21473
898.913	21439
899.033	21382
899.153	21233
899.273	21017
899.393	21302
899.513	21203
899.633	21192
899.753	21131
899.873	21108
899.993	21287
900.113	21154
900.232	21096
900.352	21184
900.472	20891
900.591	20887
900.711	20979
900.83	20842
900.95	21112
901.069	20937
901.189	20933
901.308	20625
901.427	20473
901.546	20579
901.665	20499
901.784	20541
901.904	20374
902.023	20339
902.141	20115
902.26	20062
902.379	20084
902.498	20031
902.617	19986
902.735	20024
902.854	19925
902.973	19936
903.091	19753
903.21	19662
903.328	19594
903.446	19540
903.565	19483
903.683	19544
903.801	19263
903.919	19415
904.038	19438
904.156	19320
904.274	19293
904.392	19183
904.51	19103
904.627	19202
904.745	19289
904.863	19266
904.981	18920
905.098	18897
905.216	18943
905.334	18996
905.451	18837
905.569	18817
905.686	18886
905.803	18810
905.921	18692
906.038	18779
906.155	18696
906.272	18604
906.389	18646
906.506	18384
906.623	18441
906.74	18372
906.857	18311
906.974	18277
907.091	18456
907.208	18681
907.324	18437
907.441	18292
907.557	18152
907.674	18125
907.79	18011
907.907	18110
908.023	18091
908.139	18197
908.256	18007
908.372	17973
908.488	17927
908.604	17870
908.72	17779
908.836	17760
908.952	17843
909.068	17916
909.184	18019
909.3	17916
909.415	17897
909.531	17847
909.647	17604
909.762	17627
909.878	17543
909.993	17600
910.108	17474
910.224	17543
910.339	17471
910.454	17452
910.57	17341
910.685	17239
910.8	17562
910.915	17448
911.03	17258
911.145	17132
911.259	17064
911.374	17014
911.489	16850
911.604	16942
911.718	16786
911.833	16900
911.947	16710
912.062	16649
912.176	16889
912.291	16843
912.405	16847
912.519	17029
912.633	17003
912.748	16892
912.862	16809
912.976	16653
913.09	16474
913.204	16679
913.318	16565
913.431	16656
913.545	16767
913.659	16721
913.772	16721
913.886	16424
914	16462
914.113	16584
914.226	16561
914.34	16493
914.453	16394
914.566	16451
914.68	16352
914.793	16478
914.906	16128
915.019	15964
915.132	15994
915.245	15949
915.358	15983
915.47	16021
915.583	16036
915.696	15979
915.809	16150
915.921	16192
916.034	15972
916.146	15960
916.259	15781
916.371	15956
916.483	15869
916.595	15835
916.708	15892
916.82	15739
916.932	15774
917.044	15838
917.156	15797
917.268	15637
917.38	15610
917.491	15576
917.603	15606
917.715	15766
917.826	15717
917.938	15553
918.049	15454
918.161	15526
918.272	15580
918.384	15633
918.495	15496
918.606	15279
918.717	15332
918.828	15458
918.939	15496
919.05	15252
919.161	15359
919.272	15195
919.383	15176
919.494	15264
919.604	15469
919.715	15329
919.826	15256
919.936	15302
920.047	15378
920.157	15340
920.267	15424
920.378	15355
920.488	15226
920.598	15477
920.708	15694
920.818	15500
920.928	15450
921.038	15568
921.148	15584
921.258	15287
921.368	15195
921.477	15108
921.587	15085
921.697	14883
921.806	15081
921.916	14880
922.025	14678
922.134	14758
922.244	14674
922.353	14636
922.462	14556
922.571	14507
922.68	14377
922.789	14351
922.898	14358
923.007	14328
923.116	14305
923.224	14267
923.333	14332
923.442	14126
923.55	14077
923.659	14142
923.767	14168
923.876	14069
923.984	14164
924.092	13982
924.201	14012
924.309	14016
924.417	14027
924.525	13940
924.633	13864
924.741	14906
924.849	13746
924.956	13849
925.064	13753
925.172	13613
925.279	13685
925.387	13715
925.494	13556
925.602	13845
925.709	13658
925.816	13514
925.924	13571
926.031	13620
926.138	13582
926.245	13636
926.352	13544
926.459	13689
926.566	13727
926.673	13544
926.779	13533
926.886	13358
926.993	13274
927.099	13209
927.206	13259
927.312	13160
927.419	13282
927.525	13133
927.631	13324
927.737	13099
927.843	13095
927.95	12935
928.056	12993
928.162	12954
928.267	13118
928.373	13750
928.479	13118
928.585	12837
928.69	12913
928.796	13042
928.901	12886
929.007	12715
929.112	12856
929.218	12848
929.323	12764
929.428	12616
929.533	12837
929.638	12722
929.743	12673
929.848	12757
929.953	12677
930.058	12547
930.163	12372
930.267	12418
930.372	12509
930.477	12372
930.581	12570
930.685	12426
930.79	12254
930.894	12235
930.998	12224
931.103	12410
931.207	11977
931.311	11950
931.415	11878
931.519	11611
931.623	11646
