Data from test_V78500241_1277.txt Node
Date: Fri Mar 25 15:50:38 CST 2022
User: usil
Spectrometer: V785-0024
Trigger mode: 0
Integration Time (sec): 4.000000E-1
Scans to average: 1
Nonlinearity correction enabled: false
Boxcar width: 0
Storing dark spectrum: false
XAxis mode: Wavelengths
Number of Pixels in Spectrum: 1024
>>>>>Begin Spectral Data<<<<<
801.071	28139
801.214	27975
801.356	27739
801.499	27770
801.641	27705
801.783	27603
801.926	27568
802.068	27496
802.211	27610
802.353	27755
802.496	27310
802.638	27306
802.78	27370
802.923	27325
803.065	27287
803.208	27355
803.35	27268
803.492	27447
803.635	27408
803.777	27519
803.919	27405
804.061	27888
804.204	27610
804.346	27538
804.488	27412
804.63	27473
804.773	27443
804.915	27534
805.057	27709
805.199	27443
805.341	27686
805.483	27736
805.626	27709
805.768	27519
805.91	27652
806.052	27755
806.194	27637
806.336	27728
806.478	27831
806.62	27682
806.762	27892
806.904	27926
807.046	28200
807.188	28341
807.33	28017
807.472	28295
807.614	27956
807.756	28109
807.898	27987
808.04	27945
808.182	28086
808.324	27922
808.465	28017
808.607	28158
808.749	28470
808.891	28592
809.033	28592
809.174	28322
809.316	28192
809.458	28291
809.6	28287
809.741	28394
809.883	28634
810.025	28645
810.166	28588
810.308	28516
810.45	28641
810.591	28527
810.733	28474
810.875	28337
811.016	28200
811.158	28101
811.299	28440
811.441	28508
811.582	28519
811.724	28367
811.865	28291
812.007	28413
812.148	28101
812.29	28306
812.431	28504
812.573	28725
812.714	28801
812.855	28828
812.997	28820
813.138	29086
813.279	28911
813.421	28869
813.562	28801
813.703	28675
813.845	28577
813.986	28310
814.127	27941
814.268	28032
814.41	28158
814.551	27953
814.692	28139
814.833	27956
814.974	27972
815.115	28036
815.256	27914
815.397	27895
815.539	27892
815.68	27850
815.821	27823
815.962	27907
816.103	27930
816.244	27778
816.385	27644
816.526	27595
816.666	27382
816.807	27237
816.948	27321
817.089	27485
817.23	27378
817.371	27420
817.512	27275
817.653	27340
817.793	27230
817.934	27336
818.075	27294
818.216	27351
818.356	27416
818.497	27241
818.638	27005
818.778	27081
818.919	27138
819.06	27066
819.2	27173
819.341	27389
819.481	27393
819.622	27606
819.762	27675
819.903	27564
820.043	27401
820.184	27633
820.324	27389
820.465	27473
820.605	27523
820.746	27283
820.886	27188
821.026	27378
821.167	27466
821.307	27416
821.447	27507
821.588	27359
821.728	27127
821.868	27020
822.008	26830
822.149	26906
822.289	26853
822.429	26590
822.569	26492
822.709	26507
822.849	26259
822.99	26278
823.13	26324
823.27	26324
823.41	26195
823.55	26122
823.69	26081
823.83	26027
823.97	26077
824.11	25970
824.25	26027
824.389	25963
824.529	26157
824.669	26001
824.809	25997
824.949	26081
825.089	26012
825.228	26069
825.368	25875
825.508	25864
825.648	25856
825.787	25849
825.927	26046
826.067	25833
826.206	25856
826.346	25879
826.485	25993
826.625	25761
826.765	25966
826.904	25791
827.044	25540
827.183	25529
827.323	25506
827.462	25662
827.601	25540
827.741	25464
827.88	25651
828.02	25407
828.159	25521
828.298	25731
828.437	25655
828.577	25438
828.716	25704
828.855	25495
828.994	25263
829.134	25228
829.273	25251
829.412	25251
829.551	25251
829.69	25168
829.829	25156
829.968	25316
830.107	25282
830.246	25244
830.385	25198
830.524	25236
830.663	25065
830.802	25012
830.941	24863
831.08	24802
831.219	24852
831.357	24916
831.496	25069
831.635	24954
831.774	24665
831.913	24734
832.051	24669
832.19	24681
832.329	24700
832.467	24608
832.606	24582
832.744	24521
832.883	24452
833.022	24448
833.16	24589
833.299	24673
833.437	24422
833.576	24684
833.714	24677
833.852	24578
833.991	24639
834.129	24726
834.267	24776
834.406	24498
834.544	24559
834.682	24498
834.821	24490
834.959	24806
835.097	24372
835.235	24673
835.373	24635
835.511	24627
835.65	24464
835.788	24418
835.926	24311
836.064	24201
836.202	24353
836.34	24319
836.478	24505
836.615	24403
836.753	24433
836.891	24429
837.029	24319
837.167	24414
837.305	24281
837.443	24308
837.58	24235
837.718	24247
837.856	24330
837.993	24243
838.131	24144
838.269	24182
838.406	24194
838.544	24083
838.681	23912
838.819	23836
838.956	23718
839.094	23687
839.231	23771
839.369	23942
839.506	24114
839.643	23901
839.781	23813
839.918	23691
840.055	23703
840.193	23600
840.33	23707
840.467	23779
840.604	23627
840.742	23878
840.879	23539
841.016	23733
841.153	23490
841.29	23866
841.427	23619
841.564	23585
841.701	23509
841.838	23600
841.975	23512
842.112	23627
842.249	23463
842.385	23410
842.522	23608
842.659	23459
842.796	23444
842.933	23478
843.069	23280
843.206	23330
843.343	23265
843.479	23478
843.616	23353
843.752	23185
843.889	23220
844.025	23250
844.162	23140
844.298	23299
844.435	23174
844.571	23041
844.708	23117
844.844	23223
844.98	23265
845.117	23102
845.253	23071
845.389	23060
845.525	22999
845.661	22987
845.798	22881
845.934	23105
846.07	22820
846.206	22942
846.342	23105
846.478	22923
846.614	22664
846.75	22653
846.886	22596
847.022	22679
847.158	22729
847.294	22641
847.429	22649
847.565	22603
847.701	22839
847.837	22318
847.972	22325
848.108	22367
848.244	22428
848.379	22238
848.515	22162
848.65	22120
848.786	22173
848.921	22169
849.057	22268
849.192	22287
849.328	22272
849.463	22204
849.598	22105
849.734	22082
849.869	22044
850.004	21949
850.14	22090
850.275	22044
850.41	21915
850.545	21850
850.68	21838
850.815	22021
850.95	21945
851.085	22116
851.22	21991
851.355	21983
851.49	21964
851.625	21991
851.76	21941
851.895	21907
852.03	21884
852.165	22029
852.299	21880
852.434	22010
852.569	22002
852.703	22124
852.838	21975
852.973	22090
853.107	22044
853.242	21941
853.376	21728
853.511	21682
853.645	21895
853.78	21975
853.914	21800
854.048	21793
854.183	21861
854.317	21800
854.451	21892
854.585	21827
854.72	21747
854.854	21827
854.988	21728
855.122	21759
855.256	21595
855.39	21762
855.524	21884
855.658	21846
855.792	21812
855.926	21804
856.06	21789
856.194	21778
856.327	21759
856.461	21686
856.595	21675
856.729	21720
856.862	21812
856.996	21781
857.13	21915
857.263	22006
857.397	21895
857.53	21785
857.664	21789
857.797	21785
857.931	21827
858.064	21907
858.197	21918
858.331	21789
858.464	21690
858.597	21717
858.731	21698
858.864	21694
858.997	21686
859.13	21793
859.263	21774
859.396	21831
859.529	21854
859.662	21747
859.795	21743
859.928	21816
860.061	21987
860.194	22025
860.327	21907
860.46	21819
860.592	21865
860.725	21991
860.858	21937
860.99	21720
861.123	21648
861.256	21694
861.388	21835
861.521	22390
861.653	21652
861.786	21420
861.918	21629
862.05	21739
862.183	21759
862.315	21667
862.447	21709
862.58	21675
862.712	21580
862.844	21397
862.976	21564
863.108	21553
863.24	21937
863.372	21367
863.504	21439
863.636	21439
863.768	21504
863.9	21416
864.032	21469
864.164	21416
864.296	21462
864.428	21599
864.559	21572
864.691	21515
864.823	21462
864.954	21485
865.086	21431
865.217	21351
865.349	21325
865.48	21230
865.612	21359
865.743	21553
865.875	21443
866.006	21340
866.137	21378
866.269	21374
866.4	21351
866.531	21226
866.662	21348
866.793	21188
866.924	21291
867.055	21443
867.186	21332
867.317	21340
867.448	21226
867.579	21359
867.71	21180
867.841	21188
867.972	21310
868.103	21142
868.233	21355
868.364	21420
868.495	21397
868.625	21549
868.756	21701
868.886	21553
869.017	21625
869.147	21694
869.278	21679
869.408	21576
869.539	21568
869.669	21679
869.799	21504
869.929	21599
870.06	21652
870.19	21869
870.32	21857
870.45	21774
870.58	21983
870.71	22063
870.84	22105
870.97	21892
871.1	21865
871.23	22128
871.36	22082
871.489	22070
871.619	22112
871.749	22090
871.879	22257
872.008	22337
872.138	22166
872.267	22120
872.397	21930
872.526	22021
872.656	21979
872.785	21918
872.915	22211
873.044	22211
873.173	22154
873.303	22211
873.432	22211
873.561	22265
873.69	22131
873.819	22177
873.948	22318
874.077	22192
874.206	22105
874.335	22219
874.464	22215
874.593	22417
874.722	22333
874.851	22333
874.979	22432
875.108	22451
875.237	22333
875.365	22246
875.494	22268
875.623	22363
875.751	22443
875.88	22443
876.008	22462
876.136	22466
876.265	22774
876.393	22965
876.521	22831
876.65	23056
876.778	22763
876.906	22801
877.034	22672
877.162	22793
877.29	22596
877.418	22793
877.546	22767
877.674	22729
877.802	22740
877.93	22630
878.058	22740
878.185	22550
878.313	22721
878.441	22698
878.568	22603
878.696	22573
878.824	22675
878.951	22816
879.079	22854
879.206	23056
879.333	22927
879.461	22790
879.588	22828
879.715	22938
879.842	22953
879.97	22706
880.097	22626
880.224	22573
880.351	22538
880.478	22504
880.605	22554
880.732	22527
880.859	22797
880.986	22493
881.112	22637
881.239	22363
881.366	22284
881.493	22219
881.619	22124
881.746	22112
881.872	22093
881.999	22116
882.125	22135
882.252	22188
882.378	21934
882.505	22211
882.631	21979
882.757	21873
882.883	21964
883.01	21736
883.136	21755
883.262	21656
883.388	21610
883.514	21842
883.64	21895
883.766	21690
883.892	21606
884.018	21660
884.143	21759
884.269	21804
884.395	21500
884.52	21412
884.646	21523
884.772	21294
884.897	21287
885.023	21428
885.148	21526
885.274	21447
885.399	21644
885.524	21466
885.65	21485
885.775	21485
885.9	21572
886.025	21488
886.15	21534
886.275	21359
886.4	21370
886.525	21351
886.65	21302
886.775	21325
886.9	21595
887.025	21728
887.149	21386
887.274	21275
887.399	21112
887.523	21233
887.648	21188
887.773	21150
887.897	21313
888.021	21252
888.146	21260
888.27	21275
888.395	21214
888.519	21302
888.643	21184
888.767	21298
888.891	21173
889.015	21028
889.139	21119
889.263	21085
889.387	21131
889.511	21203
889.635	21142
889.759	21058
889.883	21024
890.006	20979
890.13	21100
890.254	20963
890.377	20883
890.501	20815
890.624	20632
890.748	20701
890.871	20629
890.995	20511
891.118	20473
891.241	20511
891.364	20583
891.488	20629
891.611	20587
891.734	20503
891.857	20583
891.98	20640
892.103	20549
892.226	20549
892.349	20442
892.471	20305
892.594	20473
892.717	20613
892.839	20617
892.962	20564
893.085	20579
893.207	20465
893.33	20355
893.452	20374
893.575	20385
893.697	20450
893.819	20602
893.941	20712
894.064	20598
894.186	20480
894.308	20309
894.43	20495
894.552	20594
894.674	20541
894.796	20374
894.918	20339
895.04	20343
895.161	20606
895.283	20484
895.405	20385
895.526	20431
895.648	20408
895.769	20549
895.891	20404
896.012	20438
896.134	20484
896.255	20488
896.376	20377
896.498	20473
896.619	20434
896.74	20358
896.861	20564
896.982	20735
897.103	20861
897.224	20651
897.345	20701
897.466	20651
897.587	20648
897.708	20773
897.828	20815
897.949	20560
898.07	20503
898.19	20560
898.311	20708
898.431	20701
898.552	20693
898.672	20807
898.792	20701
898.913	20708
899.033	20446
899.153	20492
899.273	20366
899.393	20465
899.513	20393
899.633	20385
899.753	20476
899.873	20332
899.993	20446
900.113	20305
900.232	20370
900.352	20294
900.472	20206
900.591	20263
900.711	20233
900.83	20214
900.95	20370
901.069	20366
901.189	20126
901.308	19902
901.427	19753
901.546	19772
901.665	19879
901.784	19738
901.904	19620
902.023	19552
902.141	19228
902.26	19331
902.379	19327
902.498	19274
902.617	19293
902.735	19168
902.854	19168
902.973	19316
903.091	18909
903.21	18977
903.328	18916
903.446	18973
903.565	18787
903.683	18726
903.801	18593
903.919	18783
904.038	18673
904.156	18517
904.274	18661
904.392	18551
904.51	18391
904.627	18490
904.745	18555
904.863	18593
904.981	18342
905.098	18186
905.216	18140
905.334	18167
905.451	18235
905.569	18171
905.686	18201
905.803	18152
905.921	17954
906.038	18011
906.155	18015
906.272	17927
906.389	17920
906.506	17707
906.623	17672
906.74	17775
906.857	17585
906.974	17634
907.091	17817
907.208	17798
907.324	17634
907.441	17566
907.557	17414
907.674	17360
907.79	17433
907.907	17444
908.023	17444
908.139	17444
908.256	17455
908.372	17334
908.488	17239
908.604	17181
908.72	17086
908.836	17124
908.952	17067
909.068	17170
909.184	17200
909.3	17254
909.415	17147
909.531	17090
909.647	16858
909.762	16915
909.878	16915
909.993	16896
910.108	16919
910.224	16828
910.339	16850
910.454	16649
910.57	16615
910.685	16675
910.8	16881
910.915	16733
911.03	16641
911.145	16474
911.259	16512
911.374	16443
911.489	16360
911.604	16291
911.718	16238
911.833	16166
911.947	16040
912.062	16071
912.176	16162
912.291	16131
912.405	16086
912.519	16382
912.633	16367
912.748	16295
912.862	16207
912.976	16055
913.09	15949
913.204	15987
913.318	15960
913.431	15983
913.545	16002
913.659	16078
913.772	15918
913.886	15804
914	15739
914.113	15762
914.226	15915
914.34	15819
914.453	15709
914.566	15808
914.68	15713
914.793	15591
914.906	15405
915.019	15378
915.132	15287
915.245	15348
915.358	15466
915.47	15458
915.583	15348
915.696	15393
915.809	15515
915.921	15488
916.034	15344
916.146	15272
916.259	15332
916.371	15454
916.483	15397
916.595	15127
916.708	15291
916.82	15176
916.932	15218
917.044	15093
917.156	15150
917.268	14971
917.38	15062
917.491	14952
917.603	15047
917.715	15119
917.826	15036
917.938	15009
918.049	14921
918.161	15017
918.272	15093
918.384	15119
918.495	14952
918.606	14921
918.717	14762
918.828	14720
918.939	14758
919.05	14739
919.161	14701
919.272	14518
919.383	14621
919.494	14880
919.604	14975
919.715	14807
919.826	14667
919.936	14792
920.047	14857
920.157	14720
920.267	14845
920.378	14712
920.488	14617
920.598	14944
920.708	15062
920.818	14826
920.928	14853
921.038	14990
921.148	14967
921.258	14644
921.368	14530
921.477	14446
921.587	14389
921.697	14377
921.806	14476
921.916	14328
922.025	14161
922.134	14142
922.244	14130
922.353	14161
922.462	13978
922.571	13928
922.68	13712
922.789	13693
922.898	13769
923.007	13704
923.116	13700
923.224	13643
923.333	13784
923.442	13609
923.55	13544
923.659	13639
923.767	13559
923.876	13548
923.984	13613
924.092	13472
924.201	13556
924.309	13495
924.417	13518
924.525	13422
924.633	13327
924.741	14355
924.849	13206
924.956	13373
925.064	13133
925.172	13080
925.279	13072
925.387	13240
925.494	13164
925.602	13293
925.709	13145
925.816	13072
925.924	13118
926.031	13175
926.138	13050
926.245	13107
926.352	12993
926.459	13141
926.566	13209
926.673	13084
926.779	12924
926.886	12882
926.993	12677
927.099	12684
927.206	12677
927.312	12612
927.419	12768
927.525	12719
927.631	12745
927.737	12665
927.843	12456
927.95	12399
928.056	12547
928.162	12456
928.267	12483
928.373	13137
928.479	12467
928.585	12315
928.69	12429
928.796	12570
928.901	12346
929.007	12277
929.112	12365
929.218	12395
929.323	12327
929.428	12186
929.533	12365
929.638	12243
929.743	12155
929.848	12232
929.953	12171
930.058	12125
930.163	11870
930.267	11870
930.372	12019
930.477	11912
930.581	12095
930.685	11973
930.79	11764
930.894	11885
930.998	11752
931.103	11889
931.207	11490
931.311	11467
931.415	11353
931.519	11170
931.623	11231
