Data from test_V78500241_1456.txt Node
Date: Fri Mar 25 15:51:53 CST 2022
User: usil
Spectrometer: V785-0024
Trigger mode: 0
Integration Time (sec): 4.000000E-1
Scans to average: 1
Nonlinearity correction enabled: false
Boxcar width: 0
Storing dark spectrum: false
XAxis mode: Wavelengths
Number of Pixels in Spectrum: 1024
>>>>>Begin Spectral Data<<<<<
801.071	27618
801.214	27488
801.356	27340
801.499	27302
801.641	27165
801.783	27104
801.926	27077
802.068	27100
802.211	27188
802.353	27104
802.496	26849
802.638	26826
802.78	26663
802.923	26720
803.065	26693
803.208	26792
803.35	26705
803.492	27001
803.635	26853
803.777	26849
803.919	26971
804.061	27237
804.204	27089
804.346	26994
804.488	26868
804.63	26944
804.773	26872
804.915	27001
805.057	26975
805.199	26967
805.341	26986
805.483	27214
805.626	27161
805.768	26967
805.91	27070
806.052	26990
806.194	27093
806.336	27275
806.478	27192
806.62	26990
806.762	27237
806.904	27233
807.046	27610
807.188	27447
807.33	27587
807.472	27629
807.614	27496
807.756	27382
807.898	27344
808.04	27321
808.182	27374
808.324	27211
808.465	27408
808.607	27724
808.749	27846
808.891	27633
809.033	27956
809.174	27732
809.316	27675
809.458	27629
809.6	27583
809.741	27660
809.883	27964
810.025	27964
810.166	27956
810.308	27979
810.45	28002
810.591	27755
810.733	27572
810.875	27652
811.016	27507
811.158	27408
811.299	27610
811.441	27854
811.582	27789
811.724	27648
811.865	27694
812.007	27542
812.148	27610
812.29	27766
812.431	27854
812.573	28048
812.714	28040
812.855	28158
812.997	28375
813.138	28417
813.279	28116
813.421	28211
813.562	28139
813.703	28135
813.845	27903
813.986	27644
814.127	27492
814.268	27469
814.41	27447
814.551	27370
814.692	27450
814.833	27272
814.974	27382
815.115	27374
815.256	27275
815.397	27138
815.539	27154
815.68	27089
815.821	27112
815.962	27207
816.103	27093
816.244	26971
816.385	26861
816.526	26979
816.666	26727
816.807	26613
816.948	26743
817.089	26724
817.23	26560
817.371	26583
817.512	26602
817.653	26332
817.793	26541
817.934	26636
818.075	26625
818.216	26556
818.356	26465
818.497	26461
818.638	26385
818.778	26324
818.919	26415
819.06	26400
819.2	26488
819.341	26533
819.481	26701
819.622	26819
819.762	27028
819.903	26746
820.043	26773
820.184	26773
820.324	26598
820.465	26689
820.605	26781
820.746	26724
820.886	26617
821.026	26739
821.167	26663
821.307	26887
821.447	26583
821.588	26526
821.728	26545
821.868	26332
822.008	26172
822.149	26092
822.289	26065
822.429	25822
822.569	25784
822.709	25814
822.849	25616
822.99	25662
823.13	25601
823.27	25499
823.41	25430
823.55	25415
823.69	25487
823.83	25476
823.97	25297
824.11	25118
824.25	25335
824.389	25175
824.529	25350
824.669	25354
824.809	25339
824.949	25419
825.089	25308
825.228	25263
825.368	25065
825.508	25095
825.648	25156
825.787	25012
825.927	25141
826.067	25027
826.206	25091
826.346	25118
826.485	25057
826.625	25156
826.765	25148
826.904	25133
827.044	24867
827.183	24992
827.323	24749
827.462	24943
827.601	24848
827.741	24837
827.88	24802
828.02	24757
828.159	24730
828.298	24829
828.437	24859
828.577	24741
828.716	24947
828.855	24776
828.994	24566
829.134	24521
829.273	24517
829.412	24483
829.551	24467
829.69	24486
829.829	24490
829.968	24471
830.107	24631
830.246	24570
830.385	24540
830.524	24448
830.663	24426
830.802	24277
830.941	24068
831.08	24159
831.219	24136
831.357	24300
831.496	24247
831.635	24121
831.774	24038
831.913	24018
832.051	23840
832.19	23851
832.329	23999
832.467	23813
832.606	23737
832.744	23813
832.883	23756
833.022	23798
833.16	23824
833.299	23851
833.437	23878
833.576	23904
833.714	23912
833.852	23843
833.991	23912
834.129	23904
834.267	23999
834.406	23840
834.544	23817
834.682	23729
834.821	23859
834.959	24026
835.097	23790
835.235	23885
835.373	23775
835.511	23809
835.65	23623
835.788	23695
835.926	23623
836.064	23490
836.202	23516
836.34	23668
836.478	23775
836.615	23695
836.753	23638
836.891	23790
837.029	23596
837.167	23661
837.305	23600
837.443	23520
837.58	23474
837.718	23604
837.856	23467
837.993	23490
838.131	23433
838.269	23421
838.406	23429
838.544	23402
838.681	23170
838.819	23261
838.956	22949
839.094	23010
839.231	23048
839.369	23136
839.506	23528
839.643	23261
839.781	23044
839.918	22957
840.055	22938
840.193	22877
840.33	22816
840.467	23003
840.604	23052
840.742	23208
840.879	22752
841.016	22820
841.153	22771
841.29	23014
841.427	22805
841.564	22995
841.701	22896
841.838	22908
841.975	22786
842.112	22790
842.249	22733
842.385	22725
842.522	22843
842.659	22733
842.796	22653
842.933	22744
843.069	22512
843.206	22607
843.343	22748
843.479	22660
843.616	22774
843.752	22371
843.889	22481
844.025	22550
844.162	22493
844.298	22577
844.435	22417
844.571	22299
844.708	22402
844.844	22531
844.98	22603
845.117	22489
845.253	22443
845.389	22310
845.525	22451
845.661	22295
845.798	22173
845.934	22173
846.07	22207
846.206	22230
846.342	22173
846.478	22207
846.614	22006
846.75	21884
846.886	21854
847.022	21873
847.158	21911
847.294	21903
847.429	21911
847.565	21800
847.701	22162
847.837	21629
847.972	21561
848.108	21698
848.244	21663
848.379	21583
848.515	21538
848.65	21435
848.786	21454
848.921	21542
849.057	21583
849.192	21610
849.328	21500
849.463	21458
849.598	21340
849.734	21367
849.869	21287
850.004	21272
850.14	21192
850.275	21260
850.41	21192
850.545	21180
850.68	21176
850.815	21367
850.95	21211
851.085	21485
851.22	21393
851.355	21218
851.49	21287
851.625	21230
851.76	21340
851.895	21192
852.03	21176
852.165	21237
852.299	21329
852.434	21317
852.569	21275
852.703	21336
852.838	21306
852.973	21344
853.107	21408
853.242	21119
853.376	21070
853.511	21089
853.645	20986
853.78	21214
853.914	21020
854.048	20963
854.183	20998
854.317	21051
854.451	21298
854.585	21131
854.72	20979
854.854	21146
854.988	21039
855.122	20948
855.256	20914
855.39	21036
855.524	21039
855.658	21161
855.792	21127
855.926	20952
856.06	21089
856.194	21211
856.327	20967
856.461	20952
856.595	20998
856.729	21047
856.862	21180
856.996	21116
857.13	21233
857.263	21241
857.397	21283
857.53	21020
857.664	21074
857.797	21222
857.931	21123
858.064	21074
858.197	21123
858.331	21104
858.464	20933
858.597	21051
858.731	21055
858.864	21096
858.997	21062
859.13	21112
859.263	21123
859.396	21146
859.529	21062
859.662	21047
859.795	21055
859.928	21169
860.061	21218
860.194	21249
860.327	21157
860.46	21085
860.592	21142
860.725	21268
860.858	21367
860.99	21062
861.123	20960
861.256	21077
861.388	21161
861.521	21934
861.653	21009
861.786	20868
861.918	20861
862.05	20925
862.183	21047
862.315	21005
862.447	21009
862.58	20948
862.712	20918
862.844	20902
862.976	20933
863.108	20944
863.24	21252
863.372	20758
863.504	20731
863.636	20765
863.768	20899
863.9	20845
864.032	20674
864.164	20773
864.296	20902
864.428	20956
864.559	20941
864.691	20929
864.823	20834
864.954	20845
865.086	20800
865.217	20655
865.349	20606
865.48	20765
865.612	20769
865.743	20876
865.875	20670
866.006	20533
866.137	20838
866.269	20583
866.4	20659
866.531	20556
866.662	20655
866.793	20568
866.924	20648
867.055	20533
867.186	20575
867.317	20674
867.448	20507
867.579	20564
867.71	20461
867.841	20545
867.972	20564
868.103	20598
868.233	20701
868.364	20674
868.495	20674
868.625	20845
868.756	21058
868.886	20804
869.017	20986
869.147	20914
869.278	21039
869.408	20960
869.539	20826
869.669	20902
869.799	20902
869.929	21047
870.06	20990
870.19	21184
870.32	21104
870.45	21302
870.58	21226
870.71	21458
870.84	21378
870.97	21260
871.1	21241
871.23	21458
871.36	21454
871.489	21378
871.619	21538
871.749	21439
871.879	21622
872.008	21538
872.138	21462
872.267	21500
872.397	21439
872.526	21393
872.656	21260
872.785	21264
872.915	21473
873.044	21652
873.173	21507
873.303	21538
873.432	21530
873.561	21667
873.69	21504
873.819	21504
873.948	21648
874.077	21534
874.206	21488
874.335	21458
874.464	21686
874.593	21671
874.722	21701
874.851	21770
874.979	21705
875.108	21759
875.237	21751
875.365	21675
875.494	21762
875.623	21720
875.751	21709
875.88	21694
876.008	21823
876.136	21922
876.265	22090
876.393	22306
876.521	22150
876.65	22246
876.778	22135
876.906	21991
877.034	22013
877.162	22253
877.29	22128
877.418	22112
877.546	22158
877.674	22082
877.802	22036
877.93	22128
878.058	22109
878.185	22002
878.313	21998
878.441	22150
878.568	21922
878.696	22040
878.824	22135
878.951	22147
879.079	22333
879.206	22413
879.333	22242
879.461	22124
879.588	22181
879.715	22253
879.842	22478
879.97	22162
880.097	21884
880.224	21827
880.351	22002
880.478	21972
880.605	21907
880.732	21842
880.859	22280
880.986	21975
881.112	21998
881.239	21838
881.366	21568
881.493	21549
881.619	21454
881.746	21515
881.872	21507
881.999	21485
882.125	21447
882.252	21530
882.378	21348
882.505	21515
882.631	21420
882.757	21154
882.883	21180
883.01	21283
883.136	21142
883.262	21009
883.388	20963
883.514	21245
883.64	21351
883.766	21135
883.892	20906
884.018	20986
884.143	21146
884.269	21283
884.395	20925
884.52	20781
884.646	20765
884.772	20838
884.897	20625
885.023	20819
885.148	20998
885.274	20994
885.399	20762
885.524	20830
885.65	20960
885.775	20944
885.9	20838
886.025	20842
886.15	20838
886.275	20868
886.4	20705
886.525	20712
886.65	20701
886.775	20716
886.9	20861
887.025	21043
887.149	20773
887.274	20640
887.399	20716
887.523	20594
887.648	20541
887.773	20457
887.897	20686
888.021	20648
888.146	20465
888.27	20667
888.395	20727
888.519	20499
888.643	20583
888.767	20705
888.891	20423
889.015	20461
889.139	20404
889.263	20427
889.387	20507
889.511	20590
889.635	20476
889.759	20419
889.883	20286
890.006	20377
890.13	20450
890.254	20419
890.377	20408
890.501	20244
890.624	20084
890.748	20149
890.871	20043
890.995	19967
891.118	19860
891.241	19932
891.364	20008
891.488	20031
891.611	19955
891.734	19997
891.857	20058
891.98	20081
892.103	20130
892.226	19940
892.349	19879
892.471	19814
892.594	19833
892.717	19932
892.839	19875
892.962	20001
893.085	19841
893.207	19746
893.33	19750
893.452	19826
893.575	19940
893.697	19902
893.819	19993
893.941	20206
894.064	19989
894.186	19826
894.308	19826
894.43	19997
894.552	19963
894.674	19963
894.796	19841
894.918	19928
895.04	19845
895.161	19967
895.283	19982
895.405	19799
895.526	19814
895.648	19868
895.769	19913
895.891	19860
896.012	19898
896.134	19875
896.255	19868
896.376	19887
896.498	19803
896.619	19906
896.74	19879
896.861	19841
896.982	20294
897.103	20332
897.224	20142
897.345	20096
897.466	20039
897.587	20073
897.708	20237
897.828	20191
897.949	20058
898.07	20081
898.19	20157
898.311	20298
898.431	20069
898.552	20024
898.672	20111
898.792	20187
898.913	19963
899.033	20073
899.153	19909
899.273	19925
899.393	19909
899.513	19909
899.633	19951
899.753	19898
899.873	19742
899.993	19788
900.113	19780
900.232	19719
900.352	19795
900.472	19643
900.591	19693
900.711	19746
900.83	19582
900.95	19750
901.069	19693
901.189	19548
901.308	19312
901.427	19259
901.546	19183
901.665	19270
901.784	19285
901.904	19076
902.023	19053
902.141	18825
902.26	18696
902.379	18894
902.498	18787
902.617	18692
902.735	18787
902.854	18779
902.973	18642
903.091	18414
903.21	18525
903.328	18483
903.446	18289
903.565	18372
903.683	18254
903.801	18064
903.919	18110
904.038	18068
904.156	18003
904.274	18007
904.392	17961
904.51	18064
904.627	17904
904.745	18106
904.863	18072
904.981	17718
905.098	17665
905.216	17695
905.334	17733
905.451	17668
905.569	17703
905.686	17661
905.803	17661
905.921	17417
906.038	17589
906.155	17497
906.272	17356
906.389	17326
906.506	17231
906.623	17242
906.74	17181
906.857	17151
906.974	17098
907.091	17212
907.208	17349
907.324	17197
907.441	17170
907.557	16908
907.674	16999
907.79	16812
907.907	16908
908.023	16965
908.139	16873
908.256	16847
908.372	16843
908.488	16774
908.604	16740
908.72	16580
908.836	16706
908.952	16603
909.068	16656
909.184	16721
909.3	16634
909.415	16668
909.531	16687
909.647	16474
909.762	16337
909.878	16344
909.993	16428
910.108	16299
910.224	16192
910.339	16268
910.454	16249
910.57	16196
910.685	16025
910.8	16405
910.915	16246
911.03	16181
911.145	15991
911.259	16048
911.374	15873
911.489	15899
911.604	15778
911.718	15705
911.833	15846
911.947	15618
912.062	15458
912.176	15724
912.291	15679
912.405	15698
912.519	15869
912.633	15991
912.748	15774
912.862	15675
912.976	15492
913.09	15408
913.204	15526
913.318	15538
913.431	15614
913.545	15496
913.659	15618
913.772	15568
913.886	15264
914	15344
914.113	15344
914.226	15424
914.34	15389
914.453	15222
914.566	15428
914.68	15241
914.793	15138
914.906	14918
915.019	14967
915.132	14895
915.245	14864
915.358	14990
915.47	14899
915.583	14914
915.696	14906
915.809	15085
915.921	15169
916.034	14842
916.146	14807
916.259	14731
916.371	14864
916.483	14830
916.595	14735
916.708	14670
916.82	14727
916.932	14724
917.044	14746
917.156	14693
917.268	14590
917.38	14583
917.491	14610
917.603	14613
917.715	14693
917.826	14575
917.938	14476
918.049	14503
918.161	14575
918.272	14727
918.384	14678
918.495	14552
918.606	14450
918.717	14332
918.828	14336
918.939	14415
919.05	14309
919.161	14294
919.272	14130
919.383	14164
919.494	14343
919.604	14590
919.715	14374
919.826	14221
919.936	14328
920.047	14396
920.157	14408
920.267	14469
920.378	14404
920.488	14355
920.598	14438
920.708	14655
920.818	14492
920.928	14461
921.038	14663
921.148	14495
921.258	14263
921.368	14168
921.477	14031
921.587	14084
921.697	14005
921.806	13993
921.916	13925
922.025	13757
922.134	13712
922.244	13597
922.353	13780
922.462	13624
922.571	13480
922.68	13365
922.789	13354
922.898	13365
923.007	13339
923.116	13377
923.224	13422
923.333	13301
923.442	13297
923.55	13217
923.659	13213
923.767	13156
923.876	13156
923.984	13129
924.092	13072
924.201	13198
924.309	13080
924.417	13103
924.525	13023
924.633	13019
924.741	13879
924.849	12844
924.956	12935
925.064	12772
925.172	12658
925.279	12776
925.387	12837
925.494	12821
925.602	12821
925.709	12795
925.816	12764
925.924	12665
926.031	12760
926.138	12738
926.245	12783
926.352	12662
926.459	12658
926.566	12875
926.673	12662
926.779	12570
926.886	12547
926.993	12403
927.099	12296
927.206	12270
927.312	12330
927.419	12410
927.525	12289
927.631	12407
927.737	12216
927.843	12175
927.95	12125
928.056	12148
928.162	12182
928.267	12243
928.373	12867
928.479	12209
928.585	11999
928.69	12121
928.796	12167
928.901	12049
929.007	11988
929.112	12011
929.218	11973
929.323	12022
929.428	11916
929.533	12064
929.638	11843
929.743	11897
929.848	11863
929.953	11901
930.058	11794
930.163	11547
930.267	11566
930.372	11691
930.477	11596
930.581	11779
930.685	11665
930.79	11528
930.894	11463
930.998	11440
931.103	11589
931.207	11261
931.311	11162
931.415	11033
931.519	10892
931.623	10889
