Data from test_V78500241_2268.txt Node
Date: Fri Mar 25 15:57:30 CST 2022
User: usil
Spectrometer: V785-0024
Trigger mode: 0
Integration Time (sec): 4.000000E-1
Scans to average: 1
Nonlinearity correction enabled: false
Boxcar width: 0
Storing dark spectrum: false
XAxis mode: Wavelengths
Number of Pixels in Spectrum: 1024
>>>>>Begin Spectral Data<<<<<
801.071	29296
801.214	29242
801.356	29052
801.499	28946
801.641	28972
801.783	28957
801.926	28873
802.068	29003
802.211	28847
802.353	28839
802.496	28626
802.638	28516
802.78	28607
802.923	28493
803.065	28519
803.208	28512
803.35	28580
803.492	28767
803.635	28824
803.777	28767
803.919	28942
804.061	29132
804.204	28862
804.346	28771
804.488	28729
804.63	28949
804.773	28892
804.915	28930
805.057	28965
805.199	28938
805.341	29025
805.483	28953
805.626	29102
805.768	28965
805.91	28938
806.052	29094
806.194	28885
806.336	29151
806.478	29018
806.62	29071
806.762	29315
806.904	29277
807.046	29551
807.188	29471
807.33	29566
807.472	29649
807.614	29398
807.756	29448
807.898	29398
808.04	29197
808.182	29307
808.324	29459
808.465	29406
808.607	29558
808.749	29733
808.891	29859
809.033	29996
809.174	29752
809.316	29684
809.458	29912
809.6	29649
809.741	29843
809.883	29927
810.025	30114
810.166	30018
810.308	30064
810.45	30030
810.591	29916
810.733	29847
810.875	29809
811.016	29859
811.158	29695
811.299	29912
811.441	29961
811.582	30003
811.724	29741
811.865	29718
812.007	29862
812.148	29889
812.29	29847
812.431	30110
812.573	30136
812.714	30353
812.855	30277
812.997	30384
813.138	30684
813.279	30429
813.421	30330
813.562	30281
813.703	30235
813.845	30011
813.986	29851
814.127	29684
814.268	29547
814.41	29558
814.551	29547
814.692	29615
814.833	29425
814.974	29505
815.115	29543
815.256	29383
815.397	29387
815.539	29220
815.68	29265
815.821	29406
815.962	29391
816.103	29334
816.244	29143
816.385	29090
816.526	29261
816.666	28839
816.807	28927
816.948	28938
817.089	28896
817.23	28892
817.371	28820
817.512	28888
817.653	28805
817.793	28748
817.934	28782
818.075	28805
818.216	28824
818.356	28824
818.497	28763
818.638	28580
818.778	28653
818.919	28675
819.06	28675
819.2	28755
819.341	28801
819.481	28854
819.622	29052
819.762	29261
819.903	29143
820.043	29018
820.184	29014
820.324	29006
820.465	29025
820.605	29086
820.746	28900
820.886	28786
821.026	28953
821.167	28892
821.307	28896
821.447	28942
821.588	28786
821.728	28679
821.868	28607
822.008	28367
822.149	28230
822.289	28318
822.429	28010
822.569	28207
822.709	27911
822.849	27930
822.99	27899
823.13	27808
823.27	27637
823.41	27641
823.55	27496
823.69	27713
823.83	27682
823.97	27743
824.11	27511
824.25	27462
824.389	27389
824.529	27515
824.669	27519
824.809	27644
824.949	27580
825.089	27469
825.228	27523
825.368	27363
825.508	27332
825.648	27427
825.787	27504
825.927	27561
826.067	27313
826.206	27405
826.346	27511
826.485	27378
826.625	27325
826.765	27545
826.904	27435
827.044	27264
827.183	27207
827.323	27142
827.462	27291
827.601	27085
827.741	27024
827.88	27119
828.02	27020
828.159	27203
828.298	27203
828.437	27089
828.577	27081
828.716	27180
828.855	27032
828.994	26773
829.134	26883
829.273	26830
829.412	26781
829.551	26659
829.69	26800
829.829	26796
829.968	26849
830.107	26880
830.246	26785
830.385	26606
830.524	26663
830.663	26541
830.802	26606
830.941	26412
831.08	26393
831.219	26446
831.357	26530
831.496	26689
831.635	26461
831.774	26351
831.913	26313
832.051	26199
832.19	26237
832.329	26115
832.467	26103
832.606	26115
832.744	25947
832.883	26138
833.022	25993
833.16	26065
833.299	26062
833.437	26058
833.576	26229
833.714	26218
833.852	26267
833.991	26206
834.129	26221
834.267	26237
834.406	26183
834.544	26229
834.682	26077
834.821	26050
834.959	26252
835.097	26016
835.235	26229
835.373	26145
835.511	26062
835.65	25902
835.788	25868
835.926	25807
836.064	25811
836.202	25674
836.34	25993
836.478	26058
836.615	26016
836.753	25974
836.891	25978
837.029	25955
837.167	25845
837.305	25761
837.443	25784
837.58	25734
837.718	25845
837.856	25845
837.993	25632
838.131	25856
838.269	25537
838.406	25662
838.544	25670
838.681	25358
838.819	25419
838.956	25225
839.094	25293
839.231	25187
839.369	25320
839.506	25712
839.643	25578
839.781	25209
839.918	25118
840.055	25107
840.193	25164
840.33	25137
840.467	25145
840.604	25213
840.742	25422
840.879	24878
841.016	25061
841.153	24932
841.29	25270
841.427	25152
841.564	25137
841.701	25042
841.838	25118
841.975	24958
842.112	25080
842.249	24905
842.385	25008
842.522	25038
842.659	25019
842.796	24810
842.933	24951
843.069	24734
843.206	24757
843.343	24951
843.479	24890
843.616	24791
843.752	24665
843.889	24772
844.025	24859
844.162	24623
844.298	24665
844.435	24658
844.571	24768
844.708	24608
844.844	24867
844.98	24757
845.117	24753
845.253	24700
845.389	24555
845.525	24475
845.661	24448
845.798	24372
845.934	24486
846.07	24163
846.206	24308
846.342	24547
846.478	24410
846.614	24273
846.75	23988
846.886	24171
847.022	24136
847.158	24121
847.294	24159
847.429	24254
847.565	24163
847.701	24357
847.837	23798
847.972	23783
848.108	23805
848.244	23855
848.379	23695
848.515	23619
848.65	23551
848.786	23653
848.921	23737
849.057	23813
849.192	23638
849.328	23509
849.463	23695
849.598	23619
849.734	23501
849.869	23410
850.004	23436
850.14	23509
850.275	23353
850.41	23391
850.545	23299
850.68	23581
850.815	23436
850.95	23509
851.085	23608
851.22	23596
851.355	23440
851.49	23444
851.625	23406
851.76	23417
851.895	23326
852.03	23349
852.165	23395
852.299	23406
852.434	23402
852.569	23497
852.703	23425
852.838	23421
852.973	23509
853.107	23421
853.242	23383
853.376	23318
853.511	23121
853.645	23216
853.78	23315
853.914	23231
854.048	23250
854.183	23136
854.317	23098
854.451	23349
854.585	23174
854.72	23315
854.854	23330
854.988	23181
855.122	23318
855.256	23067
855.39	23239
855.524	23269
855.658	23288
855.792	23280
855.926	23235
856.06	23334
856.194	23341
856.327	23277
856.461	23242
856.595	23250
856.729	23223
856.862	23402
856.996	23322
857.13	23341
857.263	23406
857.397	23353
857.53	23239
857.664	23345
857.797	23383
857.931	23303
858.064	23258
858.197	23360
858.331	23159
858.464	23136
858.597	23185
858.731	23193
858.864	23060
858.997	23318
859.13	23277
859.263	23220
859.396	23296
859.529	23216
859.662	23166
859.795	23151
859.928	23208
860.061	23414
860.194	23406
860.327	23463
860.46	23269
860.592	23334
860.725	23414
860.858	23315
860.99	23349
861.123	23261
861.256	23242
861.388	23341
861.521	23904
861.653	23037
861.786	23022
861.918	23022
862.05	23170
862.183	23269
862.315	23162
862.447	23117
862.58	23197
862.712	23052
862.844	22968
862.976	22976
863.108	23067
863.24	23448
863.372	22938
863.504	22850
863.636	22980
863.768	23067
863.9	22984
864.032	22858
864.164	22930
864.296	22934
864.428	23064
864.559	23136
864.691	23033
864.823	22934
864.954	22877
865.086	22862
865.217	22961
865.349	22721
865.48	22889
865.612	22866
865.743	23037
865.875	22866
866.006	22801
866.137	22869
866.269	22672
866.4	22881
866.531	22790
866.662	22740
866.793	22713
866.924	22664
867.055	22801
867.186	22831
867.317	22656
867.448	22710
867.579	22687
867.71	22550
867.841	22694
867.972	22706
868.103	22748
868.233	22702
868.364	22725
868.495	22927
868.625	22961
868.756	23079
868.886	22873
869.017	22938
869.147	23086
869.278	23056
869.408	22957
869.539	23041
869.669	23079
869.799	22968
869.929	23170
870.06	23102
870.19	23265
870.32	23341
870.45	23356
870.58	23372
870.71	23539
870.84	23421
870.97	23433
871.1	23387
871.23	23512
871.36	23558
871.489	23486
871.619	23577
871.749	23493
871.879	23680
872.008	23581
872.138	23619
872.267	23627
872.397	23429
872.526	23391
872.656	23387
872.785	23402
872.915	23608
873.044	23672
873.173	23619
873.303	23615
873.432	23551
873.561	23649
873.69	23646
873.819	23554
873.948	23722
874.077	23604
874.206	23490
874.335	23661
874.464	23615
874.593	23950
874.722	23783
874.851	23863
874.979	23760
875.108	23817
875.237	23783
875.365	23786
875.494	23737
875.623	23863
875.751	23634
875.88	23745
876.008	23950
876.136	23904
876.265	24182
876.393	24178
876.521	24209
876.65	24311
876.778	24224
876.906	24171
877.034	24209
877.162	24171
877.29	24117
877.418	24171
877.546	24110
877.674	24167
877.802	24133
877.93	24095
878.058	24224
878.185	24083
878.313	24159
878.441	24190
878.568	23893
878.696	24140
878.824	24068
878.951	24232
879.079	24300
879.206	24319
879.333	24342
879.461	24155
879.588	24163
879.715	24235
879.842	24380
879.97	24205
880.097	23916
880.224	23958
880.351	24022
880.478	23935
880.605	23851
880.732	23942
880.859	24258
880.986	23931
881.112	23950
881.239	23843
881.366	23851
881.493	23455
881.619	23589
881.746	23524
881.872	23554
881.999	23615
882.125	23452
882.252	23474
882.378	23379
882.505	23566
882.631	23231
882.757	23227
882.883	23273
883.01	23284
883.136	23113
883.262	23033
883.388	22919
883.514	23056
883.64	23102
883.766	23056
883.892	22904
884.018	22995
884.143	23109
884.269	23143
884.395	22839
884.52	22828
884.646	22927
884.772	22698
884.897	22557
885.023	22596
885.148	22919
885.274	22915
885.399	23029
885.524	22812
885.65	22824
885.775	22752
885.9	22820
886.025	22923
886.15	22820
886.275	22717
886.4	22729
886.525	22717
886.65	22649
886.775	22740
886.9	22809
887.025	22949
887.149	22675
887.274	22603
887.399	22519
887.523	22561
887.648	22394
887.773	22405
887.897	22653
888.021	22561
888.146	22348
888.27	22694
888.395	22577
888.519	22645
888.643	22542
888.767	22512
888.891	22493
889.015	22291
889.139	22462
889.263	22265
889.387	22443
889.511	22432
889.635	22394
889.759	22268
889.883	22280
890.006	22432
890.13	22344
890.254	22371
890.377	22246
890.501	22158
890.624	21941
890.748	22150
890.871	21941
890.995	22006
891.118	21835
891.241	21911
891.364	21854
891.488	21918
891.611	21850
891.734	21888
891.857	21968
891.98	21865
892.103	21998
892.226	21816
892.349	21770
892.471	21701
892.594	21842
892.717	21797
892.839	21762
892.962	21793
893.085	21762
893.207	21701
893.33	21644
893.452	21614
893.575	21720
893.697	21648
893.819	21869
893.941	21934
894.064	21903
894.186	21694
894.308	21759
894.43	21812
894.552	21808
894.674	21850
894.796	21599
894.918	21660
895.04	21739
895.161	21785
895.283	21629
895.405	21732
895.526	21705
895.648	21755
895.769	21580
895.891	21648
896.012	21766
896.134	21705
896.255	21736
896.376	21633
896.498	21724
896.619	21785
896.74	21789
896.861	21705
896.982	22036
897.103	22059
897.224	22013
897.345	21926
897.466	21899
897.587	21915
897.708	22055
897.828	21911
897.949	21835
898.07	21698
898.19	21835
898.311	21884
898.431	21850
898.552	21903
898.672	21876
898.792	21983
898.913	21903
899.033	21800
899.153	21743
899.273	21583
899.393	21660
899.513	21709
899.633	21587
899.753	21606
899.873	21545
899.993	21492
900.113	21534
900.232	21591
900.352	21515
900.472	21401
900.591	21382
900.711	21275
900.83	21313
900.95	21378
901.069	21359
901.189	21359
901.308	21047
901.427	20937
901.546	20979
901.665	20975
901.784	20921
901.904	20796
902.023	20758
902.141	20537
902.26	20385
902.379	20488
902.498	20480
902.617	20389
902.735	20530
902.854	20358
902.973	20263
903.091	20122
903.21	20046
903.328	20119
903.446	20126
903.565	19841
903.683	19761
903.801	19753
903.919	19742
904.038	19791
904.156	19651
904.274	19696
904.392	19616
904.51	19544
904.627	19635
904.745	19658
904.863	19594
904.981	19544
905.098	19308
905.216	19206
905.334	19388
905.451	19320
905.569	19259
905.686	19240
905.803	19232
905.921	19042
906.038	19164
906.155	19129
906.272	18951
906.389	18958
906.506	18814
906.623	18798
906.74	18837
906.857	18757
906.974	18650
907.091	18806
907.208	18810
907.324	18875
907.441	18627
907.557	18479
907.674	18536
907.79	18490
907.907	18471
908.023	18551
908.139	18460
908.256	18456
908.372	18437
908.488	18376
908.604	18205
908.72	18201
908.836	18167
908.952	18228
909.068	18216
909.184	18330
909.3	18304
909.415	18258
909.531	18167
909.647	17847
909.762	18003
909.878	17866
909.993	17805
910.108	17805
910.224	17813
910.339	17843
910.454	17691
910.57	17726
910.685	17592
910.8	17904
910.915	17828
911.03	17581
911.145	17566
911.259	17493
911.374	17505
911.489	17330
911.604	17391
911.718	17246
911.833	17109
911.947	17083
912.062	17117
912.176	17216
912.291	17258
912.405	17197
912.519	17433
912.633	17410
912.748	17170
912.862	17273
912.976	17136
913.09	16850
913.204	16976
913.318	16946
913.431	17109
913.545	17136
913.659	16953
913.772	16839
913.886	16771
914	16725
914.113	16866
914.226	16915
914.34	16744
914.453	16664
914.566	16778
914.68	16748
914.793	16645
914.906	16375
915.019	16287
915.132	16344
915.245	16379
915.358	16386
915.47	16367
915.583	16333
915.696	16356
915.809	16459
915.921	16363
916.034	16333
916.146	16238
916.259	16204
916.371	16417
916.483	16280
916.595	16234
916.708	16181
916.82	16226
916.932	16097
917.044	16112
917.156	16120
917.268	15975
917.38	15991
917.491	15964
917.603	15930
917.715	15987
917.826	16105
917.938	16044
918.049	15766
918.161	15918
918.272	16002
918.384	16059
918.495	15926
918.606	15755
918.717	15713
918.828	15717
918.939	15667
919.05	15629
919.161	15610
919.272	15488
919.383	15519
919.494	15686
919.604	15888
919.715	15595
919.826	15656
919.936	15618
920.047	15694
920.157	15629
920.267	15778
920.378	15709
920.488	15648
920.598	15808
920.708	15979
920.818	15705
920.928	15698
921.038	15975
921.148	15861
921.258	15622
921.368	15447
921.477	15355
921.587	15317
921.697	15150
921.806	15332
921.916	15176
922.025	15077
922.134	15017
922.244	15032
922.353	14960
922.462	14815
922.571	14659
922.68	14617
922.789	14552
922.898	14640
923.007	14526
923.116	14663
923.224	14568
923.333	14495
923.442	14514
923.55	14408
923.659	14530
923.767	14537
923.876	14362
923.984	14480
924.092	14275
924.201	14423
924.309	14309
924.417	14278
924.525	14286
924.633	14282
924.741	15013
924.849	14039
924.956	14176
925.064	13936
925.172	14005
925.279	13898
925.387	14012
925.494	13970
925.602	13993
925.709	14077
925.816	13932
925.924	13913
926.031	13993
926.138	13921
926.245	13909
926.352	13852
926.459	13913
926.566	14039
926.673	13757
926.779	13655
926.886	13651
926.993	13499
927.099	13537
927.206	13426
927.312	13415
927.419	13499
927.525	13540
927.631	13472
927.737	13297
927.843	13289
927.95	13194
928.056	13365
928.162	13278
928.267	13358
928.373	13898
928.479	13346
928.585	13202
928.69	13365
928.796	13244
928.901	13065
929.007	13065
929.112	13190
929.218	13023
929.323	12981
929.428	12916
929.533	13084
929.638	12875
929.743	12954
929.848	12943
929.953	12909
930.058	12791
930.163	12639
930.267	12703
930.372	12791
930.477	12589
930.581	12844
930.685	12719
930.79	12593
930.894	12498
930.998	12525
931.103	12681
931.207	12224
931.311	12129
931.415	12102
931.519	11878
931.623	11904
