Data from test_V78500241_2836.txt Node
Date: Fri Mar 25 16:01:26 CST 2022
User: usil
Spectrometer: V785-0024
Trigger mode: 0
Integration Time (sec): 4.000000E-1
Scans to average: 1
Nonlinearity correction enabled: false
Boxcar width: 0
Storing dark spectrum: false
XAxis mode: Wavelengths
Number of Pixels in Spectrum: 1024
>>>>>Begin Spectral Data<<<<<
801.071	28987
801.214	29128
801.356	28801
801.499	28774
801.641	28713
801.783	28630
801.926	28615
802.068	28630
802.211	28516
802.353	28462
802.496	28363
802.638	28325
802.78	28322
802.923	28234
803.065	28181
803.208	28112
803.35	28344
803.492	28367
803.635	28493
803.777	28569
803.919	28504
804.061	28740
804.204	28500
804.346	28478
804.488	28512
804.63	28599
804.773	28489
804.915	28649
805.057	28660
805.199	28535
805.341	28561
805.483	28797
805.626	28675
805.768	28664
805.91	28736
806.052	28706
806.194	28649
806.336	28797
806.478	28675
806.62	28694
806.762	29025
806.904	28934
807.046	29284
807.188	29071
807.33	29258
807.472	29200
807.614	29220
807.756	29220
807.898	29105
808.04	29105
808.182	28999
808.324	29136
808.465	29246
808.607	29334
808.749	29410
808.891	29474
809.033	29630
809.174	29474
809.316	29452
809.458	29436
809.6	29482
809.741	29505
809.883	29699
810.025	29767
810.166	29707
810.308	29817
810.45	29756
810.591	29573
810.733	29417
810.875	29463
811.016	29311
811.158	29345
811.299	29448
811.441	29520
811.582	29653
811.724	29433
811.865	29387
812.007	29482
812.148	29444
812.29	29596
812.431	29547
812.573	29775
812.714	29916
812.855	29950
812.997	30159
813.138	30281
813.279	30152
813.421	30190
813.562	30060
813.703	29828
813.845	29695
813.986	29440
814.127	29231
814.268	29231
814.41	29151
814.551	29185
814.692	29140
814.833	29048
814.974	29197
815.115	29109
815.256	28999
815.397	29037
815.539	29048
815.68	29044
815.821	28911
815.962	29029
816.103	29018
816.244	28862
816.385	28755
816.526	28740
816.666	28554
816.807	28474
816.948	28519
817.089	28649
817.23	28588
817.371	28599
817.512	28432
817.653	28386
817.793	28447
817.934	28523
818.075	28493
818.216	28535
818.356	28508
818.497	28253
818.638	28287
818.778	28249
818.919	28238
819.06	28318
819.2	28299
819.341	28466
819.481	28550
819.622	28729
819.762	28972
819.903	28721
820.043	28736
820.184	28653
820.324	28504
820.465	28759
820.605	28698
820.746	28584
820.886	28348
821.026	28493
821.167	28664
821.307	28588
821.447	28489
821.588	28451
821.728	28409
821.868	28253
822.008	28029
822.149	27987
822.289	28029
822.429	27656
822.569	27713
822.709	27720
822.849	27610
822.99	27416
823.13	27462
823.27	27564
823.41	27260
823.55	27085
823.69	27260
823.83	27313
823.97	27233
824.11	27017
824.25	27077
824.389	27112
824.529	27256
824.669	27306
824.809	27260
824.949	27165
825.089	27180
825.228	27176
825.368	27127
825.508	27089
825.648	27104
825.787	27112
825.927	27188
826.067	27093
826.206	26990
826.346	27096
826.485	27142
826.625	27055
826.765	27222
826.904	27127
827.044	26872
827.183	26773
827.323	26686
827.462	26834
827.601	26735
827.741	26785
827.88	26781
828.02	26636
828.159	26708
828.298	26819
828.437	26731
828.577	26598
828.716	26845
828.855	26686
828.994	26518
829.134	26438
829.273	26518
829.412	26290
829.551	26362
829.69	26370
829.829	26480
829.968	26583
830.107	26594
830.246	26336
830.385	26313
830.524	26351
830.663	26240
830.802	26233
830.941	26062
831.08	25963
831.219	26107
831.357	26164
831.496	26237
831.635	26031
831.774	25966
831.913	25925
832.051	25871
832.19	25849
832.329	25803
832.467	25685
832.606	25715
832.744	25693
832.883	25742
833.022	25674
833.16	25708
833.299	25852
833.437	25811
833.576	25833
833.714	25875
833.852	25917
833.991	25772
834.129	25864
834.267	25856
834.406	25639
834.544	25677
834.682	25814
834.821	25635
834.959	26031
835.097	25723
835.235	25887
835.373	25845
835.511	25784
835.65	25582
835.788	25700
835.926	25434
836.064	25506
836.202	25411
836.34	25529
836.478	25712
836.615	25658
836.753	25704
836.891	25666
837.029	25613
837.167	25521
837.305	25620
837.443	25438
837.58	25388
837.718	25487
837.856	25384
837.993	25320
838.131	25438
838.269	25369
838.406	25255
838.544	25225
838.681	25084
838.819	25099
838.956	24886
839.094	24730
839.231	25019
839.369	25141
839.506	25194
839.643	25183
839.781	24909
839.918	24859
840.055	24920
840.193	24943
840.33	24764
840.467	24920
840.604	24859
840.742	25225
840.879	24715
841.016	24760
841.153	24726
841.29	25004
841.427	24894
841.564	24791
841.701	24734
841.838	24726
841.975	24521
842.112	24722
842.249	24856
842.385	24505
842.522	24738
842.659	24635
842.796	24532
842.933	24559
843.069	24452
843.206	24452
843.343	24612
843.479	24589
843.616	24544
843.752	24509
843.889	24361
844.025	24559
844.162	24281
844.298	24342
844.435	24399
844.571	24232
844.708	24232
844.844	24585
844.98	24475
845.117	24350
845.253	24334
845.389	24182
845.525	24209
845.661	24201
845.798	24083
845.934	24197
846.07	23996
846.206	23931
846.342	24144
846.478	24079
846.614	23878
846.75	23642
846.886	23783
847.022	23958
847.158	23847
847.294	23798
847.429	23893
847.565	23649
847.701	24057
847.837	23551
847.972	23395
848.108	23581
848.244	23482
848.379	23330
848.515	23478
848.65	23315
848.786	23326
848.921	23410
849.057	23452
849.192	23296
849.328	23497
849.463	23337
849.598	23337
849.734	23193
849.869	23223
850.004	23212
850.14	23200
850.275	23185
850.41	23071
850.545	23102
850.68	23037
850.815	23121
850.95	23212
851.085	23360
851.22	23261
851.355	23094
851.49	23193
851.625	23075
851.76	22987
851.895	23128
852.03	23193
852.165	23216
852.299	23162
852.434	23227
852.569	23166
852.703	23174
852.838	23140
852.973	23147
853.107	23250
853.242	23025
853.376	22911
853.511	22911
853.645	22938
853.78	23003
853.914	22889
854.048	22744
854.183	22934
854.317	22949
854.451	23071
854.585	22999
854.72	22892
854.854	23029
854.988	22915
855.122	22805
855.256	22858
855.39	22915
855.524	23124
855.658	22930
855.792	22915
855.926	22965
856.06	22930
856.194	23071
856.327	22915
856.461	22877
856.595	22854
856.729	22919
856.862	23033
856.996	22953
857.13	23010
857.263	23147
857.397	23003
857.53	22953
857.664	22953
857.797	22915
857.931	23094
858.064	22923
858.197	23113
858.331	22919
858.464	22801
858.597	22847
858.731	22835
858.864	22797
858.997	22911
859.13	22980
859.263	22999
859.396	22965
859.529	22927
859.662	22805
859.795	22911
859.928	22866
860.061	23102
860.194	23147
860.327	23003
860.46	22900
860.592	23159
860.725	23044
860.858	23132
860.99	22877
861.123	22816
861.256	22778
861.388	23090
861.521	23623
861.653	22835
861.786	22721
861.918	22767
862.05	22828
862.183	22889
862.315	22911
862.447	22873
862.58	22782
862.712	22740
862.844	22653
862.976	22744
863.108	22759
863.24	23132
863.372	22584
863.504	22759
863.636	22596
863.768	22664
863.9	22618
864.032	22588
864.164	22664
864.296	22634
864.428	22710
864.559	22626
864.691	22649
864.823	22611
864.954	22561
865.086	22607
865.217	22508
865.349	22493
865.48	22390
865.612	22405
865.743	22660
865.875	22508
866.006	22462
866.137	22550
866.269	22569
866.4	22481
866.531	22440
866.662	22394
866.793	22341
866.924	22459
867.055	22462
867.186	22500
867.317	22413
867.448	22238
867.579	22310
867.71	22394
867.841	22337
867.972	22451
868.103	22409
868.233	22402
868.364	22554
868.495	22527
868.625	22618
868.756	22717
868.886	22599
869.017	22672
869.147	22752
869.278	22820
869.408	22641
869.539	22577
869.669	22778
869.799	22618
869.929	22653
870.06	22847
870.19	23052
870.32	22961
870.45	22972
870.58	23064
870.71	23216
870.84	23117
870.97	23018
871.1	22938
871.23	23273
871.36	23147
871.489	23147
871.619	23151
871.749	23204
871.879	23292
872.008	23239
872.138	23239
872.267	23258
872.397	23128
872.526	23109
872.656	23044
872.785	23105
872.915	23318
873.044	23330
873.173	23322
873.303	23417
873.432	23444
873.561	23349
873.69	23349
873.819	23318
873.948	23379
874.077	23292
874.206	23303
874.335	23318
874.464	23341
874.593	23600
874.722	23490
874.851	23528
874.979	23516
875.108	23596
875.237	23406
875.365	23372
875.494	23364
875.623	23570
875.751	23452
875.88	23600
876.008	23551
876.136	23604
876.265	23836
876.393	24079
876.521	23885
876.65	23878
876.778	23912
876.906	23832
877.034	23882
877.162	23817
877.29	23885
877.418	23897
877.546	23798
877.674	23855
877.802	23912
877.93	23798
878.058	23779
878.185	23760
878.313	23866
878.441	23847
878.568	23539
878.696	23729
878.824	23741
878.951	23882
879.079	24041
879.206	24133
879.333	23901
879.461	23809
879.588	24083
879.715	23916
879.842	24171
879.97	23840
880.097	23726
880.224	23695
880.351	23756
880.478	23604
880.605	23573
880.732	23619
880.859	23775
880.986	23665
881.112	23630
881.239	23425
881.366	23353
881.493	23334
881.619	23212
881.746	23254
881.872	23318
881.999	23258
882.125	23102
882.252	23250
882.378	23193
882.505	23284
882.631	22999
882.757	22866
882.883	22930
883.01	22881
883.136	22809
883.262	22736
883.388	22717
883.514	22873
883.64	22949
883.766	22866
883.892	22584
884.018	22698
884.143	22949
884.269	22816
884.395	22561
884.52	22485
884.646	22531
884.772	22402
884.897	22386
885.023	22489
885.148	22637
885.274	22694
885.399	22497
885.524	22466
885.65	22565
885.775	22523
885.9	22417
886.025	22615
886.15	22580
886.275	22497
886.4	22440
886.525	22428
886.65	22497
886.775	22417
886.9	22660
887.025	22622
887.149	22531
887.274	22394
887.399	22310
887.523	22173
887.648	22177
887.773	22211
887.897	22341
888.021	22287
888.146	22215
888.27	22348
888.395	22333
888.519	22253
888.643	22242
888.767	22402
888.891	22265
889.015	22097
889.139	22181
889.263	21998
889.387	22124
889.511	22276
889.635	22143
889.759	21975
889.883	22036
890.006	22044
890.13	22070
890.254	22059
890.377	21850
890.501	21701
890.624	21686
890.748	21644
890.871	21644
890.995	21488
891.118	21545
891.241	21690
891.364	21568
891.488	21781
891.611	21553
891.734	21637
891.857	21580
891.98	21553
892.103	21580
892.226	21591
892.349	21561
892.471	21389
892.594	21488
892.717	21530
892.839	21519
892.962	21526
893.085	21580
893.207	21458
893.33	21298
893.452	21374
893.575	21523
893.697	21405
893.819	21591
893.941	21682
894.064	21561
894.186	21454
894.308	21329
894.43	21679
894.552	21686
894.674	21580
894.796	21332
894.918	21431
895.04	21469
895.161	21545
895.283	21682
895.405	21283
895.526	21462
895.648	21382
895.769	21462
895.891	21424
896.012	21542
896.134	21454
896.255	21420
896.376	21355
896.498	21538
896.619	21431
896.74	21393
896.861	21481
896.982	21644
897.103	21888
897.224	21713
897.345	21591
897.466	21507
897.587	21667
897.708	21739
897.828	21542
897.949	21530
898.07	21454
898.19	21637
898.311	21504
898.431	21648
898.552	21553
898.672	21644
898.792	21762
898.913	21553
899.033	21439
899.153	21367
899.273	21321
899.393	21412
899.513	21306
899.633	21340
899.753	21283
899.873	21226
899.993	21488
900.113	21249
900.232	21165
900.352	21291
900.472	21108
900.591	21085
900.711	21184
900.83	21176
900.95	21150
901.069	21123
901.189	20994
901.308	20781
901.427	20629
901.546	20731
901.665	20697
901.784	20716
901.904	20514
902.023	20446
902.141	20229
902.26	20195
902.379	20275
902.498	20081
902.617	20145
902.735	20199
902.854	20100
902.973	20069
903.091	19879
903.21	19750
903.328	19883
903.446	19776
903.565	19704
903.683	19635
903.801	19552
903.919	19559
904.038	19499
904.156	19362
904.274	19464
904.392	19400
904.51	19331
904.627	19346
904.745	19362
904.863	19343
904.981	19179
905.098	19084
905.216	19004
905.334	18977
905.451	19126
905.569	19019
905.686	18958
905.803	19076
905.921	18791
906.038	18871
906.155	18821
906.272	18802
906.389	18772
906.506	18578
906.623	18582
906.74	18486
906.857	18456
906.974	18441
907.091	18574
907.208	18696
907.324	18661
907.441	18536
907.557	18273
907.674	18327
907.79	18220
907.907	18380
908.023	18251
908.139	18277
908.256	18228
908.372	18171
908.488	18167
908.604	17961
908.72	17931
908.836	18026
908.952	17942
909.068	18057
909.184	18053
909.3	18007
909.415	18007
909.531	17904
909.647	17760
909.762	17680
909.878	17809
909.993	17710
910.108	17748
910.224	17543
910.339	17718
910.454	17482
910.57	17547
910.685	17398
910.8	17707
910.915	17703
911.03	17452
911.145	17261
911.259	17166
911.374	17277
911.489	17254
911.604	17018
911.718	16991
911.833	17086
911.947	16984
912.062	16774
912.176	17025
912.291	17060
912.405	17029
912.519	17185
912.633	17132
912.748	16938
912.862	16961
912.976	16816
913.09	16706
913.204	16778
913.318	16774
913.431	16889
913.545	16927
913.659	16843
913.772	16801
913.886	16668
914	16531
914.113	16649
914.226	16725
914.34	16603
914.453	16516
914.566	16649
914.68	16462
914.793	16474
914.906	16246
915.019	16230
915.132	16101
915.245	16173
915.358	16150
915.47	16158
915.583	16131
915.696	16139
915.809	16204
915.921	16246
916.034	16093
916.146	15968
916.259	16040
916.371	16181
916.483	16067
916.595	15960
916.708	15899
916.82	15953
916.932	15865
917.044	16002
917.156	15941
917.268	15762
917.38	15812
917.491	15736
917.603	15831
917.715	15808
917.826	15888
917.938	15618
918.049	15557
918.161	15736
918.272	15880
918.384	15747
918.495	15663
918.606	15542
918.717	15416
918.828	15507
918.939	15492
919.05	15382
919.161	15378
919.272	15192
919.383	15401
919.494	15466
919.604	15759
919.715	15424
919.826	15310
919.936	15462
920.047	15443
920.157	15439
920.267	15523
920.378	15447
920.488	15466
920.598	15511
920.708	15717
920.818	15454
920.928	15584
921.038	15751
921.148	15648
921.258	15378
921.368	15317
921.477	15184
921.587	15154
921.697	15097
921.806	15104
921.916	15009
922.025	14834
922.134	14823
922.244	14712
922.353	14819
922.462	14701
922.571	14667
922.68	14533
922.789	14454
922.898	14541
923.007	14400
923.116	14438
923.224	14393
923.333	14438
923.442	14237
923.55	14381
923.659	14301
923.767	14298
923.876	14221
923.984	14233
924.092	14069
924.201	14278
924.309	14180
924.417	14111
924.525	14088
924.633	14134
924.741	15001
924.849	13849
924.956	13993
925.064	13898
925.172	13860
925.279	13738
925.387	13833
925.494	13807
925.602	13883
925.709	13868
925.816	13666
925.924	13628
926.031	13658
926.138	13746
926.245	13784
926.352	13613
926.459	13731
926.566	13769
926.673	13529
926.779	13559
926.886	13480
926.993	13430
927.099	13381
927.206	13312
927.312	13335
927.419	13331
927.525	13304
927.631	13316
927.737	13259
927.843	13145
927.95	13107
928.056	13149
928.162	13149
928.267	13236
928.373	13734
928.479	13179
928.585	13023
928.69	13107
928.796	13126
928.901	13050
929.007	12726
929.112	12989
929.218	12928
929.323	12871
929.428	12844
929.533	12962
929.638	12734
929.743	12703
929.848	12825
929.953	12787
930.058	12684
930.163	12536
930.267	12490
930.372	12589
930.477	12460
930.581	12601
930.685	12604
930.79	12372
930.894	12486
930.998	12319
931.103	12445
931.207	12194
931.311	11980
931.415	11950
931.519	11805
931.623	11775
