Data from test_V78500241_2745.txt Node
Date: Fri Mar 25 16:00:48 CST 2022
User: usil
Spectrometer: V785-0024
Trigger mode: 0
Integration Time (sec): 4.000000E-1
Scans to average: 1
Nonlinearity correction enabled: false
Boxcar width: 0
Storing dark spectrum: false
XAxis mode: Wavelengths
Number of Pixels in Spectrum: 1024
>>>>>Begin Spectral Data<<<<<
801.071	28436
801.214	28382
801.356	28169
801.499	28150
801.641	27979
801.783	28101
801.926	28086
802.068	27983
802.211	27983
802.353	27911
802.496	27785
802.638	27656
802.78	27633
802.923	27682
803.065	27545
803.208	27614
803.35	27603
803.492	27827
803.635	27907
803.777	27823
803.919	27793
804.061	28246
804.204	27945
804.346	27918
804.488	27823
804.63	27964
804.773	27835
804.915	27983
805.057	28112
805.199	27876
805.341	27941
805.483	28067
805.626	27991
805.768	28006
805.91	27922
806.052	27983
806.194	27937
806.336	28154
806.478	28143
806.62	28158
806.762	28257
806.904	28436
807.046	28462
807.188	28432
807.33	28523
807.472	28546
807.614	28580
807.756	28413
807.898	28200
808.04	28390
808.182	28371
808.324	28314
808.465	28409
808.607	28508
808.749	28843
808.891	28736
809.033	28828
809.174	28721
809.316	28729
809.458	28774
809.6	28691
809.741	28744
809.883	28786
810.025	29003
810.166	28991
810.308	29003
810.45	29006
810.591	28858
810.733	28771
810.875	28752
811.016	28634
811.158	28664
811.299	28816
811.441	28778
811.582	28984
811.724	28649
811.865	28649
812.007	28679
812.148	28702
812.29	28744
812.431	29022
812.573	29014
812.714	29075
812.855	29200
812.997	29242
813.138	29425
813.279	29440
813.421	29315
813.562	29227
813.703	29067
813.845	29014
813.986	28679
814.127	28508
814.268	28462
814.41	28489
814.551	28428
814.692	28481
814.833	28512
814.974	28352
815.115	28500
815.256	28337
815.397	28238
815.539	28363
815.68	28280
815.821	28013
815.962	28375
816.103	28246
816.244	28074
816.385	28086
816.526	27972
816.666	27747
816.807	27724
816.948	27759
817.089	27941
817.23	27861
817.371	27759
817.512	27652
817.653	27679
817.793	27793
817.934	27660
818.075	27793
818.216	27614
818.356	27701
818.497	27724
818.638	27477
818.778	27420
818.919	27496
819.06	27572
819.2	27507
819.341	27728
819.481	27717
819.622	27930
819.762	28101
819.903	27937
820.043	27861
820.184	27857
820.324	27899
820.465	27842
820.605	27926
820.746	27873
820.886	27759
821.026	27694
821.167	27652
821.307	27945
821.447	27804
821.588	27610
821.728	27462
821.868	27214
822.008	27283
822.149	27233
822.289	27237
822.429	26975
822.569	26853
822.709	26921
822.849	26880
822.99	26708
823.13	26678
823.27	26632
823.41	26495
823.55	26427
823.69	26659
823.83	26621
823.97	26465
824.11	26381
824.25	26366
824.389	26244
824.529	26370
824.669	26442
824.809	26389
824.949	26396
825.089	26431
825.228	26419
825.368	26259
825.508	26176
825.648	26294
825.787	26282
825.927	26374
826.067	26183
826.206	26145
826.346	26355
826.485	26317
826.625	26309
826.765	26362
826.904	26305
827.044	26005
827.183	25959
827.323	25928
827.462	26054
827.601	26069
827.741	25940
827.88	26100
828.02	25765
828.159	25940
828.298	26103
828.437	25970
828.577	25841
828.716	25944
828.855	25921
828.994	25712
829.134	25556
829.273	25788
829.412	25613
829.551	25605
829.69	25483
829.829	25674
829.968	25681
830.107	25677
830.246	25727
830.385	25712
830.524	25533
830.663	25464
830.802	25396
830.941	25339
831.08	25198
831.219	25346
831.357	25312
831.496	25544
831.635	25236
831.774	25141
831.913	25107
832.051	25148
832.19	25015
832.329	25027
832.467	25061
832.606	24852
832.744	24882
832.883	24840
833.022	24867
833.16	24989
833.299	25019
833.437	24863
833.576	25008
833.714	24989
833.852	25034
833.991	25110
834.129	25152
834.267	25099
834.406	24947
834.544	24878
834.682	25050
834.821	24939
834.959	25122
835.097	24840
835.235	24985
835.373	24924
835.511	24840
835.65	24856
835.788	24760
835.926	24741
836.064	24726
836.202	24665
836.34	24894
836.478	24852
836.615	24825
836.753	24795
836.891	24787
837.029	24776
837.167	24711
837.305	24688
837.443	24646
837.58	24612
837.718	24692
837.856	24509
837.993	24623
838.131	24517
838.269	24517
838.406	24521
838.544	24410
838.681	24258
838.819	24076
838.956	24102
839.094	24045
839.231	24136
839.369	24136
839.506	24498
839.643	24372
839.781	24060
839.918	23961
840.055	24110
840.193	24136
840.33	24114
840.467	24076
840.604	24041
840.742	24258
840.879	23988
841.016	23851
841.153	23809
841.29	24026
841.427	24053
841.564	24068
841.701	23969
841.838	23999
841.975	23882
842.112	23901
842.249	23897
842.385	23729
842.522	23999
842.659	23828
842.796	23813
842.933	23889
843.069	23566
843.206	23638
843.343	23840
843.479	23707
843.616	23771
843.752	23608
843.889	23642
844.025	23668
844.162	23589
844.298	23600
844.435	23570
844.571	23566
844.708	23524
844.844	23668
844.98	23764
845.117	23604
845.253	23463
845.389	23474
845.525	23402
845.661	23402
845.798	23246
845.934	23410
846.07	23322
846.206	23436
846.342	23501
846.478	23356
846.614	23094
846.75	22942
846.886	23025
847.022	23014
847.158	23044
847.294	23071
847.429	22972
847.565	22949
847.701	23246
847.837	22782
847.972	22687
848.108	22911
848.244	22668
848.379	22717
848.515	22752
848.65	22611
848.786	22634
848.921	22649
849.057	22702
849.192	22694
849.328	22512
849.463	22599
849.598	22508
849.734	22443
849.869	22402
850.004	22443
850.14	22428
850.275	22310
850.41	22295
850.545	22314
850.68	22466
850.815	22394
850.95	22352
851.085	22413
851.22	22493
851.355	22474
851.49	22329
851.625	22284
851.76	22356
851.895	22344
852.03	22287
852.165	22314
852.299	22322
852.434	22481
852.569	22451
852.703	22287
852.838	22379
852.973	22462
853.107	22493
853.242	22329
853.376	22112
853.511	22090
853.645	22086
853.78	22310
853.914	22048
854.048	22124
854.183	22135
854.317	22131
854.451	22348
854.585	22261
854.72	22242
854.854	22322
854.988	22131
855.122	22112
855.256	22006
855.39	22166
855.524	22379
855.658	22147
855.792	22147
855.926	22253
856.06	22097
856.194	22143
856.327	22109
856.461	22158
856.595	22287
856.729	22173
856.862	22284
856.996	22112
857.13	22200
857.263	22173
857.397	22295
857.53	22234
857.664	22261
857.797	22295
857.931	22303
858.064	22147
858.197	22257
858.331	22158
858.464	22154
858.597	22040
858.731	22093
858.864	22143
858.997	22242
859.13	22196
859.263	22249
859.396	22211
859.529	22162
859.662	22169
859.795	22074
859.928	22101
860.061	22371
860.194	22371
860.327	22246
860.46	22112
860.592	22272
860.725	22238
860.858	22306
860.99	22261
861.123	22147
861.256	22120
861.388	22192
861.521	22919
861.653	21987
861.786	21819
861.918	21895
862.05	22051
862.183	22036
862.315	22135
862.447	22082
862.58	21991
862.712	21987
862.844	21907
862.976	21922
863.108	21979
863.24	22379
863.372	21895
863.504	21831
863.636	21918
863.768	21911
863.9	21892
864.032	21846
864.164	21804
864.296	21979
864.428	21983
864.559	21941
864.691	21880
864.823	21880
864.954	21850
865.086	21785
865.217	21842
865.349	21641
865.48	21831
865.612	21880
865.743	21876
865.875	21804
866.006	21778
866.137	21816
866.269	21831
866.4	21705
866.531	21869
866.662	21656
866.793	21713
866.924	21622
867.055	21694
867.186	21804
867.317	21667
867.448	21583
867.579	21747
867.71	21644
867.841	21686
867.972	21789
868.103	21663
868.233	21793
868.364	21701
868.495	21728
868.625	21850
868.756	22025
868.886	21869
869.017	21827
869.147	21994
869.278	21873
869.408	21979
869.539	21899
869.669	22032
869.799	21880
869.929	22048
870.06	21983
870.19	22139
870.32	22204
870.45	22200
870.58	22329
870.71	22428
870.84	22405
870.97	22352
871.1	22322
871.23	22466
871.36	22561
871.489	22402
871.619	22451
871.749	22500
871.879	22565
872.008	22683
872.138	22535
872.267	22611
872.397	22485
872.526	22242
872.656	22375
872.785	22371
872.915	22497
873.044	22611
873.173	22569
873.303	22523
873.432	22508
873.561	22687
873.69	22622
873.819	22580
873.948	22550
874.077	22759
874.206	22500
874.335	22516
874.464	22660
874.593	22771
874.722	22740
874.851	22839
874.979	22816
875.108	22687
875.237	22782
875.365	22691
875.494	22687
875.623	22915
875.751	22801
875.88	22721
876.008	22790
876.136	22942
876.265	23136
876.393	23288
876.521	23410
876.65	23227
876.778	23159
876.906	23140
877.034	23128
877.162	23067
877.29	23117
877.418	23060
877.546	23174
877.674	23174
877.802	23124
877.93	23136
878.058	23090
878.185	23018
878.313	23143
878.441	23170
878.568	22873
878.696	23006
878.824	23220
878.951	23128
879.079	23341
879.206	23410
879.333	23231
879.461	23277
879.588	23239
879.715	23307
879.842	23372
879.97	23322
880.097	22938
880.224	22965
880.351	22889
880.478	22953
880.605	23033
880.732	22862
880.859	23197
880.986	23006
881.112	23003
881.239	22736
881.366	22729
881.493	22519
881.619	22542
881.746	22519
881.872	22554
881.999	22417
882.125	22485
882.252	22557
882.378	22375
882.505	22577
882.631	22402
882.757	22158
882.883	22226
883.01	22211
883.136	22204
883.262	22010
883.388	21994
883.514	22128
883.64	22253
883.766	22147
883.892	22070
884.018	21869
884.143	22154
884.269	22169
884.395	21975
884.52	21899
884.646	21823
884.772	21682
884.897	21549
885.023	21755
885.148	21884
885.274	22017
885.399	21861
885.524	21827
885.65	21972
885.775	21884
885.9	21766
886.025	21964
886.15	21979
886.275	21618
886.4	21698
886.525	21739
886.65	21762
886.775	21709
886.9	21975
887.025	21918
887.149	21755
887.274	21599
887.399	21610
887.523	21660
887.648	21553
887.773	21412
887.897	21675
888.021	21663
888.146	21568
888.27	21686
888.395	21648
888.519	21587
888.643	21648
888.767	21599
888.891	21488
889.015	21431
889.139	21428
889.263	21412
889.387	21572
889.511	21564
889.635	21534
889.759	21408
889.883	21359
890.006	21386
890.13	21378
890.254	21370
890.377	21218
890.501	21093
890.624	21100
890.748	21142
890.871	20998
890.995	20887
891.118	20819
891.241	20925
891.364	21051
891.488	21138
891.611	21039
891.734	20914
891.857	20963
891.98	20910
892.103	20941
892.226	20883
892.349	20876
892.471	20815
892.594	20925
892.717	20914
892.839	20712
892.962	20746
893.085	20967
893.207	20826
893.33	20765
893.452	20602
893.575	20861
893.697	20758
893.819	20967
893.941	20971
894.064	20899
894.186	20727
894.308	20762
894.43	20925
894.552	20960
894.674	20872
894.796	20762
894.918	20625
895.04	20845
895.161	20891
895.283	20849
895.405	20815
895.526	20823
895.648	20754
895.769	20781
895.891	20804
896.012	20944
896.134	20872
896.255	20921
896.376	20796
896.498	20830
896.619	20864
896.74	20777
896.861	20880
896.982	21150
897.103	21260
897.224	21074
897.345	21005
897.466	20937
897.587	21070
897.708	21161
897.828	21089
897.949	20857
898.07	20845
898.19	20952
898.311	21131
898.431	20960
898.552	21070
898.672	21043
898.792	21047
898.913	21043
899.033	20929
899.153	20807
899.273	20712
899.393	20796
899.513	20769
899.633	20743
899.753	20792
899.873	20579
899.993	20815
900.113	20762
900.232	20739
900.352	20640
900.472	20621
900.591	20431
900.711	20484
900.83	20507
900.95	20537
901.069	20568
901.189	20278
901.308	20244
901.427	20096
901.546	20035
901.665	20134
901.784	20233
901.904	20012
902.023	19849
902.141	19723
902.26	19613
902.379	19605
902.498	19575
902.617	19575
902.735	19632
902.854	19556
902.973	19620
903.091	19263
903.21	19221
903.328	19324
903.446	19168
903.565	19065
903.683	19080
903.801	18829
903.919	19031
904.038	18939
904.156	18890
904.274	18928
904.392	18882
904.51	18840
904.627	18837
904.745	18878
904.863	18814
904.981	18623
905.098	18452
905.216	18475
905.334	18445
905.451	18521
905.569	18490
905.686	18494
905.803	18532
905.921	18273
906.038	18422
906.155	18346
906.272	18186
906.389	18224
906.506	18110
906.623	18038
906.74	17958
906.857	17889
906.974	17958
907.091	18041
907.208	18030
907.324	18072
907.441	17942
907.557	17786
907.674	17649
907.79	17608
907.907	17729
908.023	17745
908.139	17699
908.256	17638
908.372	17516
908.488	17608
908.604	17543
908.72	17417
908.836	17573
908.952	17360
909.068	17463
909.184	17554
909.3	17471
909.415	17417
909.531	17349
909.647	17246
909.762	17140
909.878	17109
909.993	17132
910.108	17212
910.224	17083
910.339	17102
910.454	16904
910.57	17010
910.685	16850
910.8	17147
910.915	17086
911.03	16915
911.145	16729
911.259	16694
911.374	16611
911.489	16622
911.604	16615
911.718	16462
911.833	16470
911.947	16459
912.062	16272
912.176	16421
912.291	16478
912.405	16443
912.519	16596
912.633	16698
912.748	16485
912.862	16493
912.976	16253
913.09	16188
913.204	16337
913.318	16322
913.431	16466
913.545	16291
913.659	16356
913.772	16303
913.886	16078
914	16067
914.113	16074
914.226	16185
914.34	16082
914.453	15937
914.566	16192
914.68	15937
914.793	15937
914.906	15660
915.019	15679
915.132	15629
915.245	15652
915.358	15553
915.47	15682
915.583	15614
915.696	15644
915.809	15720
915.921	15789
916.034	15637
916.146	15428
916.259	15428
916.371	15587
916.483	15500
916.595	15504
916.708	15477
916.82	15401
916.932	15511
917.044	15507
917.156	15370
917.268	15180
917.38	15298
917.491	15199
917.603	15268
917.715	15405
917.826	15389
917.938	15264
918.049	15119
918.161	15351
918.272	15435
918.384	15340
918.495	15237
918.606	15108
918.717	14979
918.828	15043
918.939	15074
919.05	14944
919.161	14918
919.272	14830
919.383	14899
919.494	15108
919.604	15230
919.715	14960
919.826	14960
919.936	14902
920.047	14982
920.157	14937
920.267	15116
920.378	15051
920.488	14944
920.598	15249
920.708	15249
920.818	15100
920.928	15001
921.038	15237
921.148	15272
921.258	14910
921.368	14800
921.477	14727
921.587	14788
921.697	14488
921.806	14731
921.916	14583
922.025	14457
922.134	14370
922.244	14324
922.353	14389
922.462	14252
922.571	14115
922.68	13951
922.789	14001
922.898	14031
923.007	14031
923.116	13967
923.224	13951
923.333	13917
923.442	13864
923.55	13757
923.659	13845
923.767	13906
923.876	13841
923.984	13879
924.092	13700
924.201	13807
924.309	13807
924.417	13613
924.525	13689
924.633	13586
924.741	14617
924.849	13422
924.956	13639
925.064	13460
925.172	13293
925.279	13464
925.387	13403
925.494	13365
925.602	13529
925.709	13377
925.816	13350
925.924	13308
926.031	13396
926.138	13346
926.245	13312
926.352	13293
926.459	13259
926.566	13373
926.673	13240
926.779	13160
926.886	13110
926.993	12977
927.099	12939
927.206	12943
927.312	13000
927.419	12993
927.525	12844
927.631	12966
927.737	12894
927.843	12810
927.95	12642
928.056	12757
928.162	12722
928.267	12810
928.373	13362
928.479	12859
928.585	12597
928.69	12654
928.796	12654
928.901	12688
929.007	12429
929.112	12570
929.218	12597
929.323	12464
929.428	12441
929.533	12696
929.638	12410
929.743	12467
929.848	12486
929.953	12277
930.058	12296
930.163	12159
930.267	12209
930.372	12323
930.477	12091
930.581	12456
930.685	12175
930.79	12011
930.894	12053
930.998	12030
931.103	12152
931.207	11767
931.311	11703
931.415	11558
931.519	11455
931.623	11398
