Data from test_V78500241_1835.txt Node
Date: Fri Mar 25 15:54:30 CST 2022
User: usil
Spectrometer: V785-0024
Trigger mode: 0
Integration Time (sec): 4.000000E-1
Scans to average: 1
Nonlinearity correction enabled: false
Boxcar width: 0
Storing dark spectrum: false
XAxis mode: Wavelengths
Number of Pixels in Spectrum: 1024
>>>>>Begin Spectral Data<<<<<
801.071	28424
801.214	28382
801.356	28158
801.499	28196
801.641	28078
801.783	27968
801.926	27953
802.068	28017
802.211	27914
802.353	27701
802.496	27755
802.638	27762
802.78	27507
802.923	27641
803.065	27682
803.208	27587
803.35	27682
803.492	27785
803.635	28002
803.777	27724
803.919	27934
804.061	28139
804.204	28036
804.346	27774
804.488	27797
804.63	27911
804.773	27842
804.915	28162
805.057	28090
805.199	27941
805.341	28029
805.483	28166
805.626	28059
805.768	27949
805.91	28002
806.052	27964
806.194	27972
806.336	28131
806.478	28101
806.62	27960
806.762	28032
806.904	28268
807.046	28542
807.188	28542
807.33	28493
807.472	28630
807.614	28436
807.756	28401
807.898	28348
808.04	28333
808.182	28272
808.324	28276
808.465	28424
808.607	28489
808.749	28710
808.891	28858
809.033	28930
809.174	28847
809.316	28702
809.458	28706
809.6	28866
809.741	28850
809.883	28786
810.025	29010
810.166	28942
810.308	28892
810.45	28839
810.591	28866
810.733	28740
810.875	28828
811.016	28485
811.158	28557
811.299	28797
811.441	28968
811.582	28965
811.724	28687
811.865	28706
812.007	28793
812.148	28672
812.29	28698
812.431	28820
812.573	28999
812.714	29216
812.855	29231
812.997	29200
813.138	29425
813.279	29318
813.421	29296
813.562	29105
813.703	28999
813.845	28873
813.986	28599
814.127	28519
814.268	28466
814.41	28379
814.551	28367
814.692	28519
814.833	28356
814.974	28337
815.115	28417
815.256	28306
815.397	28253
815.539	28109
815.68	28211
815.821	28135
815.962	28219
816.103	28086
816.244	27975
816.385	28036
816.526	27968
816.666	27770
816.807	27793
816.948	27713
817.089	27827
817.23	27591
817.371	27800
817.512	27694
817.653	27660
817.793	27614
817.934	27637
818.075	27785
818.216	27705
818.356	27553
818.497	27587
818.638	27374
818.778	27424
818.919	27496
819.06	27431
819.2	27690
819.341	27603
819.481	27724
819.622	27911
819.762	28109
819.903	28002
820.043	27892
820.184	27823
820.324	27701
820.465	27956
820.605	27926
820.746	27873
820.886	27736
821.026	27804
821.167	27755
821.307	27895
821.447	27709
821.588	27667
821.728	27587
821.868	27279
822.008	27245
822.149	27302
822.289	27298
822.429	26864
822.569	26781
822.709	26960
822.849	26667
822.99	26735
823.13	26697
823.27	26727
823.41	26442
823.55	26492
823.69	26465
823.83	26564
823.97	26522
824.11	26320
824.25	26362
824.389	26229
824.529	26488
824.669	26324
824.809	26492
824.949	26431
825.089	26522
825.228	26351
825.368	26240
825.508	26187
825.648	26256
825.787	26107
825.927	26210
826.067	26172
826.206	26172
826.346	26336
826.485	26309
826.625	26145
826.765	26419
826.904	26267
827.044	26077
827.183	26024
827.323	25909
827.462	26046
827.601	25986
827.741	25917
827.88	26024
828.02	25890
828.159	25917
828.298	25982
828.437	25986
828.577	25830
828.716	25986
828.855	25841
828.994	25727
829.134	25616
829.273	25449
829.412	25620
829.551	25578
829.69	25616
829.829	25761
829.968	25776
830.107	25708
830.246	25639
830.385	25479
830.524	25567
830.663	25453
830.802	25384
830.941	25164
831.08	25152
831.219	25434
831.357	25297
831.496	25472
831.635	25190
831.774	25126
831.913	25183
832.051	25057
832.19	25042
832.329	25076
832.467	25084
832.606	24837
832.744	25004
832.883	24977
833.022	24924
833.16	25042
833.299	24996
833.437	25019
833.576	25008
833.714	25015
833.852	25046
833.991	25069
834.129	25046
834.267	25057
834.406	24882
834.544	25187
834.682	25069
834.821	25015
834.959	25072
835.097	24932
835.235	25110
835.373	25027
835.511	24943
835.65	24829
835.788	24844
835.926	24654
836.064	24639
836.202	24642
836.34	24768
836.478	24795
836.615	24791
836.753	24825
836.891	24856
837.029	24821
837.167	24764
837.305	24627
837.443	24700
837.58	24597
837.718	24551
837.856	24692
837.993	24608
838.131	24734
838.269	24700
838.406	24433
838.544	24483
838.681	24228
838.819	24350
838.956	24110
839.094	24068
839.231	24205
839.369	24304
839.506	24483
839.643	24273
839.781	24098
839.918	24053
840.055	24155
840.193	24144
840.33	24038
840.467	24007
840.604	24129
840.742	24186
840.879	23961
841.016	23901
841.153	23885
841.29	24079
841.427	23828
841.564	24041
841.701	23965
841.838	23996
841.975	23946
842.112	23859
842.249	23866
842.385	23771
842.522	23969
842.659	23786
842.796	23722
842.933	23745
843.069	23672
843.206	23687
843.343	23653
843.479	23771
843.616	23672
843.752	23539
843.889	23707
844.025	23623
844.162	23512
844.298	23528
844.435	23604
844.571	23501
844.708	23589
844.844	23649
844.98	23592
845.117	23589
845.253	23490
845.389	23455
845.525	23459
845.661	23330
845.798	23212
845.934	23318
846.07	23235
846.206	23181
846.342	23395
846.478	23174
846.614	23029
846.75	22961
846.886	23071
847.022	23098
847.158	22980
847.294	22965
847.429	23143
847.565	23018
847.701	23155
847.837	22961
847.972	22660
848.108	22694
848.244	22763
848.379	22637
848.515	22611
848.65	22432
848.786	22531
848.921	22565
849.057	22706
849.192	22672
849.328	22580
849.463	22630
849.598	22538
849.734	22394
849.869	22455
850.004	22333
850.14	22371
850.275	22356
850.41	22249
850.545	22185
850.68	22344
850.815	22322
850.95	22325
851.085	22516
851.22	22371
851.355	22329
851.49	22249
851.625	22318
851.76	22375
851.895	22337
852.03	22280
852.165	22284
852.299	22382
852.434	22409
852.569	22329
852.703	22348
852.838	22352
852.973	22462
853.107	22443
853.242	22211
853.376	22265
853.511	22013
853.645	22109
853.78	22310
853.914	22135
854.048	22086
854.183	22029
854.317	22090
854.451	22314
854.585	22219
854.72	22188
854.854	22162
854.988	22040
855.122	22207
855.256	22078
855.39	22162
855.524	22306
855.658	22116
855.792	22177
855.926	22219
856.06	22131
856.194	22234
856.327	22097
856.461	21945
856.595	22105
856.729	22124
856.862	22181
856.996	22158
857.13	22322
857.263	22246
857.397	22303
857.53	22166
857.664	22181
857.797	22325
857.931	22268
858.064	22196
858.197	22219
858.331	22166
858.464	22078
858.597	22131
858.731	22070
858.864	22207
858.997	22135
859.13	22139
859.263	22150
859.396	22124
859.529	22112
859.662	22086
859.795	22131
859.928	22097
860.061	22348
860.194	22299
860.327	22169
860.46	22074
860.592	22303
860.725	22398
860.858	22265
860.99	22230
861.123	22093
861.256	22173
861.388	22169
861.521	22908
861.653	22025
861.786	21930
861.918	21937
862.05	21987
862.183	22048
862.315	22128
862.447	22116
862.58	21953
862.712	21804
862.844	21800
862.976	21964
863.108	21876
863.24	22265
863.372	21835
863.504	21808
863.636	21854
863.768	21876
863.9	21854
864.032	21732
864.164	21682
864.296	21930
864.428	21854
864.559	21816
864.691	21937
864.823	21831
864.954	21789
865.086	21789
865.217	21869
865.349	21618
865.48	21698
865.612	21614
865.743	21865
865.875	21800
866.006	21663
866.137	21823
866.269	21694
866.4	21804
866.531	21599
866.662	21583
866.793	21652
866.924	21660
867.055	21648
867.186	21679
867.317	21572
867.448	21610
867.579	21682
867.71	21515
867.841	21496
867.972	21705
868.103	21637
868.233	21713
868.364	21701
868.495	21876
868.625	21934
868.756	22063
868.886	21861
869.017	21835
869.147	22006
869.278	22192
869.408	21934
869.539	21846
869.669	22017
869.799	21907
869.929	21983
870.06	21960
870.19	22158
870.32	22207
870.45	22234
870.58	22428
870.71	22310
870.84	22386
870.97	22344
871.1	22344
871.23	22523
871.36	22516
871.489	22428
871.619	22398
871.749	22478
871.879	22493
872.008	22611
872.138	22443
872.267	22504
872.397	22344
872.526	22265
872.656	22405
872.785	22303
872.915	22615
873.044	22538
873.173	22519
873.303	22546
873.432	22615
873.561	22630
873.69	22485
873.819	22531
873.948	22538
874.077	22493
874.206	22470
874.335	22542
874.464	22596
874.593	22713
874.722	22698
874.851	22767
874.979	22717
875.108	22725
875.237	22649
875.365	22554
875.494	22694
875.623	22843
875.751	22702
875.88	22790
876.008	22843
876.136	22866
876.265	23162
876.393	23414
876.521	23121
876.65	23200
876.778	23071
876.906	23098
877.034	23075
877.162	23098
877.29	22976
877.418	23105
877.546	23094
877.674	23022
877.802	23056
877.93	23044
878.058	23018
878.185	23006
878.313	23006
878.441	23052
878.568	22843
878.696	22984
878.824	23212
878.951	23258
879.079	23162
879.206	23311
879.333	23231
879.461	23037
879.588	23185
879.715	23284
879.842	23448
879.97	23117
880.097	22930
880.224	22938
880.351	22949
880.478	22900
880.605	22908
880.732	22991
880.859	23052
880.986	22987
881.112	22911
881.239	22900
881.366	22649
881.493	22592
881.619	22508
881.746	22519
881.872	22379
881.999	22550
882.125	22421
882.252	22398
882.378	22485
882.505	22455
882.631	22276
882.757	22093
882.883	22234
883.01	22158
883.136	22131
883.262	22002
883.388	22040
883.514	22078
883.64	22143
883.766	21922
883.892	21876
884.018	21930
884.143	21983
884.269	22147
884.395	21960
884.52	21781
884.646	21835
884.772	21751
884.897	21789
885.023	21751
885.148	21812
885.274	21945
885.399	21675
885.524	21743
885.65	21793
885.775	21739
885.9	21778
886.025	21918
886.15	21941
886.275	21633
886.4	21583
886.525	21789
886.65	21759
886.775	21652
886.9	21846
887.025	22070
887.149	21816
887.274	21747
887.399	21515
887.523	21530
887.648	21450
887.773	21439
887.897	21618
888.021	21572
888.146	21355
888.27	21614
888.395	21694
888.519	21549
888.643	21583
888.767	21462
888.891	21450
889.015	21443
889.139	21454
889.263	21283
889.387	21435
889.511	21496
889.635	21401
889.759	21340
889.883	21408
890.006	21355
890.13	21348
890.254	21104
890.377	21252
890.501	21028
890.624	21043
890.748	21100
890.871	21058
890.995	20895
891.118	20823
891.241	20948
891.364	20990
891.488	21066
891.611	20944
891.734	20975
891.857	20975
891.98	20944
892.103	20921
892.226	20731
892.349	20830
892.471	20743
892.594	20826
892.717	20785
892.839	20762
892.962	20872
893.085	20933
893.207	20678
893.33	20689
893.452	20644
893.575	20792
893.697	20583
893.819	20891
893.941	20921
894.064	20792
894.186	20678
894.308	20617
894.43	20838
894.552	20891
894.674	20834
894.796	20731
894.918	20819
895.04	20693
895.161	20716
895.283	20762
895.405	20659
895.526	20670
895.648	20739
895.769	20758
895.891	20735
896.012	20842
896.134	20872
896.255	20720
896.376	20785
896.498	20891
896.619	20655
896.74	20708
896.861	20830
896.982	21131
897.103	21188
897.224	21017
897.345	20925
897.466	20952
897.587	20967
897.708	21135
897.828	21017
897.949	20967
898.07	20853
898.19	20861
898.311	20967
898.431	20842
898.552	20990
898.672	21066
898.792	20998
898.913	21001
899.033	20899
899.153	20880
899.273	20583
899.393	20587
899.513	20743
899.633	20701
899.753	20746
899.873	20678
899.993	20857
900.113	20705
900.232	20781
900.352	20590
900.472	20518
900.591	20484
900.711	20469
900.83	20415
900.95	20609
901.069	20499
901.189	20305
901.308	20191
901.427	19955
901.546	20069
901.665	20145
901.784	20088
901.904	19868
902.023	19913
902.141	19616
902.26	19685
902.379	19731
902.498	19533
902.617	19529
902.735	19556
902.854	19571
902.973	19575
903.091	19384
903.21	19278
903.328	19274
903.446	19285
903.565	19107
903.683	19031
903.801	18890
903.919	18966
904.038	18829
904.156	18776
904.274	18935
904.392	18661
904.51	18631
904.627	18753
904.745	18848
904.863	18890
904.981	18593
905.098	18540
905.216	18426
905.334	18601
905.451	18494
905.569	18513
905.686	18445
905.803	18483
905.921	18232
906.038	18353
906.155	18346
906.272	18125
906.389	18152
906.506	17984
906.623	18095
906.74	17958
906.857	17889
906.974	17870
907.091	18072
907.208	18121
907.324	18091
907.441	17817
907.557	17771
907.674	17726
907.79	17634
907.907	17767
908.023	17805
908.139	17581
908.256	17600
908.372	17710
908.488	17608
908.604	17493
908.72	17410
908.836	17326
908.952	17463
909.068	17474
909.184	17402
909.3	17364
909.415	17554
909.531	17337
909.647	17212
909.762	17079
909.878	17075
909.993	17041
910.108	16995
910.224	16995
910.339	17185
910.454	16915
910.57	16816
910.685	16873
910.8	17064
910.915	17006
911.03	16957
911.145	16710
911.259	16771
911.374	16706
911.489	16535
911.604	16500
911.718	16390
911.833	16519
911.947	16306
912.062	16230
912.176	16367
912.291	16375
912.405	16428
912.519	16626
912.633	16660
912.748	16440
912.862	16337
912.976	16436
913.09	16196
913.204	16173
913.318	16276
913.431	16291
913.545	16360
913.659	16325
913.772	16154
913.886	16040
914	16010
914.113	16090
914.226	16162
914.34	16154
914.453	15953
914.566	16013
914.68	15937
914.793	15922
914.906	15736
915.019	15641
915.132	15542
915.245	15595
915.358	15526
915.47	15701
915.583	15679
915.696	15679
915.809	15701
915.921	15865
916.034	15496
916.146	15580
916.259	15519
916.371	15641
916.483	15606
916.595	15405
916.708	15534
916.82	15496
916.932	15408
917.044	15336
917.156	15321
917.268	15275
917.38	15336
917.491	15294
917.603	15264
917.715	15389
917.826	15313
917.938	15184
918.049	15123
918.161	15207
918.272	15233
918.384	15313
918.495	15157
918.606	15047
918.717	14941
918.828	15055
918.939	14975
919.05	14990
919.161	15043
919.272	14963
919.383	14819
919.494	15104
919.604	15192
919.715	15055
919.826	14948
919.936	14906
920.047	14933
920.157	14994
920.267	15100
920.378	14979
920.488	14998
920.598	15055
920.708	15237
920.818	15089
920.928	15005
921.038	15256
921.148	15161
921.258	14933
921.368	14785
921.477	14655
921.587	14579
921.697	14587
921.806	14648
921.916	14507
922.025	14320
922.134	14328
922.244	14229
922.353	14370
922.462	14252
922.571	14153
922.68	14081
922.789	13894
922.898	13887
923.007	13879
923.116	13951
923.224	13974
923.333	13963
923.442	13852
923.55	13746
923.659	13883
923.767	13734
923.876	13727
923.984	13772
924.092	13643
924.201	13753
924.309	13651
924.417	13795
924.525	13674
924.633	13636
924.741	14419
924.849	13403
924.956	13556
925.064	13407
925.172	13343
925.279	13384
925.387	13343
925.494	13403
925.602	13392
925.709	13365
925.816	13194
925.924	13308
926.031	13400
926.138	13308
926.245	13301
926.352	13278
926.459	13434
926.566	13434
926.673	13209
926.779	13126
926.886	13206
926.993	12928
927.099	13012
927.206	12901
927.312	12749
927.419	13019
927.525	12802
927.631	12909
927.737	12863
927.843	12734
927.95	12639
928.056	12730
928.162	12692
928.267	12806
928.373	13354
928.479	12833
928.585	12513
928.69	12669
928.796	12688
928.901	12620
929.007	12403
929.112	12635
929.218	12521
929.323	12467
929.428	12448
929.533	12566
929.638	12334
929.743	12361
929.848	12433
929.953	12353
930.058	12251
930.163	12140
930.267	12155
930.372	12213
930.477	12064
930.581	12315
930.685	12140
930.79	11977
930.894	12030
930.998	11961
931.103	12125
931.207	11764
931.311	11661
931.415	11634
931.519	11444
931.623	11379
