Data from test_V78500241_1681.txt Node
Date: Fri Mar 25 15:53:26 CST 2022
User: usil
Spectrometer: V785-0024
Trigger mode: 0
Integration Time (sec): 4.000000E-1
Scans to average: 1
Nonlinearity correction enabled: false
Boxcar width: 0
Storing dark spectrum: false
XAxis mode: Wavelengths
Number of Pixels in Spectrum: 1024
>>>>>Begin Spectral Data<<<<<
801.071	28344
801.214	28280
801.356	28192
801.499	28101
801.641	27991
801.783	27869
801.926	28055
802.068	27968
802.211	27926
802.353	27979
802.496	27641
802.638	27625
802.78	27656
802.923	27519
803.065	27473
803.208	27549
803.35	27644
803.492	27800
803.635	27876
803.777	27804
803.919	27778
804.061	28188
804.204	27998
804.346	27838
804.488	27808
804.63	27873
804.773	27930
804.915	27831
805.057	28093
805.199	27911
805.341	27873
805.483	27941
805.626	28025
805.768	27975
805.91	28143
806.052	28059
806.194	28017
806.336	28207
806.478	28082
806.62	28025
806.762	27975
806.904	28219
807.046	28516
807.188	28398
807.33	28455
807.472	28508
807.614	28409
807.756	28493
807.898	28322
808.04	28329
808.182	28295
808.324	28192
808.465	28375
808.607	28474
808.749	28725
808.891	28767
809.033	28911
809.174	28679
809.316	28672
809.458	28626
809.6	28763
809.741	28835
809.883	28706
810.025	28938
810.166	28862
810.308	28892
810.45	28862
810.591	28752
810.733	28774
810.875	28778
811.016	28592
811.158	28702
811.299	28835
811.441	28965
811.582	28908
811.724	28622
811.865	28740
812.007	28607
812.148	28786
812.29	28736
812.431	28828
812.573	29041
812.714	29098
812.855	29170
812.997	29258
813.138	29375
813.279	29353
813.421	29349
813.562	29216
813.703	29010
813.845	29022
813.986	28611
814.127	28398
814.268	28455
814.41	28481
814.551	28462
814.692	28451
814.833	28268
814.974	28325
815.115	28474
815.256	28112
815.397	28375
815.539	28246
815.68	28207
815.821	28158
815.962	28185
816.103	28207
816.244	28082
816.385	27907
816.526	28082
816.666	27876
816.807	27675
816.948	28029
817.089	27797
817.23	27789
817.371	27835
817.512	27564
817.653	27679
817.793	27671
817.934	27583
818.075	27644
818.216	27701
818.356	27698
818.497	27587
818.638	27458
818.778	27511
818.919	27519
819.06	27492
819.2	27610
819.341	27660
819.481	27660
819.622	27956
819.762	28109
819.903	27960
820.043	27854
820.184	27926
820.324	27876
820.465	27911
820.605	27720
820.746	27941
820.886	27679
821.026	27876
821.167	27873
821.307	27884
821.447	27778
821.588	27606
821.728	27553
821.868	27401
822.008	27233
822.149	27283
822.289	27169
822.429	26910
822.569	26918
822.709	26807
822.849	26708
822.99	26773
823.13	26644
823.27	26655
823.41	26667
823.55	26492
823.69	26495
823.83	26381
823.97	26438
824.11	26328
824.25	26229
824.389	26218
824.529	26609
824.669	26282
824.809	26389
824.949	26419
825.089	26412
825.228	26423
825.368	26145
825.508	26191
825.648	26172
825.787	26176
825.927	26282
826.067	26252
826.206	26145
826.346	26317
826.485	26183
826.625	26100
826.765	26259
826.904	26309
827.044	26081
827.183	25932
827.323	25925
827.462	26008
827.601	25917
827.741	25909
827.88	25947
828.02	25753
828.159	25883
828.298	25917
828.437	26119
828.577	25925
828.716	25826
828.855	25841
828.994	25719
829.134	25605
829.273	25693
829.412	25540
829.551	25628
829.69	25723
829.829	25639
829.968	25765
830.107	25632
830.246	25571
830.385	25502
830.524	25586
830.663	25434
830.802	25419
830.941	25168
831.08	25129
831.219	25206
831.357	25209
831.496	25365
831.635	25236
831.774	25179
831.913	25225
832.051	24913
832.19	24996
832.329	24973
832.467	24920
832.606	24768
832.744	24829
832.883	24920
833.022	24856
833.16	24867
833.299	24913
833.437	24897
833.576	25057
833.714	24878
833.852	24943
833.991	25065
834.129	25034
834.267	25118
834.406	25046
834.544	24943
834.682	24909
834.821	24992
834.959	25050
835.097	24890
835.235	24890
835.373	24875
835.511	24920
835.65	24703
835.788	24909
835.926	24703
836.064	24563
836.202	24650
836.34	24772
836.478	24863
836.615	24738
836.753	24726
836.891	24745
837.029	24764
837.167	24802
837.305	24806
837.443	24612
837.58	24551
837.718	24642
837.856	24616
837.993	24532
838.131	24555
838.269	24407
838.406	24559
838.544	24460
838.681	24292
838.819	24228
838.956	24007
839.094	24064
839.231	24232
839.369	24201
839.506	24536
839.643	24319
839.781	24121
839.918	24076
840.055	24125
840.193	24041
840.33	24038
840.467	24068
840.604	23999
840.742	24357
840.879	23748
841.016	23946
841.153	23912
841.29	24114
841.427	24140
841.564	24041
841.701	24083
841.838	23923
841.975	23927
842.112	23969
842.249	23843
842.385	23722
842.522	23996
842.659	23863
842.796	23817
842.933	23756
843.069	23737
843.206	23642
843.343	23878
843.479	23802
843.616	23828
843.752	23524
843.889	23619
844.025	23649
844.162	23448
844.298	23649
844.435	23570
844.571	23543
844.708	23509
844.844	23729
844.98	23707
845.117	23657
845.253	23512
845.389	23383
845.525	23391
845.661	23311
845.798	23277
845.934	23250
846.07	23223
846.206	23265
846.342	23231
846.478	23303
846.614	23090
846.75	22923
846.886	22942
847.022	23056
847.158	22999
847.294	22976
847.429	22999
847.565	23048
847.701	23181
847.837	22660
847.972	22771
848.108	22816
848.244	22862
848.379	22725
848.515	22615
848.65	22557
848.786	22603
848.921	22561
849.057	22717
849.192	22485
849.328	22561
849.463	22702
849.598	22622
849.734	22379
849.869	22394
850.004	22356
850.14	22291
850.275	22337
850.41	22249
850.545	22341
850.68	22276
850.815	22344
850.95	22356
851.085	22516
851.22	22481
851.355	22348
851.49	22413
851.625	22284
851.76	22440
851.895	22447
852.03	22322
852.165	22367
852.299	22409
852.434	22554
852.569	22504
852.703	22386
852.838	22516
852.973	22329
853.107	22500
853.242	22348
853.376	22226
853.511	21994
853.645	22147
853.78	22356
853.914	22204
854.048	22192
854.183	22173
854.317	22131
854.451	22333
854.585	22192
854.72	22215
854.854	22223
854.988	22166
855.122	22162
855.256	22109
855.39	22169
855.524	22265
855.658	22238
855.792	22192
855.926	22044
856.06	22188
856.194	22287
856.327	21964
856.461	22059
856.595	22025
856.729	22112
856.862	22204
856.996	22226
857.13	22272
857.263	22314
857.397	22200
857.53	22276
857.664	22147
857.797	22211
857.931	22310
858.064	22226
858.197	22284
858.331	22063
858.464	22226
858.597	22025
858.731	22154
858.864	22135
858.997	22036
859.13	22169
859.263	22177
859.396	22185
859.529	22120
859.662	22200
859.795	22173
859.928	22067
860.061	22226
860.194	22341
860.327	22116
860.46	22101
860.592	22295
860.725	22363
860.858	22188
860.99	22238
861.123	22131
861.256	22017
861.388	22249
861.521	22858
861.653	21960
861.786	21926
861.918	21804
862.05	22131
862.183	21930
862.315	21991
862.447	22090
862.58	22036
862.712	21903
862.844	21778
862.976	21941
863.108	21911
863.24	22303
863.372	21876
863.504	21934
863.636	21770
863.768	21873
863.9	21930
864.032	21835
864.164	21762
864.296	21884
864.428	21895
864.559	21983
864.691	22006
864.823	21880
864.954	21785
865.086	21899
865.217	21827
865.349	21633
865.48	21766
865.612	21732
865.743	21800
865.875	21705
866.006	21660
866.137	21709
866.269	21660
866.4	21736
866.531	21698
866.662	21580
866.793	21572
866.924	21595
867.055	21812
867.186	21781
867.317	21561
867.448	21545
867.579	21667
867.71	21641
867.841	21583
867.972	21720
868.103	21557
868.233	21587
868.364	21618
868.495	21797
868.625	21857
868.756	22048
868.886	21724
869.017	22025
869.147	21998
869.278	22105
869.408	21945
869.539	21945
869.669	22029
869.799	21975
869.929	22082
870.06	22124
870.19	22226
870.32	22086
870.45	22219
870.58	22246
870.71	22516
870.84	22409
870.97	22466
871.1	22363
871.23	22493
871.36	22478
871.489	22459
871.619	22481
871.749	22485
871.879	22577
872.008	22630
872.138	22500
872.267	22504
872.397	22440
872.526	22299
872.656	22398
872.785	22394
872.915	22489
873.044	22630
873.173	22413
873.303	22485
873.432	22683
873.561	22455
873.69	22675
873.819	22443
873.948	22622
874.077	22588
874.206	22497
874.335	22462
874.464	22542
874.593	22866
874.722	22797
874.851	22862
874.979	22797
875.108	22778
875.237	22664
875.365	22710
875.494	22831
875.623	22877
875.751	22778
875.88	22733
876.008	23010
876.136	22972
876.265	23064
876.393	23178
876.521	23113
876.65	23197
876.778	23181
876.906	23003
877.034	23052
877.162	23185
877.29	22991
877.418	23204
877.546	23124
877.674	23159
877.802	23200
877.93	23185
878.058	23041
878.185	22930
878.313	23079
878.441	23102
878.568	22999
878.696	23094
878.824	23117
878.951	23143
879.079	23258
879.206	23406
879.333	23307
879.461	23006
879.588	23105
879.715	23231
879.842	23341
879.97	23109
880.097	22923
880.224	22915
880.351	22942
880.478	22965
880.605	22778
880.732	22839
880.859	22995
880.986	22980
881.112	22854
881.239	22771
881.366	22733
881.493	22478
881.619	22542
881.746	22504
881.872	22538
881.999	22413
882.125	22474
882.252	22527
882.378	22538
882.505	22618
882.631	22291
882.757	22200
882.883	22276
883.01	22105
883.136	22105
883.262	21968
883.388	22139
883.514	22192
883.64	22162
883.766	22055
883.892	21960
884.018	21991
884.143	22105
884.269	22196
884.395	21873
884.52	21804
884.646	21907
884.772	21759
884.897	21717
885.023	21816
885.148	21812
885.274	21953
885.399	21854
885.524	21960
885.65	21797
885.775	21922
885.9	21728
886.025	21903
886.15	21876
886.275	21671
886.4	21595
886.525	21682
886.65	21656
886.775	21637
886.9	21880
887.025	21854
887.149	21743
887.274	21526
887.399	21576
887.523	21500
887.648	21492
887.773	21507
887.897	21458
888.021	21618
888.146	21587
888.27	21701
888.395	21591
888.519	21580
888.643	21614
888.767	21595
888.891	21580
889.015	21287
889.139	21393
889.263	21424
889.387	21496
889.511	21488
889.635	21435
889.759	21302
889.883	21378
890.006	21447
890.13	21306
890.254	21294
890.377	21401
890.501	21100
890.624	20982
890.748	21135
890.871	20941
890.995	20876
891.118	20883
891.241	20914
891.364	20921
891.488	21036
891.611	20834
891.734	20857
891.857	20918
891.98	20941
892.103	20910
892.226	20906
892.349	20864
892.471	20735
892.594	20792
892.717	20746
892.839	20750
892.962	20754
893.085	20857
893.207	20811
893.33	20788
893.452	20765
893.575	20857
893.697	20788
893.819	20914
893.941	20933
894.064	20960
894.186	20708
894.308	20705
894.43	20861
894.552	20967
894.674	20902
894.796	20796
894.918	20838
895.04	20720
895.161	20910
895.283	20918
895.405	20758
895.526	20773
895.648	20857
895.769	20731
895.891	20689
896.012	20876
896.134	20845
896.255	20792
896.376	20750
896.498	20720
896.619	20876
896.74	20716
896.861	20857
896.982	21157
897.103	21275
897.224	21093
897.345	21077
897.466	20804
897.587	20906
897.708	21116
897.828	21001
897.949	20914
898.07	20773
898.19	20807
898.311	20929
898.431	20830
898.552	20944
898.672	21085
898.792	20982
898.913	20944
899.033	20914
899.153	20807
899.273	20716
899.393	20682
899.513	20750
899.633	20724
899.753	20670
899.873	20670
899.993	20788
900.113	20686
900.232	20667
900.352	20606
900.472	20511
900.591	20427
900.711	20514
900.83	20469
900.95	20602
901.069	20568
901.189	20389
901.308	20111
901.427	19982
901.546	20149
901.665	20088
901.784	20100
901.904	19913
902.023	19833
902.141	19578
902.26	19700
902.379	19681
902.498	19518
902.617	19575
902.735	19525
902.854	19616
902.973	19476
903.091	19251
903.21	19225
903.328	19225
903.446	19072
903.565	19065
903.683	19008
903.801	18977
903.919	18966
904.038	19012
904.156	18715
904.274	18821
904.392	18692
904.51	18810
904.627	18757
904.745	18882
904.863	18814
904.981	18627
905.098	18479
905.216	18441
905.334	18475
905.451	18536
905.569	18441
905.686	18433
905.803	18426
905.921	18258
906.038	18464
906.155	18277
906.272	18171
906.389	18243
906.506	17984
906.623	18041
906.74	18007
906.857	17893
906.974	17832
907.091	17893
907.208	18148
907.324	18019
907.441	17821
907.557	17737
907.674	17562
907.79	17600
907.907	17695
908.023	17756
908.139	17657
908.256	17684
908.372	17687
908.488	17497
908.604	17417
908.72	17337
908.836	17452
908.952	17395
909.068	17524
909.184	17459
909.3	17448
909.415	17436
909.531	17326
909.647	17220
909.762	17197
909.878	17109
909.993	17105
910.108	17048
910.224	17132
910.339	17060
910.454	16968
910.57	16930
910.685	16774
910.8	17193
910.915	17029
911.03	16934
911.145	16721
911.259	16702
911.374	16691
911.489	16630
911.604	16603
911.718	16493
911.833	16493
911.947	16402
912.062	16238
912.176	16478
912.291	16516
912.405	16375
912.519	16649
912.633	16653
912.748	16523
912.862	16455
912.976	16318
913.09	16120
913.204	16204
913.318	16280
913.431	16314
913.545	16276
913.659	16360
913.772	16177
913.886	16143
914	16116
914.113	16169
914.226	16234
914.34	16166
914.453	15899
914.566	16078
914.68	16067
914.793	15892
914.906	15694
915.019	15698
915.132	15633
915.245	15675
915.358	15679
915.47	15614
915.583	15724
915.696	15736
915.809	15720
915.921	15861
916.034	15515
916.146	15545
916.259	15576
916.371	15644
916.483	15637
916.595	15363
916.708	15473
916.82	15412
916.932	15412
917.044	15401
917.156	15458
917.268	15283
917.38	15325
917.491	15313
917.603	15344
917.715	15382
917.826	15321
917.938	15173
918.049	15070
918.161	15245
918.272	15321
918.384	15393
918.495	15218
918.606	15142
918.717	14971
918.828	15097
918.939	15135
919.05	14979
919.161	15146
919.272	14895
919.383	14963
919.494	15077
919.604	15142
919.715	15051
919.826	14979
919.936	15024
920.047	15089
920.157	14998
920.267	15077
920.378	15070
920.488	15009
920.598	15119
920.708	15298
920.818	15127
920.928	15112
921.038	15233
921.148	15192
921.258	14963
921.368	14918
921.477	14800
921.587	14754
921.697	14537
921.806	14785
921.916	14629
922.025	14469
922.134	14476
922.244	14248
922.353	14423
922.462	14267
922.571	14145
922.68	13982
922.789	13993
922.898	14054
923.007	14031
923.116	14046
923.224	13974
923.333	13974
923.442	13852
923.55	13833
923.659	13887
923.767	13860
923.876	13776
923.984	13856
924.092	13769
924.201	13814
924.309	13734
924.417	13788
924.525	13677
924.633	13597
924.741	14454
924.849	13556
924.956	13540
925.064	13487
925.172	13350
925.279	13400
925.387	13396
925.494	13339
925.602	13480
925.709	13411
925.816	13392
925.924	13270
926.031	13392
926.138	13369
926.245	13384
926.352	13209
926.459	13445
926.566	13339
926.673	13240
926.779	13164
926.886	13141
926.993	12817
927.099	12951
927.206	12962
927.312	12905
927.419	12916
927.525	12973
927.631	13015
927.737	12859
927.843	12875
927.95	12665
928.056	12738
928.162	12749
928.267	12852
928.373	13487
928.479	12844
928.585	12620
928.69	12730
928.796	12700
928.901	12654
929.007	12494
929.112	12642
929.218	12582
929.323	12475
929.428	12448
929.533	12585
929.638	12410
929.743	12460
929.848	12448
929.953	12437
930.058	12273
930.163	12076
930.267	12213
930.372	12262
930.477	12095
930.581	12361
930.685	12163
930.79	12155
930.894	12060
930.998	11965
931.103	12220
931.207	11828
931.311	11668
931.415	11570
931.519	11372
931.623	11459
