Data from test_V78500241_691.txt Node
Date: Fri Mar 25 15:46:35 CST 2022
User: usil
Spectrometer: V785-0024
Trigger mode: 0
Integration Time (sec): 4.000000E-1
Scans to average: 1
Nonlinearity correction enabled: false
Boxcar width: 0
Storing dark spectrum: false
XAxis mode: Wavelengths
Number of Pixels in Spectrum: 1024
>>>>>Begin Spectral Data<<<<<
801.071	27629
801.214	27496
801.356	27272
801.499	27154
801.641	27085
801.783	27131
801.926	27211
802.068	27214
802.211	26925
802.353	26990
802.496	26826
802.638	26727
802.78	26765
802.923	26651
803.065	26674
803.208	26731
803.35	26762
803.492	26883
803.635	26868
803.777	26853
803.919	26826
804.061	27279
804.204	26933
804.346	26838
804.488	26754
804.63	26876
804.773	26788
804.915	26868
805.057	27085
805.199	26864
805.341	27047
805.483	26998
805.626	27017
805.768	26921
805.91	27047
806.052	27104
806.194	26960
806.336	27199
806.478	27081
806.62	27032
806.762	27081
806.904	27260
807.046	27488
807.188	27363
807.33	27431
807.472	27572
807.614	27401
807.756	27393
807.898	27275
808.04	27332
808.182	27260
808.324	27321
808.465	27351
808.607	27473
808.749	27618
808.891	27755
809.033	27812
809.174	27690
809.316	27652
809.458	27724
809.6	27526
809.741	27747
809.883	27724
810.025	27857
810.166	27934
810.308	27937
810.45	27854
810.591	27873
810.733	27652
810.875	27747
811.016	27435
811.158	27606
811.299	27770
811.441	27854
811.582	27861
811.724	27698
811.865	27671
812.007	27603
812.148	27705
812.29	27610
812.431	27705
812.573	28021
812.714	28166
812.855	28166
812.997	28394
813.138	28386
813.279	28341
813.421	28055
813.562	28272
813.703	28017
813.845	27743
813.986	27637
814.127	27389
814.268	27283
814.41	27481
814.551	27256
814.692	27378
814.833	27355
814.974	27272
815.115	27329
815.256	27329
815.397	27142
815.539	27218
815.68	27085
815.821	26944
815.962	27047
816.103	27192
816.244	27047
816.385	26933
816.526	27100
816.666	26590
816.807	26621
816.948	26785
817.089	26598
817.23	26697
817.371	26625
817.512	26609
817.653	26613
817.793	26648
817.934	26663
818.075	26560
818.216	26655
818.356	26667
818.497	26575
818.638	26351
818.778	26374
818.919	26317
819.06	26575
819.2	26609
819.341	26579
819.481	26602
819.622	26773
819.762	27081
819.903	26876
820.043	26659
820.184	26636
820.324	26590
820.465	26765
820.605	26689
820.746	26712
820.886	26514
821.026	26762
821.167	26678
821.307	26758
821.447	26552
821.588	26579
821.728	26560
821.868	26263
822.008	26168
822.149	26172
822.289	26046
822.429	25818
822.569	25696
822.709	25795
822.849	25590
822.99	25620
823.13	25529
823.27	25620
823.41	25415
823.55	25232
823.69	25495
823.83	25468
823.97	25362
824.11	25365
824.25	25202
824.389	25304
824.529	25354
824.669	25289
824.809	25365
824.949	25335
825.089	25324
825.228	25304
825.368	25187
825.508	24981
825.648	25141
825.787	25137
825.927	25103
826.067	25099
826.206	25072
826.346	25137
826.485	25145
826.625	25000
826.765	25240
826.904	25160
827.044	24829
827.183	24890
827.323	24837
827.462	24726
827.601	24821
827.741	24833
827.88	24909
828.02	24703
828.159	24806
828.298	24890
828.437	24886
828.577	24741
828.716	24848
828.855	24825
828.994	24509
829.134	24566
829.273	24509
829.412	24471
829.551	24505
829.69	24486
829.829	24498
829.968	24582
830.107	24494
830.246	24509
830.385	24418
830.524	24380
830.663	24372
830.802	24239
830.941	24159
831.08	24018
831.219	24129
831.357	24327
831.496	24330
831.635	23961
831.774	24018
831.913	24064
832.051	23908
832.19	23824
832.329	23950
832.467	23817
832.606	23718
832.744	23767
832.883	23737
833.022	23710
833.16	23817
833.299	23828
833.437	23916
833.576	23954
833.714	23733
833.852	23946
833.991	23980
834.129	24011
834.267	23897
834.406	23885
834.544	23912
834.682	23832
834.821	23885
834.959	24140
835.097	23771
835.235	23855
835.373	23847
835.511	23729
835.65	23695
835.788	23699
835.926	23524
836.064	23554
836.202	23471
836.34	23676
836.478	23863
836.615	23668
836.753	23657
836.891	23684
837.029	23733
837.167	23657
837.305	23668
837.443	23604
837.58	23490
837.718	23729
837.856	23493
837.993	23471
838.131	23630
838.269	23288
838.406	23505
838.544	23261
838.681	23151
838.819	23147
838.956	23037
839.094	23060
839.231	23105
839.369	23193
839.506	23379
839.643	23307
839.781	23025
839.918	22843
840.055	23022
840.193	23052
840.33	22991
840.467	22976
840.604	23014
840.742	23235
840.879	22869
841.016	22896
841.153	22930
841.29	22919
841.427	23018
841.564	22991
841.701	22968
841.838	22839
841.975	22805
842.112	22919
842.249	22774
842.385	22653
842.522	22915
842.659	22763
842.796	22782
842.933	22767
843.069	22554
843.206	22611
843.343	22839
843.479	22702
843.616	22744
843.752	22455
843.889	22466
844.025	22626
844.162	22489
844.298	22550
844.435	22390
844.571	22478
844.708	22569
844.844	22504
844.98	22577
845.117	22637
845.253	22554
845.389	22310
845.525	22360
845.661	22242
845.798	22265
845.934	22352
846.07	22204
846.206	22261
846.342	22493
846.478	22234
846.614	22006
846.75	21873
846.886	21880
847.022	22032
847.158	21911
847.294	21964
847.429	21880
847.565	21907
847.701	22116
847.837	21739
847.972	21496
848.108	21679
848.244	21686
848.379	21549
848.515	21549
848.65	21538
848.786	21492
848.921	21568
849.057	21644
849.192	21671
849.328	21538
849.463	21568
849.598	21538
849.734	21412
849.869	21412
850.004	21340
850.14	21325
850.275	21401
850.41	21310
850.545	21195
850.68	21222
850.815	21279
850.95	21329
851.085	21492
851.22	21310
851.355	21332
851.49	21245
851.625	21260
851.76	21237
851.895	21260
852.03	21184
852.165	21351
852.299	21393
852.434	21477
852.569	21332
852.703	21275
852.838	21412
852.973	21313
853.107	21340
853.242	21165
853.376	21066
853.511	21096
853.645	21020
853.78	21241
853.914	21161
854.048	21146
854.183	20994
854.317	21070
854.451	21298
854.585	21131
854.72	20994
854.854	21252
854.988	21108
855.122	21108
855.256	20994
855.39	21066
855.524	21138
855.658	21207
855.792	21222
855.926	21203
856.06	21195
856.194	21146
856.327	21146
856.461	21062
856.595	21070
856.729	21108
856.862	21275
856.996	21085
857.13	21203
857.263	21313
857.397	21249
857.53	21157
857.664	21256
857.797	21245
857.931	21313
858.064	21203
858.197	21184
858.331	21161
858.464	21199
858.597	21017
858.731	21180
858.864	21135
858.997	21169
859.13	21211
859.263	21058
859.396	21131
859.529	21039
859.662	21081
859.795	21089
859.928	21123
860.061	21405
860.194	21321
860.327	21192
860.46	21207
860.592	21310
860.725	21321
860.858	21142
860.99	21230
861.123	21013
861.256	21058
861.388	21138
861.521	21663
861.653	21104
861.786	20975
861.918	21150
862.05	21001
862.183	21051
862.315	21074
862.447	21036
862.58	20998
862.712	20785
862.844	20861
862.976	20830
863.108	20853
863.24	21157
863.372	20925
863.504	20842
863.636	20807
863.768	20876
863.9	20819
864.032	20765
864.164	20834
864.296	20819
864.428	20872
864.559	20921
864.691	20963
864.823	20887
864.954	20845
865.086	20762
865.217	20777
865.349	20651
865.48	20861
865.612	20705
865.743	20880
865.875	20678
866.006	20697
866.137	20834
866.269	20765
866.4	20708
866.531	20693
866.662	20522
866.793	20667
866.924	20644
867.055	20716
867.186	20731
867.317	20648
867.448	20579
867.579	20583
867.71	20549
867.841	20629
867.972	20621
868.103	20659
868.233	20670
868.364	20697
868.495	20682
868.625	20838
868.756	20979
868.886	20918
869.017	20876
869.147	21051
869.278	21005
869.408	20960
869.539	20921
869.669	21017
869.799	20914
869.929	21032
870.06	20937
870.19	21173
870.32	21241
870.45	21188
870.58	21291
870.71	21389
870.84	21306
870.97	21443
871.1	21241
871.23	21408
871.36	21606
871.489	21397
871.619	21504
871.749	21523
871.879	21435
872.008	21599
872.138	21466
872.267	21526
872.397	21428
872.526	21389
872.656	21298
872.785	21329
872.915	21519
873.044	21724
873.173	21557
873.303	21469
873.432	21564
873.561	21526
873.69	21561
873.819	21553
873.948	21595
874.077	21481
874.206	21454
874.335	21591
874.464	21648
874.593	21831
874.722	21835
874.851	21808
874.979	21804
875.108	21755
875.237	21656
875.365	21842
875.494	21644
875.623	21915
875.751	21766
875.88	21869
876.008	21850
876.136	22025
876.265	22192
876.393	22318
876.521	22215
876.65	22329
876.778	22181
876.906	22169
877.034	22036
877.162	22109
877.29	22036
877.418	22162
877.546	22090
877.674	22124
877.802	22150
877.93	22093
878.058	22105
878.185	21960
878.313	22109
878.441	22070
878.568	21903
878.696	22128
878.824	22188
878.951	22128
879.079	22325
879.206	22299
879.333	22242
879.461	22143
879.588	22219
879.715	22234
879.842	22417
879.97	22105
880.097	21884
880.224	21987
880.351	21968
880.478	21983
880.605	21831
880.732	21785
880.859	22090
880.986	21808
881.112	21949
881.239	21656
881.366	21660
881.493	21587
881.619	21447
881.746	21534
881.872	21523
881.999	21511
882.125	21428
882.252	21458
882.378	21519
882.505	21663
882.631	21443
882.757	21313
882.883	21329
883.01	21165
883.136	21173
883.262	21077
883.388	21039
883.514	21291
883.64	21161
883.766	21074
883.892	21020
884.018	21135
884.143	21070
884.269	21207
884.395	20914
884.52	20708
884.646	20883
884.772	20705
884.897	20781
885.023	20861
885.148	20918
885.274	20990
885.399	20891
885.524	20872
885.65	20952
885.775	20933
885.9	20804
886.025	20853
886.15	20883
886.275	20857
886.4	20777
886.525	20773
886.65	20674
886.775	20804
886.9	20868
887.025	21047
887.149	20815
887.274	20716
887.399	20670
887.523	20727
887.648	20659
887.773	20552
887.897	20769
888.021	20678
888.146	20552
888.27	20575
888.395	20705
888.519	20667
888.643	20705
888.767	20613
888.891	20556
889.015	20469
889.139	20514
889.263	20431
889.387	20560
889.511	20640
889.635	20465
889.759	20336
889.883	20385
890.006	20431
890.13	20473
890.254	20438
890.377	20438
890.501	20199
890.624	20130
890.748	20267
890.871	20005
890.995	20027
891.118	20016
891.241	19974
891.364	19997
891.488	20122
891.611	20043
891.734	20054
891.857	20084
891.98	20092
892.103	19982
892.226	19978
892.349	19856
892.471	19769
892.594	19913
892.717	19932
892.839	19936
892.962	19909
893.085	19951
893.207	19955
893.33	19780
893.452	19856
893.575	19947
893.697	20001
893.819	19955
893.941	20180
894.064	19944
894.186	19833
894.308	19932
894.43	19928
894.552	20088
894.674	20005
894.796	19852
894.918	19894
895.04	19830
895.161	19879
895.283	19875
895.405	19753
895.526	19951
895.648	19978
895.769	19822
895.891	19894
896.012	19833
896.134	19913
896.255	19974
896.376	19879
896.498	19959
896.619	19978
896.74	19868
896.861	20027
896.982	20263
897.103	20412
897.224	20202
897.345	20240
897.466	20145
897.587	20130
897.708	20309
897.828	20202
897.949	20168
898.07	19894
898.19	20157
898.311	20122
898.431	20111
898.552	20092
898.672	20176
898.792	20286
898.913	20271
899.033	20005
899.153	19925
899.273	19887
899.393	19871
899.513	19841
899.633	19833
899.753	19955
899.873	19890
899.993	19917
900.113	19944
900.232	19898
900.352	19811
900.472	19776
900.591	19658
900.711	19727
900.83	19723
900.95	19788
901.069	19704
901.189	19578
901.308	19343
901.427	19297
901.546	19369
901.665	19411
901.784	19240
901.904	19126
902.023	19053
902.141	18905
902.26	18772
902.379	18905
902.498	18856
902.617	18772
902.735	18833
902.854	18696
902.973	18703
903.091	18422
903.21	18418
903.328	18486
903.446	18330
903.565	18273
903.683	18311
903.801	18125
903.919	18258
904.038	18205
904.156	17996
904.274	18034
904.392	17942
904.51	18007
904.627	18034
904.745	18087
904.863	18072
904.981	17870
905.098	17710
905.216	17707
905.334	17836
905.451	17592
905.569	17691
905.686	17722
905.803	17619
905.921	17516
906.038	17570
906.155	17520
906.272	17326
906.389	17383
906.506	17258
906.623	17383
906.74	17288
906.857	17124
906.974	17147
907.091	17299
907.208	17330
907.324	17341
907.441	17197
907.557	16968
907.674	16953
907.79	16790
907.907	16957
908.023	16938
908.139	16987
908.256	16953
908.372	16850
908.488	16824
908.604	16721
908.72	16675
908.836	16634
908.952	16630
909.068	16679
909.184	16793
909.3	16626
909.415	16797
909.531	16748
909.647	16363
909.762	16318
909.878	16417
909.993	16462
910.108	16424
910.224	16295
910.339	16287
910.454	16268
910.57	16268
910.685	16173
910.8	16329
910.915	16314
911.03	16169
911.145	16002
911.259	15979
911.374	16074
911.489	15972
911.604	15911
911.718	15800
911.833	15660
911.947	15625
912.062	15625
912.176	15686
912.291	15728
912.405	15759
912.519	15930
912.633	15956
912.748	15823
912.862	15660
912.976	15576
913.09	15405
913.204	15389
913.318	15530
913.431	15637
913.545	15652
913.659	15652
913.772	15534
913.886	15340
914	15397
914.113	15378
914.226	15507
914.34	15416
914.453	15291
914.566	15351
914.68	15298
914.793	15188
914.906	15036
915.019	14971
915.132	14895
915.245	14910
915.358	15032
915.47	15047
915.583	14868
915.696	14971
915.809	15070
915.921	15028
916.034	14838
916.146	14910
916.259	14823
916.371	14994
916.483	14933
916.595	14724
916.708	14899
916.82	14887
916.932	14739
917.044	14785
917.156	14651
917.268	14655
917.38	14632
917.491	14682
917.603	14670
917.715	14705
917.826	14682
917.938	14507
918.049	14571
918.161	14549
918.272	14716
918.384	14739
918.495	14549
918.606	14518
918.717	14294
918.828	14400
918.939	14434
919.05	14225
919.161	14358
919.272	14180
919.383	14218
919.494	14396
919.604	14537
919.715	14366
919.826	14214
919.936	14294
920.047	14431
920.157	14423
920.267	14579
920.378	14328
920.488	14339
920.598	14511
920.708	14659
920.818	14473
920.928	14552
921.038	14594
921.148	14568
921.258	14290
921.368	14225
921.477	14046
921.587	14153
921.697	13955
921.806	14115
921.916	13970
922.025	13818
922.134	13753
922.244	13662
922.353	13860
922.462	13655
922.571	13624
922.68	13335
922.789	13293
922.898	13472
923.007	13293
923.116	13460
923.224	13266
923.333	13362
923.442	13293
923.55	13183
923.659	13263
923.767	13327
923.876	13110
923.984	13270
924.092	13240
924.201	13110
924.309	13103
924.417	13149
924.525	13095
924.633	12993
924.741	13997
924.849	12791
924.956	12966
925.064	12882
925.172	12741
925.279	12734
925.387	12905
925.494	12863
925.602	12970
925.709	12806
925.816	12707
925.924	12745
926.031	12867
926.138	12677
926.245	12844
926.352	12639
926.459	12848
926.566	12795
926.673	12646
926.779	12593
926.886	12551
926.993	12384
927.099	12365
927.206	12327
927.312	12308
927.419	12464
927.525	12323
927.631	12334
927.737	12296
927.843	12251
927.95	12110
928.056	12155
928.162	12155
928.267	12224
928.373	12825
928.479	12270
928.585	11999
928.69	12163
928.796	12144
928.901	11999
929.007	11863
929.112	11980
929.218	12034
929.323	11901
929.428	11863
929.533	12003
929.638	11958
929.743	11878
929.848	11904
929.953	11805
930.058	11767
930.163	11657
930.267	11649
930.372	11798
930.477	11562
930.581	11786
930.685	11710
930.79	11471
930.894	11535
930.998	11543
931.103	11619
931.207	11250
931.311	11193
931.415	11033
931.519	10839
931.623	10869
