Data from test_V78500241_1102.txt Node
Date: Fri Mar 25 15:49:26 CST 2022
User: usil
Spectrometer: V785-0024
Trigger mode: 0
Integration Time (sec): 4.000000E-1
Scans to average: 1
Nonlinearity correction enabled: false
Boxcar width: 0
Storing dark spectrum: false
XAxis mode: Wavelengths
Number of Pixels in Spectrum: 1024
>>>>>Begin Spectral Data<<<<<
801.071	28569
801.214	28287
801.356	28257
801.499	28188
801.641	28074
801.783	27949
801.926	28082
802.068	28074
802.211	28067
802.353	27914
802.496	27873
802.638	27739
802.78	27671
802.923	27739
803.065	27557
803.208	27523
803.35	27838
803.492	27926
803.635	27979
803.777	27751
803.919	28036
804.061	28379
804.204	27975
804.346	28017
804.488	27934
804.63	27991
804.773	27934
804.915	28025
805.057	28196
805.199	27975
805.341	28131
805.483	28078
805.626	28185
805.768	28048
805.91	28078
806.052	28112
806.194	28070
806.336	28329
806.478	28192
806.62	28139
806.762	28177
806.904	28474
807.046	28763
807.188	28653
807.33	28546
807.472	28721
807.614	28500
807.756	28508
807.898	28474
808.04	28371
808.182	28382
808.324	28322
808.465	28554
808.607	28672
808.749	28778
808.891	28911
809.033	29064
809.174	28900
809.316	28873
809.458	28736
809.6	28660
809.741	28980
809.883	29044
810.025	29003
810.166	29235
810.308	29121
810.45	29098
810.591	28915
810.733	28881
810.875	28881
811.016	28869
811.158	28858
811.299	28835
811.441	29064
811.582	29022
811.724	28854
811.865	28831
812.007	28805
812.148	28744
812.29	28934
812.431	29033
812.573	29227
812.714	29239
812.855	29501
812.997	29414
813.138	29505
813.279	29471
813.421	29474
813.562	29227
813.703	29299
813.845	29006
813.986	28763
814.127	28653
814.268	28691
814.41	28565
814.551	28519
814.692	28618
814.833	28527
814.974	28485
815.115	28634
815.256	28405
815.397	28455
815.539	28485
815.68	28352
815.821	28295
815.962	28390
816.103	28310
816.244	28150
816.385	28162
816.526	28128
816.666	28067
816.807	27914
816.948	27941
817.089	27876
817.23	27979
817.371	27846
817.512	27808
817.653	27922
817.793	27739
817.934	27819
818.075	27914
818.216	27945
818.356	27709
818.497	27660
818.638	27599
818.778	27595
818.919	27587
819.06	27690
819.2	27804
819.341	27876
819.481	27827
819.622	27991
819.762	28223
819.903	28116
820.043	28093
820.184	28013
820.324	28051
820.465	28097
820.605	28029
820.746	27979
820.886	27861
821.026	27991
821.167	27960
821.307	28017
821.447	27861
821.588	27876
821.728	27679
821.868	27431
822.008	27408
822.149	27401
822.289	27260
822.429	27039
822.569	26967
822.709	27165
822.849	26838
822.99	26807
823.13	26887
823.27	26868
823.41	26663
823.55	26552
823.69	26640
823.83	26651
823.97	26640
824.11	26476
824.25	26434
824.389	26404
824.529	26629
824.669	26488
824.809	26518
824.949	26579
825.089	26598
825.228	26594
825.368	26301
825.508	26377
825.648	26286
825.787	26492
825.927	26385
826.067	26389
826.206	26336
826.346	26492
826.485	26332
826.625	26476
826.765	26404
826.904	26290
827.044	26183
827.183	26225
827.323	26031
827.462	26130
827.601	26062
827.741	26100
827.88	26119
828.02	25883
828.159	26027
828.298	26077
828.437	26096
828.577	26024
828.716	26210
828.855	26130
828.994	25738
829.134	25818
829.273	25818
829.412	25830
829.551	25803
829.69	25826
829.829	25849
829.968	25822
830.107	25864
830.246	25833
830.385	25700
830.524	25609
830.663	25605
830.802	25559
830.941	25381
831.08	25373
831.219	25400
831.357	25548
831.496	25571
831.635	25365
831.774	25445
831.913	25266
832.051	25183
832.19	25209
832.329	25156
832.467	25088
832.606	25122
832.744	25084
832.883	25076
833.022	24981
833.16	25053
833.299	25148
833.437	25072
833.576	25148
833.714	25152
833.852	25194
833.991	25118
834.129	25148
834.267	25103
834.406	25072
834.544	25221
834.682	25114
834.821	25095
834.959	25285
835.097	25065
835.235	25091
835.373	25175
835.511	25031
835.65	24966
835.788	24996
835.926	24920
836.064	24757
836.202	24791
836.34	24977
836.478	25012
836.615	25023
836.753	24901
836.891	25050
837.029	24920
837.167	24897
837.305	24863
837.443	24810
837.58	24806
837.718	24951
837.856	24791
837.993	24505
838.131	24829
838.269	24604
838.406	24734
838.544	24604
838.681	24319
838.819	24281
838.956	24232
839.094	24384
839.231	24194
839.369	24414
839.506	24631
839.643	24555
839.781	24228
839.918	24152
840.055	24292
840.193	24194
840.33	24171
840.467	24167
840.604	24197
840.742	24437
840.879	24133
841.016	24034
841.153	24190
841.29	24110
841.427	24060
841.564	24163
841.701	24129
841.838	24083
841.975	24110
842.112	24087
842.249	23958
842.385	23897
842.522	24030
842.659	23916
842.796	23847
842.933	23843
843.069	23878
843.206	23828
843.343	23874
843.479	23923
843.616	23832
843.752	23653
843.889	23703
844.025	23767
844.162	23665
844.298	23699
844.435	23646
844.571	23699
844.708	23748
844.844	23897
844.98	23775
845.117	23863
845.253	23767
845.389	23531
845.525	23687
845.661	23581
845.798	23440
845.934	23459
846.07	23349
846.206	23429
846.342	23509
846.478	23402
846.614	23269
846.75	23140
846.886	23098
847.022	23113
847.158	23227
847.294	23239
847.429	23102
847.565	23185
847.701	23433
847.837	22946
847.972	22862
848.108	22961
848.244	22900
848.379	22691
848.515	22782
848.65	22641
848.786	22637
848.921	22679
849.057	22968
849.192	22797
849.328	22774
849.463	22706
849.598	22634
849.734	22603
849.869	22519
850.004	22523
850.14	22516
850.275	22611
850.41	22375
850.545	22516
850.68	22554
850.815	22512
850.95	22405
851.085	22653
851.22	22596
851.355	22508
851.49	22417
851.625	22485
851.76	22470
851.895	22519
852.03	22508
852.165	22474
852.299	22443
852.434	22527
852.569	22531
852.703	22481
852.838	22531
852.973	22588
853.107	22504
853.242	22398
853.376	22207
853.511	22284
853.645	22314
853.78	22428
853.914	22265
854.048	22276
854.183	22230
854.317	22382
854.451	22405
854.585	22322
854.72	22306
854.854	22272
854.988	22188
855.122	22310
855.256	22177
855.39	22310
855.524	22436
855.658	22402
855.792	22299
855.926	22306
856.06	22223
856.194	22322
856.327	22162
856.461	22173
856.595	22306
856.729	22272
856.862	22436
856.996	22238
857.13	22352
857.263	22413
857.397	22333
857.53	22261
857.664	22462
857.797	22382
857.931	22306
858.064	22379
858.197	22379
858.331	22238
858.464	22333
858.597	22120
858.731	22207
858.864	22276
858.997	22276
859.13	22173
859.263	22379
859.396	22272
859.529	22325
859.662	22166
859.795	22265
859.928	22344
860.061	22466
860.194	22542
860.327	22348
860.46	22402
860.592	22455
860.725	22512
860.858	22611
860.99	22242
861.123	22166
861.256	22124
861.388	22291
861.521	22995
861.653	22105
861.786	22010
861.918	22086
862.05	22219
862.183	22177
862.315	22379
862.447	22219
862.58	22204
862.712	22036
862.844	22017
862.976	22207
863.108	22082
863.24	22497
863.372	21922
863.504	21979
863.636	22090
863.768	22055
863.9	21918
864.032	21915
864.164	21869
864.296	21915
864.428	22143
864.559	22158
864.691	22074
864.823	22093
864.954	22010
865.086	21895
865.217	21899
865.349	21747
865.48	21930
865.612	21854
865.743	21926
865.875	21911
866.006	21918
866.137	21953
866.269	21876
866.4	21831
866.531	21762
866.662	21728
866.793	21812
866.924	21880
867.055	21949
867.186	21899
867.317	21854
867.448	21690
867.579	21686
867.71	21751
867.841	21736
867.972	21759
868.103	21804
868.233	21835
868.364	21739
868.495	21899
868.625	21998
868.756	22109
868.886	21994
869.017	21994
869.147	22082
869.278	22139
869.408	22101
869.539	22017
869.669	22120
869.799	22074
869.929	22101
870.06	22192
870.19	22367
870.32	22421
870.45	22371
870.58	22394
870.71	22573
870.84	22538
870.97	22489
871.1	22398
871.23	22618
871.36	22557
871.489	22478
871.619	22603
871.749	22592
871.879	22687
872.008	22771
872.138	22512
872.267	22733
872.397	22531
872.526	22371
872.656	22462
872.785	22596
872.915	22683
873.044	22752
873.173	22641
873.303	22755
873.432	22755
873.561	22641
873.69	22698
873.819	22569
873.948	22683
874.077	22611
874.206	22706
874.335	22767
874.464	22710
874.593	22831
874.722	22892
874.851	23022
874.979	22900
875.108	23014
875.237	22930
875.365	22881
875.494	22740
875.623	22980
875.751	22736
875.88	22835
876.008	22987
876.136	23117
876.265	23239
876.393	23299
876.521	23303
876.65	23299
876.778	23292
876.906	23124
877.034	23231
877.162	23307
877.29	23197
877.418	23227
877.546	23231
877.674	23242
877.802	23208
877.93	23227
878.058	23220
878.185	23041
878.313	23185
878.441	23136
878.568	23098
878.696	23212
878.824	23296
878.951	23288
879.079	23395
879.206	23459
879.333	23364
879.461	23311
879.588	23406
879.715	23349
879.842	23512
879.97	23212
880.097	23033
880.224	22946
880.351	23022
880.478	22942
880.605	23060
880.732	22900
880.859	23303
880.986	22976
881.112	23037
881.239	22908
881.366	22778
881.493	22656
881.619	22668
881.746	22664
881.872	22596
881.999	22569
882.125	22668
882.252	22596
882.378	22451
882.505	22653
882.631	22394
882.757	22299
882.883	22291
883.01	22284
883.136	22169
883.262	22090
883.388	22059
883.514	22276
883.64	22451
883.766	22242
883.892	22131
884.018	22055
884.143	22219
884.269	22280
884.395	21991
884.52	21918
884.646	21915
884.772	21789
884.897	21736
885.023	21922
885.148	22036
885.274	22002
885.399	21983
885.524	21861
885.65	21907
885.775	21953
885.9	21873
886.025	21842
886.15	21953
886.275	21884
886.4	21873
886.525	21949
886.65	21888
886.775	21781
886.9	22013
887.025	22150
887.149	21884
887.274	21709
887.399	21671
887.523	21671
887.648	21675
887.773	21591
887.897	21644
888.021	21743
888.146	21644
888.27	21831
888.395	21926
888.519	21652
888.643	21572
888.767	21823
888.891	21614
889.015	21428
889.139	21481
889.263	21523
889.387	21618
889.511	21732
889.635	21530
889.759	21462
889.883	21405
890.006	21416
890.13	21462
890.254	21363
890.377	21359
890.501	21291
890.624	21184
890.748	21298
890.871	21024
890.995	21001
891.118	20960
891.241	21070
891.364	21009
891.488	21013
891.611	21089
891.734	20982
891.857	20941
891.98	21032
892.103	21077
892.226	21066
892.349	20914
892.471	20906
892.594	20823
892.717	20944
892.839	20891
892.962	21028
893.085	21051
893.207	20963
893.33	20693
893.452	20777
893.575	20933
893.697	20910
893.819	21195
893.941	21146
894.064	20906
894.186	20899
894.308	20876
894.43	21043
894.552	21066
894.674	21036
894.796	20861
894.918	20982
895.04	20883
895.161	20994
895.283	20849
895.405	20872
895.526	20880
895.648	20952
895.769	20929
895.891	20864
896.012	20963
896.134	20929
896.255	21081
896.376	20937
896.498	20933
896.619	20838
896.74	20963
896.861	20868
896.982	21184
897.103	21439
897.224	21188
897.345	21070
897.466	21116
897.587	21074
897.708	21279
897.828	21268
897.949	21036
898.07	20880
898.19	20895
898.311	21241
898.431	21024
898.552	21013
898.672	21138
898.792	21199
898.913	21131
899.033	21009
899.153	20979
899.273	20777
899.393	20708
899.513	20857
899.633	20845
899.753	20891
899.873	20758
899.993	20872
900.113	20769
900.232	20834
900.352	20682
900.472	20617
900.591	20590
900.711	20575
900.83	20541
900.95	20625
901.069	20602
901.189	20518
901.308	20202
901.427	20206
901.546	20244
901.665	20187
901.784	20221
901.904	20024
902.023	19871
902.141	19776
902.26	19727
902.379	19818
902.498	19685
902.617	19518
902.735	19590
902.854	19776
902.973	19601
903.091	19411
903.21	19403
903.328	19346
903.446	19312
903.565	19164
903.683	19061
903.801	18989
903.919	19053
904.038	19072
904.156	18947
904.274	18954
904.392	18825
904.51	18878
904.627	18844
904.745	18977
904.863	18977
904.981	18608
905.098	18555
905.216	18646
905.334	18486
905.451	18475
905.569	18517
905.686	18639
905.803	18536
905.921	18323
906.038	18471
906.155	18429
906.272	18308
906.389	18266
906.506	18083
906.623	18060
906.74	18083
906.857	18034
906.974	17927
907.091	18224
907.208	18190
907.324	18163
907.441	17980
907.557	17817
907.674	17790
907.79	17760
907.907	17783
908.023	17745
908.139	17863
908.256	17764
908.372	17771
908.488	17589
908.604	17566
908.72	17577
908.836	17638
908.952	17493
909.068	17558
909.184	17581
909.3	17592
909.415	17482
909.531	17532
909.647	17189
909.762	17193
909.878	17162
909.993	17246
910.108	17193
910.224	17147
910.339	17151
910.454	17113
910.57	17071
910.685	16995
910.8	17223
910.915	17136
911.03	16984
911.145	16930
911.259	16831
911.374	16763
911.489	16767
911.604	16694
911.718	16447
911.833	16607
911.947	16474
912.062	16451
912.176	16577
912.291	16523
912.405	16607
912.519	16767
912.633	16630
912.748	16440
912.862	16466
912.976	16379
913.09	16265
913.204	16284
913.318	16318
913.431	16337
913.545	16424
913.659	16504
913.772	16367
913.886	16116
914	16131
914.113	16135
914.226	16238
914.34	16291
914.453	16040
914.566	16154
914.68	16040
914.793	16025
914.906	15903
915.019	15679
915.132	15660
915.245	15762
915.358	15739
915.47	15728
915.583	15842
915.696	15743
915.809	15846
915.921	15915
916.034	15717
916.146	15564
916.259	15595
916.371	15755
916.483	15610
916.595	15553
916.708	15557
916.82	15519
916.932	15466
917.044	15443
917.156	15469
917.268	15374
917.38	15435
917.491	15355
917.603	15416
917.715	15450
917.826	15477
917.938	15279
918.049	15203
918.161	15260
918.272	15344
918.384	15439
918.495	15359
918.606	15127
918.717	15062
918.828	15062
918.939	15085
919.05	15028
919.161	15119
919.272	14933
919.383	14952
919.494	15127
919.604	15298
919.715	15051
919.826	15009
919.936	14861
920.047	15100
920.157	15043
920.267	15230
920.378	15161
920.488	14971
920.598	15214
920.708	15313
920.818	15036
920.928	15226
921.038	15279
921.148	15249
921.258	14971
921.368	14838
921.477	14845
921.587	14769
921.697	14587
921.806	14762
921.916	14648
922.025	14431
922.134	14366
922.244	14431
922.353	14454
922.462	14256
922.571	14282
922.68	14005
922.789	14008
922.898	14024
923.007	13955
923.116	14081
923.224	13974
923.333	14024
923.442	13879
923.55	13826
923.659	13898
923.767	13940
923.876	13879
923.984	13925
924.092	13704
924.201	13849
924.309	13909
924.417	13795
924.525	13727
924.633	13712
924.741	14465
924.849	13483
924.956	13624
925.064	13449
925.172	13407
925.279	13396
925.387	13487
925.494	13457
925.602	13540
925.709	13407
925.816	13335
925.924	13362
926.031	13472
926.138	13331
926.245	13403
926.352	13251
926.459	13392
926.566	13396
926.673	13282
926.779	13240
926.886	13194
926.993	12977
927.099	12954
927.206	12981
927.312	12905
927.419	13061
927.525	12932
927.631	12973
927.737	12943
927.843	12840
927.95	12757
928.056	12779
928.162	12787
928.267	12844
928.373	13343
928.479	12848
928.585	12662
928.69	12779
928.796	12852
928.901	12642
929.007	12521
929.112	12688
929.218	12597
929.323	12570
929.428	12479
929.533	12540
929.638	12426
929.743	12429
929.848	12513
929.953	12490
930.058	12475
930.163	12194
930.267	12228
930.372	12300
930.477	12053
930.581	12361
930.685	12273
930.79	12129
930.894	12083
930.998	12079
931.103	12209
931.207	11760
931.311	11729
931.415	11592
931.519	11455
931.623	11398
