Data from test_V78500241_2589.txt Node
Date: Fri Mar 25 15:59:44 CST 2022
User: usil
Spectrometer: V785-0024
Trigger mode: 0
Integration Time (sec): 4.000000E-1
Scans to average: 1
Nonlinearity correction enabled: false
Boxcar width: 0
Storing dark spectrum: false
XAxis mode: Wavelengths
Number of Pixels in Spectrum: 1024
>>>>>Begin Spectral Data<<<<<
801.071	28569
801.214	28489
801.356	28230
801.499	28154
801.641	28101
801.783	28196
801.926	28109
802.068	28101
802.211	28013
802.353	28078
802.496	27911
802.638	27865
802.78	27701
802.923	27770
803.065	27724
803.208	27926
803.35	27755
803.492	27979
803.635	27987
803.777	27850
803.919	27998
804.061	28219
804.204	28090
804.346	28021
804.488	27884
804.63	28059
804.773	27918
804.915	27949
805.057	28295
805.199	28059
805.341	28131
805.483	28261
805.626	28196
805.768	28109
805.91	28112
806.052	28265
806.194	28131
806.336	28310
806.478	28325
806.62	28257
806.762	28405
806.904	28398
807.046	28710
807.188	28557
807.33	28565
807.472	28596
807.614	28615
807.756	28504
807.898	28466
808.04	28417
808.182	28440
808.324	28519
808.465	28588
808.607	28577
808.749	28885
808.891	28949
809.033	29071
809.174	28968
809.316	28953
809.458	28858
809.6	28873
809.741	28965
809.883	28949
810.025	29242
810.166	29322
810.308	29102
810.45	29140
810.591	29102
810.733	28949
810.875	28847
811.016	28691
811.158	28778
811.299	29010
811.441	29006
811.582	28915
811.724	28957
811.865	28843
812.007	28809
812.148	28942
812.29	28976
812.431	29029
812.573	29174
812.714	29189
812.855	29330
812.997	29467
813.138	29486
813.279	29459
813.421	29414
813.562	29436
813.703	29025
813.845	28923
813.986	28809
814.127	28698
814.268	28596
814.41	28531
814.551	28512
814.692	28626
814.833	28375
814.974	28588
815.115	28531
815.256	28459
815.397	28455
815.539	28314
815.68	28375
815.821	28253
815.962	28371
816.103	28367
816.244	28276
816.385	28246
816.526	28055
816.666	28135
816.807	27926
816.948	27819
817.089	27998
817.23	28006
817.371	27739
817.512	27941
817.653	27857
817.793	27914
817.934	27968
818.075	27926
818.216	27945
818.356	27941
818.497	27732
818.638	27561
818.778	27778
818.919	27618
819.06	27644
819.2	27808
819.341	27857
819.481	27823
819.622	28070
819.762	28242
819.903	28010
820.043	28223
820.184	27926
820.324	27907
820.465	28002
820.605	28048
820.746	27899
820.886	27876
821.026	28025
821.167	27789
821.307	27987
821.447	27842
821.588	27812
821.728	27663
821.868	27523
822.008	27306
822.149	27294
822.289	27401
822.429	27001
822.569	27039
822.709	26929
822.849	26902
822.99	26781
823.13	26750
823.27	26811
823.41	26655
823.55	26598
823.69	26682
823.83	26697
823.97	26606
824.11	26476
824.25	26461
824.389	26461
824.529	26625
824.669	26488
824.809	26598
824.949	26545
825.089	26564
825.228	26492
825.368	26393
825.508	26381
825.648	26465
825.787	26530
825.927	26492
826.067	26393
826.206	26381
826.346	26355
826.485	26404
826.625	26457
826.765	26370
826.904	26404
827.044	26142
827.183	26225
827.323	26077
827.462	26199
827.601	26145
827.741	26016
827.88	26096
828.02	26043
828.159	26035
828.298	26043
828.437	26161
828.577	26073
828.716	26180
828.855	26008
828.994	25750
829.134	25795
829.273	25765
829.412	25909
829.551	25841
829.69	25620
829.829	25894
829.968	25879
830.107	25894
830.246	25753
830.385	25719
830.524	25799
830.663	25609
830.802	25502
830.941	25552
831.08	25289
831.219	25369
831.357	25464
831.496	25651
831.635	25377
831.774	25255
831.913	25240
832.051	25095
832.19	25206
832.329	25255
832.467	25084
832.606	25133
832.744	24920
832.883	24958
833.022	25019
833.16	25027
833.299	25053
833.437	25031
833.576	25080
833.714	25164
833.852	25278
833.991	25019
834.129	25320
834.267	25217
834.406	25038
834.544	25107
834.682	25198
834.821	25065
834.959	25187
835.097	25023
835.235	25019
835.373	25175
835.511	25053
835.65	25012
835.788	24943
835.926	24856
836.064	24848
836.202	24791
836.34	24954
836.478	25061
836.615	24909
836.753	24894
836.891	24897
837.029	24989
837.167	24909
837.305	24871
837.443	24890
837.58	24871
837.718	24722
837.856	24764
837.993	24829
838.131	24741
838.269	24669
838.406	24623
838.544	24620
838.681	24369
838.819	24505
838.956	24102
839.094	24117
839.231	24235
839.369	24380
839.506	24688
839.643	24445
839.781	24277
839.918	24254
840.055	24186
840.193	24117
840.33	24194
840.467	24091
840.604	24224
840.742	24289
840.879	23996
841.016	24064
841.153	24026
841.29	24140
841.427	24079
841.564	24144
841.701	24091
841.838	24007
841.975	23988
842.112	24155
842.249	24083
842.385	23920
842.522	24129
842.659	24038
842.796	23923
842.933	23980
843.069	23817
843.206	23885
843.343	24060
843.479	23977
843.616	23984
843.752	23634
843.889	23836
844.025	23802
844.162	23703
844.298	23646
844.435	23630
844.571	23623
844.708	23870
844.844	23821
844.98	23710
845.117	23779
845.253	23619
845.389	23482
845.525	23577
845.661	23551
845.798	23482
845.934	23379
846.07	23436
846.206	23528
846.342	23391
846.478	23402
846.614	23140
846.75	23014
846.886	23060
847.022	23235
847.158	23189
847.294	23147
847.429	23193
847.565	23105
847.701	23360
847.837	22923
847.972	22774
848.108	22934
848.244	22953
848.379	22858
848.515	22691
848.65	22584
848.786	22790
848.921	22824
849.057	22885
849.192	22801
849.328	22873
849.463	22740
849.598	22672
849.734	22668
849.869	22485
850.004	22580
850.14	22550
850.275	22538
850.41	22382
850.545	22344
850.68	22382
850.815	22527
850.95	22455
851.085	22710
851.22	22603
851.355	22577
851.49	22462
851.625	22405
851.76	22557
851.895	22280
852.03	22417
852.165	22436
852.299	22535
852.434	22615
852.569	22474
852.703	22592
852.838	22569
852.973	22569
853.107	22516
853.242	22402
853.376	22371
853.511	22109
853.645	22242
853.78	22466
853.914	22360
854.048	22268
854.183	22348
854.317	22386
854.451	22474
854.585	22329
854.72	22344
854.854	22554
854.988	22154
855.122	22246
855.256	22219
855.39	22242
855.524	22428
855.658	22379
855.792	22303
855.926	22344
856.06	22329
856.194	22352
856.327	22284
856.461	22196
856.595	22265
856.729	22257
856.862	22516
856.996	22341
857.13	22341
857.263	22474
857.397	22398
857.53	22371
857.664	22348
857.797	22352
857.931	22459
858.064	22329
858.197	22436
858.331	22276
858.464	22287
858.597	22238
858.731	22303
858.864	22287
858.997	22265
859.13	22249
859.263	22249
859.396	22280
859.529	22413
859.662	22162
859.795	22219
859.928	22497
860.061	22466
860.194	22542
860.327	22390
860.46	22314
860.592	22557
860.725	22333
860.858	22413
860.99	22249
861.123	22299
861.256	22173
861.388	22329
861.521	22953
861.653	22131
861.786	22124
861.918	22162
862.05	22344
862.183	22181
862.315	22299
862.447	22291
862.58	22188
862.712	22067
862.844	22044
862.976	22143
863.108	21960
863.24	22371
863.372	21895
863.504	22044
863.636	21991
863.768	22082
863.9	21983
864.032	22013
864.164	21926
864.296	22063
864.428	22120
864.559	21987
864.691	22143
864.823	21899
864.954	21911
865.086	22044
865.217	21937
865.349	21895
865.48	21975
865.612	22017
865.743	21968
865.875	21876
866.006	21918
866.137	21987
866.269	21918
866.4	21861
866.531	21819
866.662	21857
866.793	21812
866.924	21766
867.055	21892
867.186	21770
867.317	21842
867.448	21827
867.579	21789
867.71	21812
867.841	21686
867.972	21831
868.103	21823
868.233	21739
868.364	21869
868.495	21884
868.625	22048
868.756	22238
868.886	21899
869.017	21880
869.147	22131
869.278	22139
869.408	22177
869.539	22074
869.669	22147
869.799	22109
869.929	22154
870.06	22116
870.19	22360
870.32	22341
870.45	22421
870.58	22504
870.71	22531
870.84	22565
870.97	22474
871.1	22459
871.23	22698
871.36	22546
871.489	22379
871.619	22637
871.749	22603
871.879	22698
872.008	22866
872.138	22683
872.267	22668
872.397	22554
872.526	22580
872.656	22485
872.785	22535
872.915	22793
873.044	22771
873.173	22736
873.303	22767
873.432	22713
873.561	22869
873.69	22767
873.819	22801
873.948	22744
874.077	22702
874.206	22721
874.335	22736
874.464	22824
874.593	22900
874.722	22812
874.851	22930
874.979	22824
875.108	22896
875.237	22786
875.365	22896
875.494	22828
875.623	22965
875.751	22930
875.88	22877
876.008	22927
876.136	23048
876.265	23368
876.393	23535
876.521	23402
876.65	23315
876.778	23265
876.906	23216
877.034	23197
877.162	23223
877.29	23181
877.418	23162
877.546	23189
877.674	23132
877.802	23159
877.93	23143
878.058	23159
878.185	23064
878.313	23216
878.441	23227
878.568	23105
878.696	23075
878.824	23208
878.951	23425
879.079	23395
879.206	23581
879.333	23292
879.461	23261
879.588	23261
879.715	23497
879.842	23509
879.97	23307
880.097	23208
880.224	23037
880.351	23075
880.478	23162
880.605	22847
880.732	22972
880.859	23299
880.986	23128
881.112	23060
881.239	23006
881.366	22763
881.493	22660
881.619	22588
881.746	22622
881.872	22588
881.999	22516
882.125	22523
882.252	22656
882.378	22580
882.505	22672
882.631	22432
882.757	22417
882.883	22379
883.01	22287
883.136	22257
883.262	22223
883.388	22268
883.514	22234
883.64	22455
883.766	22272
883.892	22055
884.018	22105
884.143	22249
884.269	22230
884.395	22029
884.52	21888
884.646	22017
884.772	21800
884.897	21857
885.023	21979
885.148	22082
885.274	22002
885.399	22044
885.524	21945
885.65	21949
885.775	21949
885.9	21926
886.025	21911
886.15	21983
886.275	21873
886.4	21873
886.525	21835
886.65	21827
886.775	21816
886.9	22017
887.025	22192
887.149	21922
887.274	21759
887.399	21705
887.523	21648
887.648	21545
887.773	21606
887.897	21724
888.021	21705
888.146	21606
888.27	21888
888.395	21751
888.519	21606
888.643	21648
888.767	21759
888.891	21709
889.015	21500
889.139	21564
889.263	21481
889.387	21618
889.511	21694
889.635	21614
889.759	21477
889.883	21420
890.006	21496
890.13	21538
890.254	21485
890.377	21287
890.501	21180
890.624	21104
890.748	21416
890.871	21066
890.995	21001
891.118	20986
891.241	20979
891.364	21074
891.488	21233
891.611	21032
891.734	21085
891.857	20975
891.98	20990
892.103	21066
892.226	21032
892.349	20956
892.471	20815
892.594	20971
892.717	21032
892.839	20963
892.962	20845
893.085	20967
893.207	20948
893.33	20727
893.452	20735
893.575	20925
893.697	20872
893.819	21131
893.941	21096
894.064	21028
894.186	20975
894.308	20834
894.43	20967
894.552	21077
894.674	20963
894.796	20716
894.918	20956
895.04	20982
895.161	20899
895.283	20921
895.405	20842
895.526	20815
895.648	20952
895.769	20967
895.891	20849
896.012	21058
896.134	21020
896.255	20933
896.376	21009
896.498	20963
896.619	20899
896.74	20819
896.861	20918
896.982	21176
897.103	21344
897.224	21241
897.345	21146
897.466	21119
897.587	21058
897.708	21218
897.828	21146
897.949	21058
898.07	20963
898.19	21066
898.311	21283
898.431	20963
898.552	21184
898.672	21291
898.792	21157
898.913	21119
899.033	21009
899.153	20921
899.273	20902
899.393	20948
899.513	20910
899.633	20883
899.753	20830
899.873	20758
899.993	20861
900.113	20804
900.232	20807
900.352	20773
900.472	20693
900.591	20678
900.711	20689
900.83	20644
900.95	20765
901.069	20746
901.189	20564
901.308	20317
901.427	20172
901.546	20168
901.665	20275
901.784	20161
901.904	20035
902.023	20035
902.141	19849
902.26	19674
902.379	19772
902.498	19738
902.617	19639
902.735	19719
902.854	19563
902.973	19601
903.091	19324
903.21	19449
903.328	19411
903.446	19247
903.565	19168
903.683	19183
903.801	19027
903.919	19160
904.038	19213
904.156	18928
904.274	18939
904.392	18890
904.51	18776
904.627	18943
904.745	18970
904.863	18844
904.981	18639
905.098	18494
905.216	18688
905.334	18494
905.451	18631
905.569	18559
905.686	18578
905.803	18589
905.921	18346
906.038	18544
906.155	18361
906.272	18224
906.389	18220
906.506	18095
906.623	18136
906.74	18155
906.857	17965
906.974	18064
907.091	18311
907.208	18152
907.324	18129
907.441	17973
907.557	17885
907.674	17809
907.79	17665
907.907	17798
908.023	17783
908.139	17786
908.256	17783
908.372	17767
908.488	17722
908.604	17608
908.72	17589
908.836	17608
908.952	17581
909.068	17482
909.184	17604
909.3	17512
909.415	17528
909.531	17570
909.647	17174
909.762	17258
909.878	17185
909.993	17341
910.108	17162
910.224	17178
910.339	17231
910.454	17079
910.57	17025
910.685	17014
910.8	17220
910.915	17208
911.03	17064
911.145	16801
911.259	16839
911.374	16908
911.489	16774
911.604	16790
911.718	16523
911.833	16607
911.947	16474
912.062	16485
912.176	16596
912.291	16679
912.405	16573
912.519	16839
912.633	16721
912.748	16679
912.862	16584
912.976	16371
913.09	16295
913.204	16379
913.318	16474
913.431	16569
913.545	16356
913.659	16428
913.772	16363
913.886	16120
914	16147
914.113	16284
914.226	16276
914.34	16207
914.453	16040
914.566	16249
914.68	16177
914.793	15983
914.906	15922
915.019	15800
915.132	15720
915.245	15857
915.358	15850
915.47	15793
915.583	15785
915.696	15838
915.809	15903
915.921	15865
916.034	15751
916.146	15701
916.259	15641
916.371	15838
916.483	15713
916.595	15614
916.708	15515
916.82	15538
916.932	15530
917.044	15576
917.156	15553
917.268	15329
917.38	15492
917.491	15386
917.603	15408
917.715	15389
917.826	15439
917.938	15382
918.049	15291
918.161	15325
918.272	15568
918.384	15435
918.495	15386
918.606	15211
918.717	15127
918.828	15131
918.939	15077
919.05	15058
919.161	15123
919.272	14960
919.383	15005
919.494	15184
919.604	15355
919.715	15112
919.826	15074
919.936	15077
920.047	15211
920.157	15051
920.267	15386
920.378	15211
920.488	15112
920.598	15241
920.708	15370
920.818	15252
920.928	15195
921.038	15317
921.148	15332
921.258	15058
921.368	14906
921.477	14857
921.587	14769
921.697	14610
921.806	14864
921.916	14629
922.025	14606
922.134	14461
922.244	14400
922.353	14533
922.462	14389
922.571	14286
922.68	14153
922.789	14096
922.898	14130
923.007	14065
923.116	14084
923.224	14081
923.333	14043
923.442	13982
923.55	13868
923.659	13936
923.767	14035
923.876	13917
923.984	13860
924.092	13890
924.201	13856
924.309	13852
924.417	13731
924.525	13704
924.633	13769
924.741	14655
924.849	13529
924.956	13723
925.064	13525
925.172	13415
925.279	13422
925.387	13483
925.494	13430
925.602	13616
925.709	13571
925.816	13373
925.924	13468
926.031	13499
926.138	13415
926.245	13415
926.352	13232
926.459	13464
926.566	13480
926.673	13415
926.779	13221
926.886	13202
926.993	13046
927.099	12966
927.206	12981
927.312	13069
927.419	13027
927.525	13053
927.631	13034
927.737	12973
927.843	12871
927.95	12840
928.056	12924
928.162	12882
928.267	12878
928.373	13483
928.479	12897
928.585	12631
928.69	12757
928.796	12840
928.901	12703
929.007	12532
929.112	12665
929.218	12585
929.323	12506
929.428	12502
929.533	12738
929.638	12479
929.743	12506
929.848	12582
929.953	12536
930.058	12403
930.163	12266
930.267	12197
930.372	12300
930.477	12159
930.581	12479
930.685	12239
930.79	12144
930.894	12152
930.998	12083
931.103	12205
931.207	11843
931.311	11745
931.415	11745
931.519	11539
931.623	11501
