Data from test_V78500241_1143.txt Node
Date: Fri Mar 25 15:49:43 CST 2022
User: usil
Spectrometer: V785-0024
Trigger mode: 0
Integration Time (sec): 4.000000E-1
Scans to average: 1
Nonlinearity correction enabled: false
Boxcar width: 0
Storing dark spectrum: false
XAxis mode: Wavelengths
Number of Pixels in Spectrum: 1024
>>>>>Begin Spectral Data<<<<<
801.071	28348
801.214	28363
801.356	28158
801.499	28067
801.641	27918
801.783	27956
801.926	27968
802.068	28086
802.211	27888
802.353	27778
802.496	27660
802.638	27644
802.78	27625
802.923	27599
803.065	27603
803.208	27557
803.35	27591
803.492	27732
803.635	27873
803.777	27823
803.919	27762
804.061	28234
804.204	28082
804.346	27857
804.488	27724
804.63	27842
804.773	27701
804.915	27797
805.057	27941
805.199	27675
805.341	27953
805.483	28109
805.626	28070
805.768	27930
805.91	27911
806.052	28166
806.194	27964
806.336	28116
806.478	28166
806.62	27979
806.762	28158
806.904	28401
807.046	28500
807.188	28356
807.33	28424
807.472	28565
807.614	28523
807.756	28375
807.898	28284
808.04	28356
808.182	28272
808.324	28261
808.465	28531
808.607	28588
808.749	28748
808.891	28778
809.033	28847
809.174	28710
809.316	28664
809.458	28641
809.6	28599
809.741	28816
809.883	28873
810.025	28953
810.166	29048
810.308	29064
810.45	28900
810.591	28892
810.733	28744
810.875	28679
811.016	28611
811.158	28675
811.299	28767
811.441	28949
811.582	28767
811.724	28824
811.865	28630
812.007	28736
812.148	28637
812.29	28736
812.431	28927
812.573	29060
812.714	29193
812.855	29143
812.997	29220
813.138	29356
813.279	29414
813.421	29284
813.562	29246
813.703	29064
813.845	28968
813.986	28771
814.127	28577
814.268	28573
814.41	28432
814.551	28398
814.692	28455
814.833	28489
814.974	28386
815.115	28394
815.256	28356
815.397	28325
815.539	28382
815.68	28379
815.821	28215
815.962	28299
816.103	28303
816.244	28067
816.385	28040
816.526	27987
816.666	27778
816.807	27778
816.948	27941
817.089	27914
817.23	27819
817.371	27694
817.512	27762
817.653	27747
817.793	27816
817.934	27835
818.075	27827
818.216	27606
818.356	27728
818.497	27523
818.638	27466
818.778	27462
818.919	27412
819.06	27633
819.2	27629
819.341	27762
819.481	27778
819.622	27781
819.762	28158
819.903	28067
820.043	27914
820.184	27755
820.324	27884
820.465	27907
820.605	27835
820.746	27926
820.886	27865
821.026	27854
821.167	27751
821.307	27926
821.447	27709
821.588	27793
821.728	27648
821.868	27336
822.008	27363
822.149	27203
822.289	27028
822.429	27009
822.569	26891
822.709	26998
822.849	26686
822.99	26883
823.13	26838
823.27	26708
823.41	26594
823.55	26484
823.69	26518
823.83	26560
823.97	26511
824.11	26434
824.25	26278
824.389	26358
824.529	26461
824.669	26393
824.809	26480
824.949	26499
825.089	26450
825.228	26412
825.368	26339
825.508	26267
825.648	26221
825.787	26286
825.927	26370
826.067	26206
826.206	26134
826.346	26191
826.485	26199
826.625	26298
826.765	26347
826.904	26362
827.044	26039
827.183	26073
827.323	25951
827.462	26031
827.601	25955
827.741	25917
827.88	26077
828.02	25841
828.159	25902
828.298	26012
828.437	25940
828.577	25932
828.716	26005
828.855	25837
828.994	25662
829.134	25765
829.273	25913
829.412	25601
829.551	25616
829.69	25693
829.829	25666
829.968	25624
830.107	25628
830.246	25563
830.385	25559
830.524	25586
830.663	25430
830.802	25373
830.941	25327
831.08	25228
831.219	25304
831.357	25316
831.496	25472
831.635	25266
831.774	25168
831.913	25069
832.051	25107
832.19	25122
832.329	25145
832.467	24962
832.606	24871
832.744	25012
832.883	24943
833.022	24852
833.16	24962
833.299	24848
833.437	24905
833.576	24897
833.714	25046
833.852	25107
833.991	25031
834.129	25133
834.267	25019
834.406	25027
834.544	24989
834.682	25069
834.821	24935
834.959	25221
835.097	24913
835.235	25038
835.373	24966
835.511	25099
835.65	24878
835.788	24837
835.926	24821
836.064	24627
836.202	24703
836.34	24901
836.478	25000
836.615	24806
836.753	24772
836.891	24996
837.029	24833
837.167	24863
837.305	24768
837.443	24825
837.58	24623
837.718	24703
837.856	24707
837.993	24582
838.131	24555
838.269	24574
838.406	24589
838.544	24391
838.681	24266
838.819	24315
838.956	24163
839.094	24114
839.231	24163
839.369	24357
839.506	24509
839.643	24372
839.781	24007
839.918	24068
840.055	24148
840.193	24091
840.33	24125
840.467	24038
840.604	24026
840.742	24418
840.879	23988
841.016	24015
841.153	23847
841.29	24041
841.427	23988
841.564	24110
841.701	24091
841.838	24087
841.975	24003
842.112	24007
842.249	23843
842.385	23764
842.522	23973
842.659	23824
842.796	23771
842.933	23790
843.069	23703
843.206	23786
843.343	23748
843.479	23843
843.616	23760
843.752	23630
843.889	23524
844.025	23726
844.162	23585
844.298	23733
844.435	23463
844.571	23581
844.708	23687
844.844	23691
844.98	23687
845.117	23611
845.253	23558
845.389	23448
845.525	23440
845.661	23337
845.798	23223
845.934	23296
846.07	23376
846.206	23376
846.342	23391
846.478	23254
846.614	23113
846.75	22911
846.886	23003
847.022	23079
847.158	23052
847.294	23014
847.429	23079
847.565	23090
847.701	23200
847.837	22854
847.972	22717
848.108	22847
848.244	22824
848.379	22649
848.515	22523
848.65	22630
848.786	22630
848.921	22569
849.057	22679
849.192	22691
849.328	22611
849.463	22592
849.598	22577
849.734	22390
849.869	22462
850.004	22516
850.14	22470
850.275	22417
850.41	22299
850.545	22333
850.68	22352
850.815	22367
850.95	22291
851.085	22599
851.22	22489
851.355	22382
851.49	22295
851.625	22265
851.76	22325
851.895	22230
852.03	22284
852.165	22314
852.299	22390
852.434	22280
852.569	22276
852.703	22417
852.838	22474
852.973	22379
853.107	22512
853.242	22226
853.376	22162
853.511	22006
853.645	22120
853.78	22356
853.914	22078
854.048	22173
854.183	22162
854.317	22196
854.451	22417
854.585	22223
854.72	22226
854.854	22272
854.988	22143
855.122	22166
855.256	22128
855.39	22074
855.524	22215
855.658	22196
855.792	22196
855.926	22143
856.06	22318
856.194	22280
856.327	22131
856.461	22139
856.595	22268
856.729	22188
856.862	22341
856.996	22169
857.13	22295
857.263	22295
857.397	22287
857.53	22017
857.664	22291
857.797	22150
857.931	22318
858.064	22181
858.197	22291
858.331	22185
858.464	22112
858.597	22105
858.731	22154
858.864	22147
858.997	22177
859.13	22185
859.263	22074
859.396	22291
859.529	22109
859.662	22105
859.795	22086
859.928	22219
860.061	22466
860.194	22398
860.327	22325
860.46	22120
860.592	22253
860.725	22402
860.858	22390
860.99	22188
861.123	22040
861.256	22246
861.388	22280
861.521	22946
861.653	22025
861.786	21949
861.918	22002
862.05	22135
862.183	22112
862.315	22173
862.447	22131
862.58	22086
862.712	21979
862.844	21842
862.976	22021
863.108	21907
863.24	22375
863.372	21922
863.504	21903
863.636	22017
863.768	22029
863.9	21937
864.032	21789
864.164	21804
864.296	21941
864.428	21960
864.559	21968
864.691	21865
864.823	21854
864.954	21854
865.086	21941
865.217	21724
865.349	21705
865.48	21812
865.612	21774
865.743	21926
865.875	21831
866.006	21804
866.137	21823
866.269	21736
866.4	21751
866.531	21682
866.662	21671
866.793	21732
866.924	21614
867.055	21656
867.186	21812
867.317	21682
867.448	21603
867.579	21698
867.71	21606
867.841	21564
867.972	21587
868.103	21713
868.233	21652
868.364	21720
868.495	21789
868.625	21781
868.756	22006
868.886	21857
869.017	21884
869.147	22131
869.278	22131
869.408	22044
869.539	21960
869.669	22097
869.799	22040
869.929	22044
870.06	21979
870.19	22238
870.32	22177
870.45	22303
870.58	22367
870.71	22569
870.84	22360
870.97	22226
871.1	22299
871.23	22470
871.36	22497
871.489	22409
871.619	22402
871.749	22481
871.879	22615
872.008	22538
872.138	22618
872.267	22455
872.397	22428
872.526	22341
872.656	22333
872.785	22398
872.915	22634
873.044	22656
873.173	22592
873.303	22569
873.432	22603
873.561	22679
873.69	22493
873.819	22504
873.948	22592
874.077	22599
874.206	22550
874.335	22580
874.464	22656
874.593	22812
874.722	22744
874.851	22797
874.979	22710
875.108	22889
875.237	22755
875.365	22679
875.494	22748
875.623	22866
875.751	22729
875.88	22854
876.008	22999
876.136	22995
876.265	23105
876.393	23208
876.521	23216
876.65	23200
876.778	23170
876.906	23041
877.034	23048
877.162	23105
877.29	23086
877.418	23056
877.546	23128
877.674	23166
877.802	23090
877.93	23090
878.058	23094
878.185	22850
878.313	22949
878.441	23185
878.568	22949
878.696	23006
878.824	23086
878.951	23128
879.079	23307
879.206	23402
879.333	23311
879.461	23162
879.588	23292
879.715	23284
879.842	23387
879.97	23174
880.097	22980
880.224	22908
880.351	22968
880.478	22984
880.605	22740
880.732	23014
880.859	23220
880.986	22915
881.112	22930
881.239	22767
881.366	22634
881.493	22527
881.619	22584
881.746	22485
881.872	22478
881.999	22466
882.125	22497
882.252	22630
882.378	22413
882.505	22569
882.631	22337
882.757	22200
882.883	22333
883.01	22360
883.136	22158
883.262	22105
883.388	21994
883.514	22162
883.64	22284
883.766	22128
883.892	21994
884.018	21941
884.143	22162
884.269	22196
884.395	22025
884.52	21774
884.646	21823
884.772	21785
884.897	21720
885.023	21865
885.148	21842
885.274	21983
885.399	21762
885.524	21739
885.65	21918
885.775	21846
885.9	21747
886.025	21846
886.15	21827
886.275	21793
886.4	21728
886.525	21720
886.65	21732
886.775	21652
886.9	21873
887.025	22105
887.149	21671
887.274	21599
887.399	21641
887.523	21526
887.648	21488
887.773	21545
887.897	21595
888.021	21660
888.146	21542
888.27	21694
888.395	21583
888.519	21496
888.643	21564
888.767	21690
888.891	21572
889.015	21534
889.139	21530
889.263	21283
889.387	21431
889.511	21568
889.635	21500
889.759	21195
889.883	21264
890.006	21511
890.13	21393
890.254	21260
890.377	21268
890.501	21112
890.624	21138
890.748	21176
890.871	20933
890.995	20979
891.118	21013
891.241	20982
891.364	20925
891.488	21096
891.611	20914
891.734	20883
891.857	20914
891.98	20941
892.103	20948
892.226	20906
892.349	20834
892.471	20716
892.594	20872
892.717	20883
892.839	20868
892.962	20891
893.085	20830
893.207	20861
893.33	20724
893.452	20655
893.575	20777
893.697	20754
893.819	20830
893.941	20990
894.064	20899
894.186	20697
894.308	20853
894.43	20918
894.552	20944
894.674	20861
894.796	20800
894.918	20830
895.04	20716
895.161	20804
895.283	20830
895.405	20686
895.526	20849
895.648	20807
895.769	20864
895.891	20807
896.012	20800
896.134	20872
896.255	20804
896.376	20731
896.498	20724
896.619	20845
896.74	20746
896.861	20773
896.982	21062
897.103	21260
897.224	21127
897.345	21104
897.466	20902
897.587	21055
897.708	21131
897.828	21017
897.949	20952
898.07	20899
898.19	20944
898.311	21074
898.431	20979
898.552	20994
898.672	21028
898.792	21096
898.913	20971
899.033	20933
899.153	20842
899.273	20613
899.393	20815
899.513	20743
899.633	20735
899.753	20674
899.873	20788
899.993	20708
900.113	20701
900.232	20735
900.352	20575
900.472	20625
900.591	20488
900.711	20469
900.83	20533
900.95	20727
901.069	20488
901.189	20343
901.308	20111
901.427	20073
901.546	20191
901.665	20161
901.784	20050
901.904	19894
902.023	19928
902.141	19651
902.26	19639
902.379	19700
902.498	19605
902.617	19578
902.735	19525
902.854	19537
902.973	19491
903.091	19259
903.21	19228
903.328	19209
903.446	19156
903.565	19050
903.683	19160
903.801	19023
903.919	18981
904.038	18939
904.156	18772
904.274	18886
904.392	18848
904.51	18840
904.627	18719
904.745	18844
904.863	18867
904.981	18639
905.098	18490
905.216	18509
905.334	18467
905.451	18490
905.569	18532
905.686	18494
905.803	18570
905.921	18281
906.038	18277
906.155	18289
906.272	18296
906.389	18117
906.506	18068
906.623	18068
906.74	18060
906.857	17847
906.974	17893
907.091	18045
907.208	18045
907.324	18064
907.441	17847
907.557	17847
907.674	17817
907.79	17653
907.907	17710
908.023	17767
908.139	17745
908.256	17805
908.372	17585
908.488	17684
908.604	17474
908.72	17326
908.836	17497
908.952	17372
909.068	17467
909.184	17577
909.3	17444
909.415	17448
909.531	17532
909.647	17178
909.762	17174
909.878	17102
909.993	17159
910.108	17102
910.224	17060
910.339	17060
910.454	16881
910.57	16885
910.685	16919
910.8	17136
910.915	17113
911.03	16984
911.145	16847
911.259	16660
911.374	16717
911.489	16580
911.604	16599
911.718	16565
911.833	16394
911.947	16443
912.062	16284
912.176	16493
912.291	16630
912.405	16580
912.519	16626
912.633	16679
912.748	16440
912.862	16318
912.976	16238
913.09	16116
913.204	16162
913.318	16230
913.431	16478
913.545	16337
913.659	16379
913.772	16082
913.886	16112
914	16067
914.113	16090
914.226	16204
914.34	16109
914.453	15949
914.566	16074
914.68	15983
914.793	15922
914.906	15713
915.019	15633
915.132	15580
915.245	15599
915.358	15709
915.47	15622
915.583	15694
915.696	15580
915.809	15759
915.921	15728
916.034	15622
916.146	15545
916.259	15515
916.371	15564
916.483	15549
916.595	15389
916.708	15416
916.82	15447
916.932	15412
917.044	15408
917.156	15454
917.268	15192
917.38	15329
917.491	15336
917.603	15329
917.715	15317
917.826	15351
917.938	15302
918.049	15127
918.161	15199
918.272	15397
918.384	15264
918.495	15226
918.606	15024
918.717	14941
918.828	15062
918.939	15055
919.05	15009
919.161	15013
919.272	14826
919.383	14876
919.494	15055
919.604	15256
919.715	15009
919.826	14975
919.936	14910
920.047	15066
920.157	15104
920.267	15165
920.378	14899
920.488	14948
920.598	15142
920.708	15306
920.818	15150
920.928	15093
921.038	15340
921.148	15214
921.258	14937
921.368	14880
921.477	14823
921.587	14727
921.697	14613
921.806	14720
921.916	14499
922.025	14503
922.134	14362
922.244	14275
922.353	14427
922.462	14309
922.571	14024
922.68	13947
922.789	14107
922.898	13989
923.007	13959
923.116	13944
923.224	14005
923.333	13932
923.442	13795
923.55	13780
923.659	13871
923.767	13890
923.876	13757
923.984	13894
924.092	13639
924.201	13681
924.309	13791
924.417	13731
924.525	13655
924.633	13609
924.741	14351
924.849	13403
924.956	13578
925.064	13464
925.172	13358
925.279	13320
925.387	13388
925.494	13400
925.602	13438
925.709	13358
925.816	13369
925.924	13324
926.031	13388
926.138	13255
926.245	13441
926.352	13251
926.459	13362
926.566	13373
926.673	13122
926.779	13080
926.886	13122
926.993	13046
927.099	12954
927.206	12833
927.312	12878
927.419	12947
927.525	12890
927.631	12958
927.737	12806
927.843	12772
927.95	12623
928.056	12768
928.162	12738
928.267	12837
928.373	13343
928.479	12863
928.585	12498
928.69	12798
928.796	12700
928.901	12684
929.007	12486
929.112	12593
929.218	12490
929.323	12471
929.428	12460
929.533	12559
929.638	12380
929.743	12418
929.848	12353
929.953	12350
930.058	12300
930.163	12102
930.267	12121
930.372	12319
930.477	12095
930.581	12346
930.685	12159
930.79	11942
930.894	12129
930.998	11984
931.103	12182
931.207	11775
931.311	11657
931.415	11634
931.519	11387
931.623	11383
