Data from test_V78500241_2374.txt Node
Date: Fri Mar 25 15:58:14 CST 2022
User: usil
Spectrometer: V785-0024
Trigger mode: 0
Integration Time (sec): 4.000000E-1
Scans to average: 1
Nonlinearity correction enabled: false
Boxcar width: 0
Storing dark spectrum: false
XAxis mode: Wavelengths
Number of Pixels in Spectrum: 1024
>>>>>Begin Spectral Data<<<<<
801.071	29094
801.214	28900
801.356	28637
801.499	28660
801.641	28630
801.783	28569
801.926	28519
802.068	28603
802.211	28569
802.353	28516
802.496	28348
802.638	28413
802.78	28192
802.923	28215
803.065	28162
803.208	28181
803.35	28314
803.492	28577
803.635	28653
803.777	28413
803.919	28417
804.061	28900
804.204	28535
804.346	28432
804.488	28577
804.63	28485
804.773	28508
804.915	28588
805.057	28706
805.199	28554
805.341	28485
805.483	28637
805.626	28641
805.768	28523
805.91	28649
806.052	28740
806.194	28649
806.336	28900
806.478	28683
806.62	28866
806.762	28888
806.904	28995
807.046	29083
807.188	29132
807.33	29265
807.472	29220
807.614	29044
807.756	29033
807.898	29105
808.04	28809
808.182	29094
808.324	28987
808.465	29086
808.607	29208
808.749	29463
808.891	29547
809.033	29676
809.174	29414
809.316	29429
809.458	29482
809.6	29368
809.741	29490
809.883	29589
810.025	29798
810.166	29859
810.308	29733
810.45	29623
810.591	29615
810.733	29429
810.875	29482
811.016	29375
811.158	29227
811.299	29539
811.441	29611
811.582	29581
811.724	29307
811.865	29391
812.007	29425
812.148	29539
812.29	29577
812.431	29630
812.573	29737
812.714	29836
812.855	29946
812.997	29904
813.138	30018
813.279	30095
813.421	29920
813.562	29999
813.703	29775
813.845	29676
813.986	29395
814.127	29227
814.268	29208
814.41	29227
814.551	29098
814.692	29189
814.833	29029
814.974	29060
815.115	29109
815.256	28957
815.397	28968
815.539	29044
815.68	28968
815.821	28786
815.962	29056
816.103	28919
816.244	28824
816.385	28911
816.526	28744
816.666	28557
816.807	28508
816.948	28557
817.089	28580
817.23	28565
817.371	28451
817.512	28352
817.653	28440
817.793	28470
817.934	28432
818.075	28542
818.216	28459
818.356	28276
818.497	28257
818.638	28272
818.778	28253
818.919	28363
819.06	28382
819.2	28318
819.341	28455
819.481	28557
819.622	28565
819.762	28809
819.903	28797
820.043	28588
820.184	28557
820.324	28489
820.465	28538
820.605	28660
820.746	28455
820.886	28599
821.026	28535
821.167	28424
821.307	28603
821.447	28470
821.588	28379
821.728	28303
821.868	28120
822.008	27991
822.149	27960
822.289	27907
822.429	27698
822.569	27682
822.709	27686
822.849	27610
822.99	27530
823.13	27378
823.27	27416
823.41	27260
823.55	27245
823.69	27348
823.83	27256
823.97	27146
824.11	27085
824.25	27085
824.389	27173
824.529	27218
824.669	27024
824.809	27370
824.949	27230
825.089	27195
825.228	27222
825.368	26975
825.508	27009
825.648	27043
825.787	27047
825.927	26929
826.067	27100
826.206	26929
826.346	27024
826.485	27051
826.625	26975
826.765	27310
826.904	27081
827.044	26944
827.183	26754
827.323	26689
827.462	26838
827.601	26948
827.741	26705
827.88	26670
828.02	26708
828.159	26724
828.298	26621
828.437	26701
828.577	26667
828.716	26838
828.855	26514
828.994	26556
829.134	26484
829.273	26476
829.412	26267
829.551	26389
829.69	26530
829.829	26541
829.968	26503
830.107	26484
830.246	26396
830.385	26355
830.524	26305
830.663	26271
830.802	25982
830.941	26149
831.08	26008
831.219	26126
831.357	26088
831.496	26237
831.635	25989
831.774	25947
831.913	26084
832.051	25784
832.19	25932
832.329	25784
832.467	25700
832.606	25765
832.744	25639
832.883	25765
833.022	25700
833.16	25693
833.299	25674
833.437	25696
833.576	25807
833.714	25868
833.852	25837
833.991	25841
834.129	25883
834.267	25902
834.406	25772
834.544	25837
834.682	25655
834.821	25788
834.959	26020
835.097	25750
835.235	25833
835.373	25772
835.511	25696
835.65	25594
835.788	25597
835.926	25544
836.064	25438
836.202	25415
836.34	25487
836.478	25715
836.615	25548
836.753	25662
836.891	25594
837.029	25594
837.167	25521
837.305	25518
837.443	25457
837.58	25358
837.718	25441
837.856	25521
837.993	25331
838.131	25457
838.269	25251
838.406	25278
838.544	25266
838.681	25156
838.819	24947
838.956	24840
839.094	24852
839.231	24947
839.369	25103
839.506	25175
839.643	25061
839.781	24894
839.918	24772
840.055	24863
840.193	24882
840.33	24661
840.467	24700
840.604	24852
840.742	24947
840.879	24741
841.016	24654
841.153	24639
841.29	24882
841.427	24692
841.564	24787
841.701	24692
841.838	24711
841.975	24658
842.112	24612
842.249	24559
842.385	24521
842.522	24703
842.659	24467
842.796	24528
842.933	24540
843.069	24464
843.206	24422
843.343	24566
843.479	24505
843.616	24544
843.752	24213
843.889	24372
844.025	24403
844.162	24334
844.298	24285
844.435	24292
844.571	24273
844.708	24258
844.844	24475
844.98	24422
845.117	24414
845.253	24201
845.389	24155
845.525	24174
845.661	24167
845.798	24015
845.934	24038
846.07	23927
846.206	24194
846.342	24262
846.478	23999
846.614	23847
846.75	23551
846.886	23653
847.022	23783
847.158	23760
847.294	23809
847.429	23691
847.565	23695
847.701	23863
847.837	23444
847.972	23493
848.108	23547
848.244	23570
848.379	23402
848.515	23307
848.65	23356
848.786	23280
848.921	23433
849.057	23455
849.192	23368
849.328	23326
849.463	23337
849.598	23402
849.734	23159
849.869	23124
850.004	23181
850.14	23121
850.275	23098
850.41	22980
850.545	22999
850.68	23079
850.815	23128
850.95	23048
851.085	23326
851.22	23128
851.355	23064
851.49	23003
851.625	23170
851.76	23052
851.895	23086
852.03	23067
852.165	23075
852.299	23162
852.434	23231
852.569	23117
852.703	23113
852.838	23162
852.973	23303
853.107	22987
853.242	23048
853.376	23010
853.511	22843
853.645	22946
853.78	22976
853.914	22908
854.048	22744
854.183	22831
854.317	22968
854.451	23136
854.585	23018
854.72	22881
854.854	22919
854.988	22946
855.122	22763
855.256	22854
855.39	22934
855.524	22942
855.658	22801
855.792	22930
855.926	22858
856.06	22919
856.194	23064
856.327	22923
856.461	22664
856.595	22843
856.729	22892
856.862	22972
856.996	22923
857.13	22934
857.263	22965
857.397	22892
857.53	22938
857.664	22908
857.797	22972
857.931	22911
858.064	22892
858.197	23109
858.331	22915
858.464	22850
858.597	22752
858.731	22824
858.864	22862
858.997	22892
859.13	22820
859.263	22915
859.396	22930
859.529	22862
859.662	22843
859.795	22831
859.928	22885
860.061	23162
860.194	23083
860.327	22949
860.46	22885
860.592	22972
860.725	23064
860.858	23010
860.99	22850
861.123	22820
861.256	22919
861.388	22820
861.521	23589
861.653	22793
861.786	22710
861.918	22687
862.05	22752
862.183	22877
862.315	22782
862.447	22957
862.58	22835
862.712	22664
862.844	22618
862.976	22721
863.108	22622
863.24	23052
863.372	22611
863.504	22675
863.636	22713
863.768	22622
863.9	22683
864.032	22459
864.164	22721
864.296	22774
864.428	22752
864.559	22584
864.691	22653
864.823	22672
864.954	22565
865.086	22622
865.217	22626
865.349	22466
865.48	22497
865.612	22451
865.743	22592
865.875	22504
866.006	22485
866.137	22519
866.269	22481
866.4	22569
866.531	22493
866.662	22432
866.793	22417
866.924	22413
867.055	22459
867.186	22337
867.317	22432
867.448	22470
867.579	22382
867.71	22367
867.841	22306
867.972	22402
868.103	22443
868.233	22447
868.364	22478
868.495	22596
868.625	22607
868.756	22767
868.886	22634
869.017	22580
869.147	22755
869.278	22805
869.408	22611
869.539	22634
869.669	22736
869.799	22694
869.929	22683
870.06	22866
870.19	22991
870.32	22991
870.45	22976
870.58	23140
870.71	23185
870.84	23162
870.97	23003
871.1	23029
871.23	23117
871.36	23105
871.489	23151
871.619	23288
871.749	23204
871.879	23109
872.008	23307
872.138	23315
872.267	23136
872.397	23162
872.526	23025
872.656	23094
872.785	23132
872.915	23235
873.044	23345
873.173	23334
873.303	23250
873.432	23143
873.561	23406
873.69	23227
873.819	23113
873.948	23318
874.077	23315
874.206	23265
874.335	23280
874.464	23334
874.593	23558
874.722	23493
874.851	23558
874.979	23425
875.108	23455
875.237	23360
875.365	23478
875.494	23436
875.623	23524
875.751	23448
875.88	23436
876.008	23691
876.136	23615
876.265	23870
876.393	24045
876.521	23923
876.65	23908
876.778	23855
876.906	23809
877.034	23748
877.162	23863
877.29	23817
877.418	23851
877.546	23851
877.674	23855
877.802	23691
877.93	23748
878.058	23714
878.185	23676
878.313	23634
878.441	23783
878.568	23665
878.696	23764
878.824	23718
878.951	23931
879.079	23931
879.206	24110
879.333	23961
879.461	23741
879.588	23885
879.715	23973
879.842	24060
879.97	23817
880.097	23729
880.224	23600
880.351	23638
880.478	23634
880.605	23558
880.732	23570
880.859	23870
880.986	23596
881.112	23509
881.239	23433
881.366	23395
881.493	23216
881.619	23064
881.746	23155
881.872	23204
881.999	23128
882.125	23143
882.252	23269
882.378	23064
882.505	23212
882.631	22999
882.757	22873
882.883	22987
883.01	22850
883.136	22752
883.262	22641
883.388	22664
883.514	22854
883.64	22797
883.766	22710
883.892	22500
884.018	22592
884.143	22866
884.269	22801
884.395	22436
884.52	22382
884.646	22470
884.772	22390
884.897	22356
885.023	22466
885.148	22569
885.274	22596
885.399	22531
885.524	22459
885.65	22360
885.775	22409
885.9	22443
886.025	22584
886.15	22508
886.275	22402
886.4	22280
886.525	22485
886.65	22280
886.775	22375
886.9	22554
887.025	22645
887.149	22318
887.274	22344
887.399	22371
887.523	22265
887.648	22200
887.773	22109
887.897	22238
888.021	22284
888.146	22162
888.27	22352
888.395	22306
888.519	22158
888.643	22249
888.767	22181
888.891	22257
889.015	21998
889.139	22097
889.263	22070
889.387	22044
889.511	22097
889.635	22139
889.759	21926
889.883	21857
890.006	21949
890.13	22143
890.254	21937
890.377	21953
890.501	21762
890.624	21667
890.748	21816
890.871	21679
890.995	21534
891.118	21648
891.241	21576
891.364	21553
891.488	21679
891.611	21644
891.734	21454
891.857	21629
891.98	21519
892.103	21625
892.226	21644
892.349	21424
892.471	21351
892.594	21500
892.717	21488
892.839	21332
892.962	21458
893.085	21564
893.207	21370
893.33	21389
893.452	21313
893.575	21500
893.697	21294
893.819	21473
893.941	21564
894.064	21633
894.186	21538
894.308	21412
894.43	21477
894.552	21610
894.674	21625
894.796	21382
894.918	21447
895.04	21252
895.161	21454
895.283	21466
895.405	21473
895.526	21447
895.648	21428
895.769	21473
895.891	21431
896.012	21386
896.134	21405
896.255	21481
896.376	21317
896.498	21416
896.619	21458
896.74	21249
896.861	21477
896.982	21709
897.103	21831
897.224	21648
897.345	21660
897.466	21549
897.587	21644
897.708	21739
897.828	21591
897.949	21519
898.07	21397
898.19	21603
898.311	21698
898.431	21401
898.552	21576
898.672	21568
898.792	21736
898.913	21568
899.033	21542
899.153	21332
899.273	21272
899.393	21363
899.513	21378
899.633	21336
899.753	21291
899.873	21249
899.993	21363
900.113	21218
900.232	21237
900.352	21184
900.472	21161
900.591	21154
900.711	21036
900.83	20960
900.95	21051
901.069	21074
901.189	20895
901.308	20708
901.427	20617
901.546	20613
901.665	20705
901.784	20701
901.904	20412
902.023	20522
902.141	20180
902.26	20240
902.379	20187
902.498	20149
902.617	20043
902.735	20195
902.854	20016
902.973	20073
903.091	19776
903.21	19788
903.328	19883
903.446	19635
903.565	19597
903.683	19723
903.801	19453
903.919	19400
904.038	19632
904.156	19335
904.274	19460
904.392	19324
904.51	19244
904.627	19392
904.745	19434
904.863	19384
904.981	19122
905.098	19133
905.216	19042
905.334	19012
905.451	18973
905.569	19061
905.686	18962
905.803	18886
905.921	18829
906.038	18901
906.155	18757
906.272	18650
906.389	18707
906.506	18525
906.623	18509
906.74	18506
906.857	18521
906.974	18490
907.091	18513
907.208	18749
907.324	18544
907.441	18407
907.557	18247
907.674	18136
907.79	18220
907.907	18182
908.023	18281
908.139	18315
908.256	18205
908.372	18140
908.488	18140
908.604	18003
908.72	17961
908.836	17992
908.952	17984
909.068	17935
909.184	18034
909.3	17973
909.415	18011
909.531	17935
909.647	17722
909.762	17638
909.878	17623
909.993	17619
910.108	17581
910.224	17619
910.339	17547
910.454	17448
910.57	17459
910.685	17493
910.8	17646
910.915	17615
911.03	17459
911.145	17242
911.259	17250
911.374	17280
911.489	17143
911.604	17083
911.718	16919
911.833	16976
911.947	16904
912.062	16805
912.176	17022
912.291	16908
912.405	16949
912.519	17208
912.633	17117
912.748	16991
912.862	16961
912.976	16748
913.09	16656
913.204	16752
913.318	16820
913.431	16820
913.545	16759
913.659	16934
913.772	16637
913.886	16519
914	16516
914.113	16558
914.226	16645
914.34	16531
914.453	16470
914.566	16660
914.68	16417
914.793	16367
914.906	16242
915.019	16078
915.132	16086
915.245	16169
915.358	16074
915.47	16109
915.583	16112
915.696	16181
915.809	16230
915.921	16226
916.034	16029
916.146	16059
916.259	16025
916.371	16048
916.483	16086
916.595	15983
916.708	15797
916.82	15998
916.932	15975
917.044	15941
917.156	15930
917.268	15785
917.38	15785
917.491	15751
917.603	15739
917.715	15838
917.826	15873
917.938	15637
918.049	15553
918.161	15728
918.272	15895
918.384	15663
918.495	15553
918.606	15534
918.717	15462
918.828	15523
918.939	15428
919.05	15469
919.161	15504
919.272	15252
919.383	15340
919.494	15485
919.604	15526
919.715	15378
919.826	15332
919.936	15401
920.047	15454
920.157	15431
920.267	15496
920.378	15363
920.488	15466
920.598	15553
920.708	15660
920.818	15492
920.928	15450
921.038	15629
921.148	15667
921.258	15344
921.368	15332
921.477	15207
921.587	15169
921.697	15047
921.806	15157
921.916	14941
922.025	14864
922.134	14762
922.244	14724
922.353	14819
922.462	14686
922.571	14613
922.68	14469
922.789	14484
922.898	14465
923.007	14362
923.116	14434
923.224	14389
923.333	14313
923.442	14336
923.55	14187
923.659	14191
923.767	14362
923.876	14229
923.984	14157
924.092	14134
924.201	14100
924.309	14130
924.417	14092
924.525	14043
924.633	14077
924.741	14887
924.849	13913
924.956	13993
925.064	13875
925.172	13712
925.279	13761
925.387	13784
925.494	13757
925.602	13849
925.709	13784
925.816	13643
925.924	13666
926.031	13791
926.138	13666
926.245	13723
926.352	13582
926.459	13776
926.566	13788
926.673	13521
926.779	13510
926.886	13499
926.993	13308
927.099	13339
927.206	13209
927.312	13320
927.419	13312
927.525	13331
927.631	13255
927.737	13228
927.843	13259
927.95	13091
928.056	13114
928.162	13187
928.267	13164
928.373	13715
928.479	13232
928.585	12996
928.69	13137
928.796	13050
928.901	12981
929.007	12867
929.112	12951
929.218	12932
929.323	12932
929.428	12757
929.533	12958
929.638	12673
929.743	12837
929.848	12734
929.953	12753
930.058	12703
930.163	12483
930.267	12574
930.372	12642
930.477	12388
930.581	12616
930.685	12509
930.79	12388
930.894	12403
930.998	12289
931.103	12448
931.207	12133
931.311	12026
931.415	11942
931.519	11665
931.623	11691
