Data from test_V78500241_904.txt Node
Date: Fri Mar 25 15:48:03 CST 2022
User: usil
Spectrometer: V785-0024
Trigger mode: 0
Integration Time (sec): 4.000000E-1
Scans to average: 1
Nonlinearity correction enabled: false
Boxcar width: 0
Storing dark spectrum: false
XAxis mode: Wavelengths
Number of Pixels in Spectrum: 1024
>>>>>Begin Spectral Data<<<<<
801.071	27846
801.214	27857
801.356	27523
801.499	27435
801.641	27237
801.783	27408
801.926	27260
802.068	27336
802.211	27233
802.353	27332
802.496	26967
802.638	26914
802.78	26994
802.923	26880
803.065	26868
803.208	26876
803.35	26891
803.492	27055
803.635	26982
803.777	27017
803.919	27081
804.061	27363
804.204	27176
804.346	27089
804.488	27020
804.63	27093
804.773	26883
804.915	27173
805.057	27260
805.199	27195
805.341	27214
805.483	27192
805.626	27264
805.768	27249
805.91	27211
806.052	27218
806.194	27176
806.336	27469
806.478	27302
806.62	27207
806.762	27401
806.904	27466
807.046	27770
807.188	27599
807.33	27644
807.472	27648
807.614	27644
807.756	27629
807.898	27564
808.04	27291
808.182	27530
808.324	27580
808.465	27507
808.607	27762
808.749	27755
808.891	28002
809.033	27926
809.174	28032
809.316	27899
809.458	27785
809.6	27835
809.741	27926
809.883	28036
810.025	28070
810.166	28173
810.308	28143
810.45	28074
810.591	28101
810.733	27968
810.875	27873
811.016	27724
811.158	27789
811.299	27994
811.441	28002
811.582	28070
811.724	28051
811.865	27819
812.007	27895
812.148	27991
812.29	28044
812.431	28166
812.573	28169
812.714	28306
812.855	28295
812.997	28382
813.138	28603
813.279	28489
813.421	28542
813.562	28322
813.703	28382
813.845	28173
813.986	27953
814.127	27720
814.268	27545
814.41	27686
814.551	27511
814.692	27766
814.833	27606
814.974	27561
815.115	27500
815.256	27485
815.397	27298
815.539	27382
815.68	27481
815.821	27146
815.962	27348
816.103	27386
816.244	27291
816.385	27100
816.526	27131
816.666	26929
816.807	26845
816.948	26944
817.089	26960
817.23	26883
817.371	26811
817.512	26921
817.653	26720
817.793	26849
817.934	26967
818.075	26819
818.216	26864
818.356	26864
818.497	26785
818.638	26689
818.778	26446
818.919	26663
819.06	26640
819.2	26765
819.341	26773
819.481	26872
819.622	26960
819.762	27230
819.903	27093
820.043	26861
820.184	26864
820.324	26910
820.465	27017
820.605	26975
820.746	26952
820.886	26773
821.026	26910
821.167	26918
821.307	26979
821.447	26986
821.588	26708
821.728	26590
821.868	26503
822.008	26347
822.149	26473
822.289	26248
822.429	26054
822.569	25959
822.709	26077
822.849	25864
822.99	25833
823.13	25757
823.27	25913
823.41	25788
823.55	25472
823.69	25700
823.83	25674
823.97	25506
824.11	25609
824.25	25525
824.389	25453
824.529	25666
824.669	25479
824.809	25639
824.949	25666
825.089	25533
825.228	25571
825.368	25434
825.508	25297
825.648	25479
825.787	25400
825.927	25563
826.067	25354
826.206	25381
826.346	25510
826.485	25460
826.625	25388
826.765	25457
826.904	25400
827.044	25145
827.183	25122
827.323	25107
827.462	25228
827.601	25240
827.741	25156
827.88	25160
828.02	24989
828.159	24954
828.298	25000
828.437	25034
828.577	25008
828.716	25206
828.855	25004
828.994	24741
829.134	24715
829.273	24821
829.412	24768
829.551	24741
829.69	24806
829.829	24772
829.968	24821
830.107	24871
830.246	24852
830.385	24623
830.524	24707
830.663	24555
830.802	24429
830.941	24380
831.08	24323
831.219	24311
831.357	24471
831.496	24665
831.635	24498
831.774	24369
831.913	24228
832.051	24213
832.19	24174
832.329	24178
832.467	24011
832.606	24057
832.744	24007
832.883	24110
833.022	23942
833.16	24091
833.299	24091
833.437	24148
833.576	24190
833.714	24144
833.852	24216
833.991	24110
834.129	24224
834.267	24235
834.406	24140
834.544	24216
834.682	24155
834.821	24117
834.959	24311
835.097	24117
835.235	24152
835.373	24110
835.511	24049
835.65	23980
835.788	24068
835.926	23779
836.064	23733
836.202	23767
836.34	24034
836.478	24076
836.615	23847
836.753	24110
836.891	23973
837.029	23977
837.167	23889
837.305	23790
837.443	23783
837.58	23817
837.718	23885
837.856	23824
837.993	23752
838.131	23718
838.269	23604
838.406	23699
838.544	23611
838.681	23440
838.819	23311
838.956	23223
839.094	23193
839.231	23360
839.369	23486
839.506	23623
839.643	23623
839.781	23334
839.918	23239
840.055	23231
840.193	23284
840.33	23181
840.467	23307
840.604	23273
840.742	23512
840.879	23181
841.016	23174
841.153	22972
841.29	23383
841.427	23147
841.564	23162
841.701	23227
841.838	23109
841.975	23094
842.112	23128
842.249	23006
842.385	22847
842.522	23006
842.659	23014
842.796	22908
842.933	22968
843.069	22812
843.206	22957
843.343	22877
843.479	22972
843.616	22904
843.752	22755
843.889	22706
844.025	22900
844.162	22649
844.298	22771
844.435	22691
844.571	22569
844.708	22664
844.844	22824
844.98	22843
845.117	22771
845.253	22618
845.389	22550
845.525	22611
845.661	22577
845.798	22455
845.934	22550
846.07	22417
846.206	22493
846.342	22493
846.478	22481
846.614	22223
846.75	22082
846.886	22109
847.022	22200
847.158	22204
847.294	22143
847.429	22188
847.565	22112
847.701	22451
847.837	21873
847.972	21960
848.108	21975
848.244	21846
848.379	21755
848.515	21728
848.65	21766
848.786	21694
848.921	21819
849.057	21949
849.192	21949
849.328	21968
849.463	21656
849.598	21800
849.734	21675
849.869	21504
850.004	21549
850.14	21557
850.275	21462
850.41	21454
850.545	21412
850.68	21473
850.815	21519
850.95	21538
851.085	21682
851.22	21618
851.355	21485
851.49	21450
851.625	21466
851.76	21545
851.895	21530
852.03	21481
852.165	21542
852.299	21675
852.434	21644
852.569	21519
852.703	21553
852.838	21538
852.973	21713
853.107	21526
853.242	21428
853.376	21454
853.511	21264
853.645	21397
853.78	21485
853.914	21408
854.048	21344
854.183	21306
854.317	21382
854.451	21629
854.585	21412
854.72	21412
854.854	21443
854.988	21367
855.122	21401
855.256	21252
855.39	21397
855.524	21340
855.658	21344
855.792	21272
855.926	21351
856.06	21485
856.194	21344
856.327	21382
856.461	21283
856.595	21359
856.729	21473
856.862	21344
856.996	21291
857.13	21462
857.263	21416
857.397	21481
857.53	21416
857.664	21443
857.797	21435
857.931	21538
858.064	21367
858.197	21488
858.331	21374
858.464	21336
858.597	21237
858.731	21363
858.864	21340
858.997	21382
859.13	21405
859.263	21374
859.396	21500
859.529	21340
859.662	21370
859.795	21332
859.928	21268
860.061	21500
860.194	21431
860.327	21378
860.46	21420
860.592	21542
860.725	21454
860.858	21469
860.99	21275
861.123	21313
861.256	21298
861.388	21351
861.521	21915
861.653	21161
861.786	21214
861.918	21184
862.05	21119
862.183	21207
862.315	21313
862.447	21230
862.58	21237
862.712	20967
862.844	20998
862.976	21043
863.108	21211
863.24	21473
863.372	21017
863.504	21188
863.636	21093
863.768	21077
863.9	21032
864.032	21123
864.164	21077
864.296	21066
864.428	21081
864.559	21135
864.691	21188
864.823	21036
864.954	21074
865.086	20906
865.217	21062
865.349	20914
865.48	20929
865.612	20906
865.743	21123
865.875	20971
866.006	20910
866.137	21005
866.269	20979
866.4	20979
866.531	20994
866.662	20876
866.793	20906
866.924	20929
867.055	20929
867.186	20876
867.317	20788
867.448	20887
867.579	20883
867.71	20758
867.841	20990
867.972	20921
868.103	20944
868.233	20743
868.364	20853
868.495	20933
868.625	21039
868.756	21211
868.886	21081
869.017	21222
869.147	21264
869.278	21249
869.408	21116
869.539	21138
869.669	21268
869.799	21184
869.929	21226
870.06	21127
870.19	21454
870.32	21359
870.45	21401
870.58	21538
870.71	21564
870.84	21648
870.97	21481
871.1	21564
871.23	21789
871.36	21701
871.489	21728
871.619	21701
871.749	21701
871.879	21713
872.008	21934
872.138	21717
872.267	21694
872.397	21583
872.526	21557
872.656	21561
872.785	21545
872.915	21667
873.044	21793
873.173	21800
873.303	21762
873.432	21789
873.561	21857
873.69	21686
873.819	21732
873.948	21759
874.077	21800
874.206	21701
874.335	21663
874.464	21911
874.593	21960
874.722	22013
874.851	22013
874.979	21945
875.108	22002
875.237	21876
875.365	21911
875.494	21907
875.623	21918
875.751	21911
875.88	22166
876.008	22048
876.136	22078
876.265	22447
876.393	22424
876.521	22466
876.65	22405
876.778	22413
876.906	22299
877.034	22204
877.162	22382
877.29	22234
877.418	22310
877.546	22249
877.674	22268
877.802	22177
877.93	22188
878.058	22242
878.185	22162
878.313	22382
878.441	22310
878.568	22192
878.696	22158
878.824	22333
878.951	22333
879.079	22611
879.206	22592
879.333	22538
879.461	22428
879.588	22371
879.715	22546
879.842	22618
879.97	22360
880.097	22135
880.224	21991
880.351	22090
880.478	22109
880.605	22067
880.732	22211
880.859	22337
880.986	22128
881.112	22166
881.239	22059
881.366	21857
881.493	21804
881.619	21698
881.746	21629
881.872	21778
881.999	21812
882.125	21671
882.252	21690
882.378	21667
882.505	21880
882.631	21572
882.757	21428
882.883	21485
883.01	21526
883.136	21435
883.262	21211
883.388	21294
883.514	21321
883.64	21454
883.766	21310
883.892	21077
884.018	21222
884.143	21264
884.269	21450
884.395	21138
884.52	21138
884.646	21085
884.772	21013
884.897	20887
885.023	21001
885.148	20994
885.274	21279
885.399	21150
885.524	21017
885.65	21009
885.775	21066
885.9	21116
886.025	21146
886.15	21085
886.275	20979
886.4	20800
886.525	21089
886.65	20971
886.775	20967
886.9	21161
887.025	21252
887.149	20967
887.274	20899
887.399	20800
887.523	20743
887.648	20678
887.773	20746
887.897	20876
888.021	20830
888.146	20796
888.27	20914
888.395	20891
888.519	20834
888.643	20971
888.767	20895
888.891	20762
889.015	20606
889.139	20667
889.263	20682
889.387	20838
889.511	20845
889.635	20667
889.759	20659
889.883	20636
890.006	20727
890.13	20670
890.254	20556
890.377	20640
890.501	20476
890.624	20385
890.748	20446
890.871	20263
890.995	20172
891.118	20259
891.241	20233
891.364	20092
891.488	20347
891.611	20210
891.734	20054
891.857	20244
891.98	20374
892.103	20278
892.226	20324
892.349	20100
892.471	20039
892.594	20157
892.717	20103
892.839	20107
892.962	20142
893.085	20252
893.207	20172
893.33	20020
893.452	20138
893.575	20115
893.697	20016
893.819	20229
893.941	20301
894.064	20252
894.186	19902
894.308	20084
894.43	20180
894.552	20180
894.674	20256
894.796	20043
894.918	20180
895.04	20027
895.161	20183
895.283	20096
895.405	19997
895.526	20206
895.648	19894
895.769	20016
895.891	20088
896.012	20161
896.134	20221
896.255	20039
896.376	20103
896.498	20054
896.619	20244
896.74	20073
896.861	20149
896.982	20389
897.103	20629
897.224	20434
897.345	20244
897.466	20332
897.587	20271
897.708	20552
897.828	20358
897.949	20286
898.07	20142
898.19	20142
898.311	20381
898.431	20248
898.552	20396
898.672	20358
898.792	20389
898.913	20305
899.033	20248
899.153	20145
899.273	20012
899.393	20050
899.513	20058
899.633	20043
899.753	20092
899.873	20084
899.993	19967
900.113	19989
900.232	20084
900.352	20062
900.472	19921
900.591	19761
900.711	19909
900.83	19883
900.95	19936
901.069	19970
901.189	19788
901.308	19635
901.427	19434
901.546	19548
901.665	19365
901.784	19343
901.904	19225
902.023	19221
902.141	19099
902.26	18939
902.379	19053
902.498	18958
902.617	18856
902.735	18935
902.854	18901
902.973	18768
903.091	18608
903.21	18673
903.328	18601
903.446	18570
903.565	18372
903.683	18486
903.801	18239
903.919	18418
904.038	18464
904.156	18258
904.274	18228
904.392	18152
904.51	18106
904.627	18117
904.745	18015
904.863	18133
904.981	18030
905.098	17912
905.216	17897
905.334	17828
905.451	17863
905.569	17817
905.686	17832
905.803	17863
905.921	17646
906.038	17729
906.155	17790
906.272	17448
906.389	17539
906.506	17349
906.623	17429
906.74	17383
906.857	17269
906.974	17220
907.091	17501
907.208	17535
907.324	17421
907.441	17337
907.557	17117
907.674	17083
907.79	17071
907.907	17159
908.023	17094
908.139	17124
908.256	17025
908.372	17041
908.488	16949
908.604	16820
908.72	16839
908.836	16835
908.952	16847
909.068	16828
909.184	16953
909.3	16892
909.415	16835
909.531	16831
909.647	16679
909.762	16531
909.878	16478
909.993	16569
910.108	16409
910.224	16489
910.339	16443
910.454	16421
910.57	16341
910.685	16265
910.8	16462
910.915	16519
911.03	16382
911.145	16207
911.259	16188
911.374	16158
911.489	16006
911.604	16040
911.718	15926
911.833	15857
911.947	15838
912.062	15751
912.176	15884
912.291	15945
912.405	15888
912.519	16112
912.633	16044
912.748	15953
912.862	15907
912.976	15690
913.09	15572
913.204	15622
913.318	15641
913.431	15739
913.545	15633
913.659	15762
913.772	15576
913.886	15648
914	15576
914.113	15481
914.226	15625
914.34	15519
914.453	15405
914.566	15526
914.68	15370
914.793	15378
914.906	15123
915.019	15077
915.132	14971
915.245	15142
915.358	15188
915.47	15062
915.583	15028
915.696	15214
915.809	15272
915.921	15218
916.034	14906
916.146	14948
916.259	14929
916.371	15017
916.483	15001
916.595	14990
916.708	15001
916.82	14982
916.932	14864
917.044	14883
917.156	14792
917.268	14830
917.38	14823
917.491	14705
917.603	14807
917.715	14823
917.826	14781
917.938	14670
918.049	14629
918.161	14750
918.272	14800
918.384	14845
918.495	14655
918.606	14530
918.717	14355
918.828	14492
918.939	14503
919.05	14412
919.161	14454
919.272	14278
919.383	14343
919.494	14617
919.604	14708
919.715	14541
919.826	14484
919.936	14423
920.047	14625
920.157	14537
920.267	14678
920.378	14385
920.488	14438
920.598	14712
920.708	14785
920.818	14575
920.928	14602
921.038	14762
921.148	14686
921.258	14381
921.368	14301
921.477	14202
921.587	14233
921.697	14073
921.806	14202
921.916	14031
922.025	13963
922.134	13845
922.244	13852
922.353	13967
922.462	13807
922.571	13636
922.68	13693
922.789	13514
922.898	13506
923.007	13407
923.116	13514
923.224	13495
923.333	13457
923.442	13419
923.55	13297
923.659	13285
923.767	13407
923.876	13308
923.984	13343
924.092	13107
924.201	13247
924.309	13289
924.417	13278
924.525	13232
924.633	13187
924.741	14100
924.849	12943
924.956	13126
925.064	13042
925.172	12829
925.279	12901
925.387	13015
925.494	12894
925.602	12977
925.709	12954
925.816	12844
925.924	12894
926.031	12844
926.138	12825
926.245	12909
926.352	12795
926.459	12863
926.566	12932
926.673	12787
926.779	12662
926.886	12574
926.993	12494
927.099	12483
927.206	12456
927.312	12490
927.419	12536
927.525	12479
927.631	12475
927.737	12464
927.843	12395
927.95	12224
928.056	12308
928.162	12277
928.267	12410
928.373	12829
928.479	12426
928.585	12201
928.69	12281
928.796	12281
928.901	12125
929.007	11977
929.112	12163
929.218	12144
929.323	12159
929.428	12019
929.533	12182
929.638	11992
929.743	12015
929.848	12053
929.953	11958
930.058	11863
930.163	11722
930.267	11866
930.372	11885
930.477	11703
930.581	11878
930.685	11855
930.79	11596
930.894	11668
930.998	11558
931.103	11707
931.207	11311
931.311	11368
931.415	11197
931.519	11083
931.623	11022
