Data from test_V78500241_1811.txt Node
Date: Fri Mar 25 15:54:20 CST 2022
User: usil
Spectrometer: V785-0024
Trigger mode: 0
Integration Time (sec): 4.000000E-1
Scans to average: 1
Nonlinearity correction enabled: false
Boxcar width: 0
Storing dark spectrum: false
XAxis mode: Wavelengths
Number of Pixels in Spectrum: 1024
>>>>>Begin Spectral Data<<<<<
801.071	28687
801.214	28630
801.356	28341
801.499	28409
801.641	28268
801.783	28314
801.926	28352
802.068	28363
802.211	28135
802.353	28055
802.496	27956
802.638	28128
802.78	27949
802.923	27918
803.065	27850
803.208	27778
803.35	27949
803.492	28116
803.635	28226
803.777	27994
803.919	28185
804.061	28474
804.204	28173
804.346	28017
804.488	28006
804.63	28265
804.773	28120
804.915	28329
805.057	28185
805.199	28112
805.341	28363
805.483	28417
805.626	28348
805.768	28215
805.91	28284
806.052	28280
806.194	28310
806.336	28580
806.478	28242
806.62	28405
806.762	28428
806.904	28679
807.046	28873
807.188	28641
807.33	28892
807.472	28896
807.614	28748
807.756	28729
807.898	28679
808.04	28546
808.182	28645
808.324	28607
808.465	28679
808.607	28949
808.749	29094
808.891	29052
809.033	29151
809.174	29105
809.316	28968
809.458	29029
809.6	28949
809.741	29159
809.883	29147
810.025	29315
810.166	29421
810.308	29322
810.45	29315
810.591	29337
810.733	29003
810.875	29235
811.016	28866
811.158	29037
811.299	29090
811.441	29246
811.582	29113
811.724	29037
811.865	29193
812.007	29064
812.148	29090
812.29	29090
812.431	29231
812.573	29265
812.714	29490
812.855	29653
812.997	29630
813.138	29665
813.279	29752
813.421	29554
813.562	29509
813.703	29360
813.845	29318
813.986	29102
814.127	28801
814.268	28793
814.41	28691
814.551	28946
814.692	28892
814.833	28911
814.974	28816
815.115	28744
815.256	28721
815.397	28649
815.539	28504
815.68	28691
815.821	28546
815.962	28508
816.103	28554
816.244	28379
816.385	28272
816.526	28268
816.666	28238
816.807	27930
816.948	28082
817.089	28204
817.23	28188
817.371	28063
817.512	28051
817.653	28025
817.793	27983
817.934	28093
818.075	28010
818.216	28067
818.356	27998
818.497	27987
818.638	27800
818.778	27808
818.919	27926
819.06	27743
819.2	27880
819.341	28006
819.481	27998
819.622	28101
819.762	28379
819.903	28337
820.043	28333
820.184	28215
820.324	28162
820.465	28154
820.605	28078
820.746	28169
820.886	28051
821.026	28177
821.167	28166
821.307	28177
821.447	28150
821.588	28010
821.728	27850
821.868	27637
822.008	27576
822.149	27663
822.289	27523
822.429	27310
822.569	27336
822.709	27211
822.849	27108
822.99	27150
823.13	27085
823.27	27043
823.41	26807
823.55	26701
823.69	26921
823.83	26895
823.97	26864
824.11	26743
824.25	26598
824.389	26678
824.529	26800
824.669	26769
824.809	26785
824.949	26773
825.089	26785
825.228	26762
825.368	26545
825.508	26689
825.648	26571
825.787	26678
825.927	26667
826.067	26594
826.206	26594
826.346	26788
826.485	26613
826.625	26587
826.765	26617
826.904	26609
827.044	26358
827.183	26473
827.323	26301
827.462	26374
827.601	26305
827.741	26244
827.88	26374
828.02	26237
828.159	26389
828.298	26248
828.437	26343
828.577	26145
828.716	26362
828.855	26195
828.994	26096
829.134	26039
829.273	26054
829.412	25883
829.551	26069
829.69	25951
829.829	26069
829.968	26191
830.107	25986
830.246	25966
830.385	25970
830.524	25986
830.663	25845
830.802	25769
830.941	25712
831.08	25601
831.219	25601
831.357	25761
831.496	25997
831.635	25525
831.774	25582
831.913	25624
832.051	25339
832.19	25445
832.329	25335
832.467	25411
832.606	25278
832.744	25148
832.883	25160
833.022	25304
833.16	25202
833.299	25381
833.437	25270
833.576	25384
833.714	25449
833.852	25472
833.991	25407
834.129	25426
834.267	25331
834.406	25400
834.544	25350
834.682	25301
834.821	25350
834.959	25460
835.097	25160
835.235	25308
835.373	25346
835.511	25358
835.65	25122
835.788	25209
835.926	25034
836.064	25027
836.202	24954
836.34	25240
836.478	25343
836.615	25236
836.753	25198
836.891	25289
837.029	25107
837.167	25118
837.305	25038
837.443	25076
837.58	24992
837.718	24977
837.856	25080
837.993	24886
838.131	25069
838.269	24989
838.406	24852
838.544	24768
838.681	24715
838.819	24547
838.956	24536
839.094	24490
839.231	24448
839.369	24597
839.506	24814
839.643	24688
839.781	24517
839.918	24372
840.055	24395
840.193	24513
840.33	24194
840.467	24285
840.604	24475
840.742	24730
840.879	24277
841.016	24433
841.153	24167
841.29	24464
841.427	24323
841.564	24273
841.701	24239
841.838	24353
841.975	24334
842.112	24266
842.249	24098
842.385	24152
842.522	24361
842.659	24133
842.796	24068
842.933	24079
843.069	24076
843.206	23977
843.343	24068
843.479	24022
843.616	24194
843.752	23912
843.889	23893
844.025	24015
844.162	23870
844.298	23901
844.435	23942
844.571	23824
844.708	23950
844.844	24091
844.98	23927
845.117	24068
845.253	23794
845.389	23783
845.525	23790
845.661	23786
845.798	23619
845.934	23699
846.07	23638
846.206	23665
846.342	23718
846.478	23531
846.614	23493
846.75	23444
846.886	23235
847.022	23425
847.158	23391
847.294	23349
847.429	23501
847.565	23376
847.701	23581
847.837	23132
847.972	22957
848.108	23064
848.244	23143
848.379	22999
848.515	22934
848.65	22919
848.786	22999
848.921	22987
849.057	23056
849.192	22908
849.328	23041
849.463	23041
849.598	22904
849.734	22797
849.869	22702
850.004	22721
850.14	22774
850.275	22637
850.41	22649
850.545	22531
850.68	22850
850.815	22645
850.95	22641
851.085	22835
851.22	22675
851.355	22774
851.49	22694
851.625	22626
851.76	22664
851.895	22649
852.03	22596
852.165	22721
852.299	22653
852.434	22710
852.569	22771
852.703	22736
852.838	22721
852.973	22812
853.107	22889
853.242	22618
853.376	22634
853.511	22375
853.645	22497
853.78	22744
853.914	22561
854.048	22527
854.183	22580
854.317	22523
854.451	22725
854.585	22588
854.72	22497
854.854	22577
854.988	22436
855.122	22398
855.256	22352
855.39	22516
855.524	22573
855.658	22569
855.792	22615
855.926	22565
856.06	22588
856.194	22618
856.327	22379
856.461	22402
856.595	22538
856.729	22561
856.862	22508
856.996	22615
857.13	22577
857.263	22588
857.397	22554
857.53	22538
857.664	22459
857.797	22577
857.931	22577
858.064	22603
858.197	22538
858.331	22573
858.464	22360
858.597	22516
858.731	22360
858.864	22424
858.997	22470
859.13	22516
859.263	22367
859.396	22592
859.529	22432
859.662	22409
859.795	22428
859.928	22535
860.061	22523
860.194	22687
860.327	22622
860.46	22607
860.592	22645
860.725	22618
860.858	22645
860.99	22360
861.123	22455
861.256	22527
861.388	22417
861.521	23273
861.653	22363
861.786	22371
861.918	22322
862.05	22436
862.183	22455
862.315	22318
862.447	22519
862.58	22379
862.712	22322
862.844	22314
862.976	22246
863.108	22249
863.24	22634
863.372	22188
863.504	22101
863.636	22154
863.768	22329
863.9	22234
864.032	22105
864.164	22078
864.296	22173
864.428	22211
864.559	22188
864.691	22291
864.823	22169
864.954	22166
865.086	22226
865.217	22044
865.349	22055
865.48	22006
865.612	22025
865.743	22131
865.875	22059
866.006	22051
866.137	22135
866.269	22070
866.4	22017
866.531	21975
866.662	22010
866.793	22090
866.924	22036
867.055	21998
867.186	21983
867.317	22059
867.448	21953
867.579	21953
867.71	21861
867.841	21892
867.972	21915
868.103	21987
868.233	22093
868.364	22017
868.495	22112
868.625	22265
868.756	22348
868.886	22226
869.017	22265
869.147	22348
869.278	22341
869.408	22325
869.539	22314
869.669	22246
869.799	22299
869.929	22318
870.06	22402
870.19	22607
870.32	22535
870.45	22615
870.58	22630
870.71	22694
870.84	22786
870.97	22729
871.1	22691
871.23	22763
871.36	22847
871.489	22767
871.619	22809
871.749	22771
871.879	22900
872.008	22877
872.138	22942
872.267	22892
872.397	22771
872.526	22691
872.656	22729
872.785	22615
872.915	22854
873.044	23113
873.173	22961
873.303	22850
873.432	22968
873.561	22968
873.69	22778
873.819	22877
873.948	22915
874.077	22908
874.206	22908
874.335	22866
874.464	22946
874.593	23113
874.722	23052
874.851	23025
874.979	23083
875.108	23071
875.237	22949
875.365	22908
875.494	23014
875.623	23147
875.751	23025
875.88	22900
876.008	23261
876.136	23231
876.265	23573
876.393	23600
876.521	23611
876.65	23524
876.778	23570
876.906	23311
877.034	23254
877.162	23452
877.29	23337
877.418	23402
877.546	23410
877.674	23459
877.802	23493
877.93	23410
878.058	23398
878.185	23299
878.313	23440
878.441	23452
878.568	23261
878.696	23425
878.824	23398
878.951	23490
879.079	23539
879.206	23687
879.333	23680
879.461	23501
879.588	23615
879.715	23668
879.842	23573
879.97	23528
880.097	23265
880.224	23322
880.351	23185
880.478	23360
880.605	23220
880.732	23178
880.859	23433
880.986	23273
881.112	23387
881.239	22999
881.366	22927
881.493	22961
881.619	22946
881.746	22896
881.872	22866
881.999	22759
882.125	22733
882.252	22854
882.378	22702
882.505	22946
882.631	22706
882.757	22531
882.883	22573
883.01	22443
883.136	22352
883.262	22303
883.388	22333
883.514	22390
883.64	22474
883.766	22287
883.892	22177
884.018	22299
884.143	22356
884.269	22424
884.395	22215
884.52	22055
884.646	22029
884.772	21956
884.897	22082
885.023	22074
885.148	22158
885.274	22181
885.399	22238
885.524	22101
885.65	22177
885.775	22093
885.9	22078
886.025	22280
886.15	22219
886.275	22074
886.4	22055
886.525	22112
886.65	21968
886.775	22078
886.9	22322
887.025	22306
887.149	22188
887.274	21926
887.399	21949
887.523	21915
887.648	21907
887.773	21816
887.897	21876
888.021	21793
888.146	21797
888.27	21903
888.395	21960
888.519	21876
888.643	21926
888.767	21903
888.891	21762
889.015	21633
889.139	21671
889.263	21610
889.387	21835
889.511	21888
889.635	21641
889.759	21633
889.883	21625
890.006	21766
890.13	21827
890.254	21576
890.377	21534
890.501	21450
890.624	21325
890.748	21439
890.871	21264
890.995	21127
891.118	21214
891.241	21230
891.364	21123
891.488	21317
891.611	21214
891.734	21207
891.857	21260
891.98	21180
892.103	21207
892.226	21245
892.349	21214
892.471	21123
892.594	21074
892.717	21218
892.839	21077
892.962	21154
893.085	21169
893.207	21150
893.33	20998
893.452	21032
893.575	21116
893.697	21127
893.819	21241
893.941	21412
894.064	21233
894.186	21062
894.308	20990
894.43	21218
894.552	21188
894.674	21146
894.796	21066
894.918	21093
895.04	20979
895.161	21169
895.283	21161
895.405	21096
895.526	20994
895.648	21135
895.769	21081
895.891	21036
896.012	21039
896.134	21085
896.255	21123
896.376	20948
896.498	21096
896.619	21131
896.74	20960
896.861	21096
896.982	21359
897.103	21481
897.224	21382
897.345	21268
897.466	21203
897.587	21195
897.708	21488
897.828	21386
897.949	21260
898.07	21089
898.19	21222
898.311	21291
898.431	21154
898.552	21332
898.672	21370
898.792	21397
898.913	21268
899.033	21302
899.153	21066
899.273	21009
899.393	20979
899.513	21081
899.633	21051
899.753	21013
899.873	20941
899.993	21036
900.113	21005
900.232	21039
900.352	20849
900.472	20861
900.591	20686
900.711	20781
900.83	20670
900.95	20819
901.069	20967
901.189	20632
901.308	20495
901.427	20377
901.546	20374
901.665	20324
901.784	20294
901.904	20172
902.023	20050
902.141	19826
902.26	19795
902.379	19913
902.498	19826
902.617	19830
902.735	19845
902.854	19791
902.973	19772
903.091	19472
903.21	19487
903.328	19480
903.446	19346
903.565	19266
903.683	19335
903.801	19190
903.919	19232
904.038	19244
904.156	19008
904.274	19107
904.392	19099
904.51	19107
904.627	19027
904.745	19050
904.863	19084
904.981	18848
905.098	18722
905.216	18734
905.334	18852
905.451	18738
905.569	18677
905.686	18623
905.803	18696
905.921	18502
906.038	18532
906.155	18544
906.272	18369
906.389	18464
906.506	18232
906.623	18296
906.74	18270
906.857	18129
906.974	18171
907.091	18308
907.208	18270
907.324	18239
907.441	18060
907.557	17931
907.674	17908
907.79	17958
907.907	17908
908.023	17965
908.139	18026
908.256	17958
908.372	17821
908.488	17802
908.604	17710
908.72	17638
908.836	17684
908.952	17604
909.068	17771
909.184	17874
909.3	17684
909.415	17623
909.531	17554
909.647	17474
909.762	17398
909.878	17337
909.993	17356
910.108	17459
910.224	17311
910.339	17337
910.454	17322
910.57	17239
910.685	17185
910.8	17376
910.915	17254
911.03	17098
911.145	17048
911.259	16995
911.374	16953
911.489	16949
911.604	16752
911.718	16664
911.833	16759
911.947	16592
912.062	16481
912.176	16641
912.291	16702
912.405	16675
912.519	16824
912.633	16881
912.748	16752
912.862	16736
912.976	16485
913.09	16402
913.204	16398
913.318	16443
913.431	16611
913.545	16500
913.659	16717
913.772	16523
913.886	16265
914	16318
914.113	16379
914.226	16451
914.34	16249
914.453	16181
914.566	16329
914.68	16154
914.793	16074
914.906	15972
915.019	15934
915.132	15812
915.245	15812
915.358	15873
915.47	15979
915.583	15808
915.696	15873
915.809	15945
915.921	15987
916.034	15903
916.146	15717
916.259	15770
916.371	15884
916.483	15774
916.595	15568
916.708	15603
916.82	15633
916.932	15633
917.044	15667
917.156	15591
917.268	15526
917.38	15553
917.491	15538
917.603	15504
917.715	15557
917.826	15507
917.938	15344
918.049	15348
918.161	15435
918.272	15538
918.384	15580
918.495	15443
918.606	15298
918.717	15230
918.828	15233
918.939	15287
919.05	15161
919.161	15272
919.272	14979
919.383	15135
919.494	15237
919.604	15504
919.715	15211
919.826	15119
919.936	15138
920.047	15176
920.157	15287
920.267	15450
920.378	15203
920.488	15036
920.598	15367
920.708	15439
920.818	15348
920.928	15302
921.038	15519
921.148	15469
921.258	15138
921.368	14998
921.477	14937
921.587	14979
921.697	14826
921.806	14826
921.916	14674
922.025	14617
922.134	14431
922.244	14480
922.353	14629
922.462	14419
922.571	14370
922.68	14244
922.789	14187
922.898	14183
923.007	14172
923.116	14180
923.224	14149
923.333	14206
923.442	14024
923.55	14084
923.659	14065
923.767	14100
923.876	13989
923.984	14077
924.092	13993
924.201	13875
924.309	13894
924.417	13852
924.525	13757
924.633	13772
924.741	14511
924.849	13655
924.956	13772
925.064	13578
925.172	13506
925.279	13495
925.387	13613
925.494	13639
925.602	13632
925.709	13651
925.816	13445
925.924	13499
926.031	13582
926.138	13537
926.245	13563
926.352	13400
926.459	13506
926.566	13514
926.673	13468
926.779	13346
926.886	13285
926.993	13206
927.099	13118
927.206	13046
927.312	13027
927.419	13129
927.525	13156
927.631	13027
927.737	12985
927.843	12924
927.95	12878
928.056	12924
928.162	12837
928.267	12996
928.373	13548
928.479	13004
928.585	12730
928.69	12863
928.796	12920
928.901	12745
929.007	12627
929.112	12757
929.218	12726
929.323	12639
929.428	12681
929.533	12715
929.638	12513
929.743	12620
929.848	12642
929.953	12582
930.058	12441
930.163	12266
930.267	12292
930.372	12437
930.477	12308
930.581	12422
930.685	12323
930.79	12201
930.894	12216
930.998	12125
931.103	12213
931.207	11893
931.311	11885
931.415	11726
931.519	11505
931.623	11562
