Data from test_V78500241_610.txt Node
Date: Fri Mar 25 15:46:01 CST 2022
User: usil
Spectrometer: V785-0024
Trigger mode: 0
Integration Time (sec): 4.000000E-1
Scans to average: 1
Nonlinearity correction enabled: false
Boxcar width: 0
Storing dark spectrum: false
XAxis mode: Wavelengths
Number of Pixels in Spectrum: 1024
>>>>>Begin Spectral Data<<<<<
801.071	27914
801.214	27732
801.356	27686
801.499	27500
801.641	27424
801.783	27443
801.926	27542
802.068	27382
802.211	27310
802.353	27272
802.496	27116
802.638	27062
802.78	27161
802.923	27146
803.065	26979
803.208	27112
803.35	27161
803.492	27070
803.635	27359
803.777	27211
803.919	27302
804.061	27526
804.204	27252
804.346	27226
804.488	27119
804.63	27245
804.773	26990
804.915	27298
805.057	27397
805.199	27275
805.341	27279
805.483	27332
805.626	27359
805.768	27310
805.91	27340
806.052	27329
806.194	27344
806.336	27660
806.478	27416
806.62	27431
806.762	27538
806.904	27599
807.046	28006
807.188	27842
807.33	27869
807.472	27911
807.614	27751
807.756	27739
807.898	27660
808.04	27732
808.182	27724
808.324	27599
808.465	27755
808.607	27972
808.749	28044
808.891	28109
809.033	28215
809.174	28128
809.316	28093
809.458	28044
809.6	27918
809.741	28238
809.883	28261
810.025	28367
810.166	28215
810.308	28325
810.45	28360
810.591	28265
810.733	27983
810.875	28044
811.016	27911
811.158	27876
811.299	28287
811.441	28242
811.582	28287
811.724	27960
811.865	28055
812.007	28021
812.148	27983
812.29	28082
812.431	28287
812.573	28291
812.714	28550
812.855	28573
812.997	28599
813.138	28744
813.279	28649
813.421	28569
813.562	28466
813.703	28352
813.845	28154
813.986	27956
814.127	27895
814.268	27671
814.41	27720
814.551	27705
814.692	27739
814.833	27568
814.974	27785
815.115	27827
815.256	27549
815.397	27538
815.539	27701
815.68	27580
815.821	27386
815.962	27515
816.103	27587
816.244	27416
816.385	27401
816.526	27336
816.666	27081
816.807	26937
816.948	27241
817.089	27157
817.23	27013
817.371	27028
817.512	27043
817.653	27135
817.793	27104
817.934	26982
818.075	27009
818.216	27131
818.356	26952
818.497	26823
818.638	26777
818.778	26804
818.919	26910
819.06	26849
819.2	26872
819.341	26883
819.481	26990
819.622	27036
819.762	27188
819.903	27211
820.043	27279
820.184	27203
820.324	27013
820.465	27169
820.605	27165
820.746	27116
820.886	27055
821.026	27112
821.167	27211
821.307	27074
821.447	27051
821.588	26933
821.728	26914
821.868	26621
822.008	26613
822.149	26457
822.289	26404
822.429	26183
822.569	26172
822.709	26301
822.849	25909
822.99	26046
823.13	25890
823.27	25902
823.41	25700
823.55	25803
823.69	25750
823.83	25753
823.97	25814
824.11	25723
824.25	25655
824.389	25677
824.529	25700
824.669	25609
824.809	25727
824.949	25708
825.089	25677
825.228	25719
825.368	25601
825.508	25487
825.648	25514
825.787	25605
825.927	25544
826.067	25445
826.206	25453
826.346	25483
826.485	25582
826.625	25533
826.765	25575
826.904	25575
827.044	25297
827.183	25232
827.323	25129
827.462	25156
827.601	25392
827.741	25285
827.88	25236
828.02	25259
828.159	25171
828.298	25259
828.437	25232
828.577	25206
828.716	25213
828.855	25110
828.994	25000
829.134	24856
829.273	25027
829.412	24867
829.551	24897
829.69	24924
829.829	24916
829.968	24958
830.107	25091
830.246	24954
830.385	24916
830.524	24863
830.663	24707
830.802	24566
830.941	24536
831.08	24551
831.219	24635
831.357	24642
831.496	24753
831.635	24585
831.774	24403
831.913	24429
832.051	24304
832.19	24292
832.329	24285
832.467	24213
832.606	24258
832.744	24129
832.883	24133
833.022	24251
833.16	24232
833.299	24152
833.437	24319
833.576	24262
833.714	24365
833.852	24380
833.991	24308
834.129	24483
834.267	24399
834.406	24270
834.544	24296
834.682	24369
834.821	24163
834.959	24334
835.097	24224
835.235	24300
835.373	24292
835.511	24224
835.65	24121
835.788	24022
835.926	23923
836.064	23889
836.202	23908
836.34	24117
836.478	24148
836.615	23946
836.753	24015
836.891	24057
837.029	24007
837.167	23901
837.305	24018
837.443	23954
837.58	24045
837.718	24148
837.856	24018
837.993	23901
838.131	23939
838.269	23817
838.406	23813
838.544	23703
838.681	23566
838.819	23520
838.956	23410
839.094	23364
839.231	23478
839.369	23486
839.506	23847
839.643	23733
839.781	23414
839.918	23341
840.055	23410
840.193	23258
840.33	23455
840.467	23223
840.604	23391
840.742	23547
840.879	23197
841.016	23197
841.153	23162
841.29	23520
841.427	23258
841.564	23185
841.701	23364
841.838	23223
841.975	23204
842.112	23178
842.249	23170
842.385	23064
842.522	23337
842.659	23299
842.796	23102
842.933	22991
843.069	22995
843.206	22900
843.343	23090
843.479	23124
843.616	22980
843.752	22866
843.889	22873
844.025	22930
844.162	22843
844.298	22934
844.435	22961
844.571	22831
844.708	22809
844.844	22938
844.98	22911
845.117	22968
845.253	22793
845.389	22672
845.525	22782
845.661	22660
845.798	22603
845.934	22634
846.07	22672
846.206	22634
846.342	22744
846.478	22641
846.614	22352
846.75	22272
846.886	22291
847.022	22424
847.158	22287
847.294	22303
847.429	22356
847.565	22253
847.701	22535
847.837	22013
847.972	21926
848.108	22093
848.244	22105
848.379	21949
848.515	21915
848.65	21884
848.786	21907
848.921	21793
849.057	21979
849.192	22010
849.328	21968
849.463	21915
849.598	21778
849.734	21823
849.869	21751
850.004	21606
850.14	21660
850.275	21857
850.41	21587
850.545	21629
850.68	21713
850.815	21644
850.95	21599
851.085	21854
851.22	21800
851.355	21641
851.49	21759
851.625	21568
851.76	21667
851.895	21553
852.03	21511
852.165	21629
852.299	21663
852.434	21709
852.569	21606
852.703	21633
852.838	21804
852.973	21781
853.107	21755
853.242	21614
853.376	21549
853.511	21370
853.645	21504
853.78	21595
853.914	21496
854.048	21447
854.183	21420
854.317	21485
854.451	21625
854.585	21504
854.72	21469
854.854	21583
854.988	21469
855.122	21431
855.256	21336
855.39	21431
855.524	21618
855.658	21500
855.792	21454
855.926	21603
856.06	21564
856.194	21587
856.327	21401
856.461	21351
856.595	21473
856.729	21389
856.862	21660
856.996	21625
857.13	21568
857.263	21599
857.397	21778
857.53	21469
857.664	21614
857.797	21561
857.931	21580
858.064	21542
858.197	21625
858.331	21481
858.464	21458
858.597	21408
858.731	21420
858.864	21420
858.997	21306
859.13	21477
859.263	21511
859.396	21549
859.529	21580
859.662	21405
859.795	21526
859.928	21477
860.061	21545
860.194	21656
860.327	21534
860.46	21553
860.592	21625
860.725	21652
860.858	21557
860.99	21523
861.123	21450
861.256	21408
861.388	21519
861.521	22112
861.653	21408
861.786	21252
861.918	21226
862.05	21340
862.183	21370
862.315	21481
862.447	21473
862.58	21408
862.712	21192
862.844	21169
862.976	21275
863.108	21192
863.24	21599
863.372	21070
863.504	21226
863.636	21135
863.768	21249
863.9	21222
864.032	21089
864.164	21176
864.296	21161
864.428	21195
864.559	21351
864.691	21260
864.823	21176
864.954	21279
865.086	21127
865.217	21173
865.349	21100
865.48	21146
865.612	21131
865.743	21283
865.875	21024
866.006	20994
866.137	21047
866.269	21077
866.4	20914
866.531	21024
866.662	21066
866.793	21058
866.924	21127
867.055	21017
867.186	21123
867.317	21024
867.448	20815
867.579	21058
867.71	20941
867.841	20918
867.972	20979
868.103	20937
868.233	21024
868.364	21017
868.495	21184
868.625	21199
868.756	21340
868.886	21119
869.017	21306
869.147	21367
869.278	21466
869.408	21233
869.539	21260
869.669	21306
869.799	21386
869.929	21287
870.06	21439
870.19	21595
870.32	21492
870.45	21606
870.58	21671
870.71	21679
870.84	21789
870.97	21610
871.1	21542
871.23	21964
871.36	21785
871.489	21766
871.619	21854
871.749	21979
871.879	21949
872.008	21930
872.138	21812
872.267	21835
872.397	21747
872.526	21663
872.656	21625
872.785	21728
872.915	21869
873.044	21888
873.173	21831
873.303	21861
873.432	21873
873.561	21945
873.69	21857
873.819	21869
873.948	22013
874.077	21937
874.206	21873
874.335	21808
874.464	21964
874.593	22158
874.722	22032
874.851	22097
874.979	22067
875.108	22131
875.237	22010
875.365	21983
875.494	22032
875.623	22120
875.751	22120
875.88	22204
876.008	22238
876.136	22268
876.265	22436
876.393	22478
876.521	22557
876.65	22637
876.778	22474
876.906	22497
877.034	22360
877.162	22440
877.29	22436
877.418	22356
877.546	22417
877.674	22344
877.802	22306
877.93	22531
878.058	22284
878.185	22287
878.313	22325
878.441	22344
878.568	22310
878.696	22348
878.824	22474
878.951	22569
879.079	22584
879.206	22721
879.333	22664
879.461	22417
879.588	22618
879.715	22573
879.842	22740
879.97	22459
880.097	22246
880.224	22215
880.351	22204
880.478	22352
880.605	22112
880.732	22295
880.859	22538
880.986	22291
881.112	22295
881.239	22112
881.366	21968
881.493	21930
881.619	21979
881.746	21827
881.872	21808
881.999	21808
882.125	21797
882.252	21945
882.378	21793
882.505	21964
882.631	21713
882.757	21614
882.883	21774
883.01	21583
883.136	21507
883.262	21428
883.388	21298
883.514	21492
883.64	21648
883.766	21568
883.892	21302
884.018	21287
884.143	21435
884.269	21614
884.395	21188
884.52	21222
884.646	21188
884.772	21043
884.897	21184
885.023	21195
885.148	21249
885.274	21302
885.399	21195
885.524	21138
885.65	21272
885.775	21180
885.9	21138
886.025	21302
886.15	21188
886.275	21180
886.4	21211
886.525	21116
886.65	21070
886.775	21039
886.9	21279
887.025	21298
887.149	21192
887.274	21013
887.399	21009
887.523	20944
887.648	20880
887.773	20925
887.897	21001
888.021	20963
888.146	21047
888.27	20994
888.395	21089
888.519	20880
888.643	20899
888.767	21028
888.891	20849
889.015	20754
889.139	20746
889.263	20731
889.387	20872
889.511	20967
889.635	20921
889.759	20674
889.883	20800
890.006	20731
890.13	20845
890.254	20712
890.377	20762
890.501	20499
890.624	20442
890.748	20564
890.871	20301
890.995	20317
891.118	20381
891.241	20275
891.364	20347
891.488	20446
891.611	20275
891.734	20206
891.857	20313
891.98	20252
892.103	20347
892.226	20294
892.349	20225
892.471	20054
892.594	20286
892.717	20275
892.839	20225
892.962	20282
893.085	20290
893.207	20138
893.33	20100
893.452	20084
893.575	20149
893.697	20195
893.819	20328
893.941	20412
894.064	20286
894.186	20073
894.308	20134
894.43	20396
894.552	20347
894.674	20404
894.796	19997
894.918	20142
895.04	19978
895.161	20244
895.283	20168
895.405	20172
895.526	20240
895.648	20187
895.769	20370
895.891	20263
896.012	20286
896.134	20199
896.255	20237
896.376	20142
896.498	20237
896.619	20332
896.74	20305
896.861	20244
896.982	20431
897.103	20735
897.224	20617
897.345	20431
897.466	20332
897.587	20415
897.708	20575
897.828	20332
897.949	20476
898.07	20275
898.19	20408
898.311	20526
898.431	20286
898.552	20461
898.672	20423
898.792	20457
898.913	20427
899.033	20301
899.153	20263
899.273	20107
899.393	20290
899.513	20191
899.633	20172
899.753	20191
899.873	20084
899.993	20214
900.113	20103
900.232	20100
900.352	20176
900.472	20103
900.591	19868
900.711	19925
900.83	19947
900.95	20153
901.069	19951
901.189	19894
901.308	19628
901.427	19537
901.546	19552
901.665	19502
901.784	19628
901.904	19476
902.023	19350
902.141	19198
902.26	18951
902.379	19152
902.498	19072
902.617	19038
902.735	19072
902.854	19000
902.973	18993
903.091	18814
903.21	18779
903.328	18715
903.446	18688
903.565	18540
903.683	18509
903.801	18521
903.919	18544
904.038	18426
904.156	18308
904.274	18369
904.392	18338
904.51	18270
904.627	18273
904.745	18407
904.863	18357
904.981	18110
905.098	17973
905.216	17931
905.334	18148
905.451	17977
905.569	18019
905.686	18022
905.803	17908
905.921	17802
906.038	17855
906.155	17771
906.272	17722
906.389	17779
906.506	17611
906.623	17410
906.74	17444
906.857	17360
906.974	17395
907.091	17570
907.208	17695
907.324	17589
907.441	17315
907.557	17345
907.674	17254
907.79	17235
907.907	17280
908.023	17307
908.139	17121
908.256	17181
908.372	17102
908.488	17143
908.604	16957
908.72	16938
908.836	16972
908.952	16961
909.068	16953
909.184	16957
909.3	16965
909.415	17010
909.531	16854
909.647	16679
909.762	16675
909.878	16740
909.993	16710
910.108	16618
910.224	16558
910.339	16493
910.454	16447
910.57	16516
910.685	16363
910.8	16668
910.915	16592
911.03	16493
911.145	16379
911.259	16337
911.374	16169
911.489	16131
911.604	16116
911.718	16025
911.833	16063
911.947	15842
912.062	15850
912.176	16002
912.291	16055
912.405	16006
912.519	16082
912.633	16230
912.748	15945
912.862	15903
912.976	15895
913.09	15606
913.204	15679
913.318	15770
913.431	15835
913.545	15865
913.659	15842
913.772	15774
913.886	15606
914	15606
914.113	15637
914.226	15591
914.34	15584
914.453	15496
914.566	15618
914.68	15416
914.793	15466
914.906	15298
915.019	15192
915.132	15184
915.245	15241
915.358	15249
915.47	15268
915.583	15199
915.696	15188
915.809	15332
915.921	15332
916.034	15138
916.146	15165
916.259	15195
916.371	15279
916.483	15272
916.595	15097
916.708	15066
916.82	14975
916.932	15020
917.044	14990
917.156	14994
917.268	14952
917.38	14895
917.491	14941
917.603	14842
917.715	14902
917.826	15024
917.938	14807
918.049	14701
918.161	14796
918.272	14921
918.384	14944
918.495	14918
918.606	14663
918.717	14587
918.828	14724
918.939	14598
919.05	14526
919.161	14606
919.272	14446
919.383	14480
919.494	14621
919.604	14800
919.715	14583
919.826	14522
919.936	14564
920.047	14678
920.157	14632
920.267	14807
920.378	14518
920.488	14469
920.598	14621
920.708	14933
920.818	14655
920.928	14682
921.038	14902
921.148	14826
921.258	14533
921.368	14393
921.477	14332
921.587	14332
921.697	14134
921.806	14347
921.916	14176
922.025	14008
922.134	14008
922.244	13970
922.353	14008
922.462	13871
922.571	13769
922.68	13708
922.789	13605
922.898	13651
923.007	13597
923.116	13674
923.224	13548
923.333	13514
923.442	13434
923.55	13472
923.659	13449
923.767	13472
923.876	13403
923.984	13381
924.092	13285
924.201	13403
924.309	13381
924.417	13339
924.525	13297
924.633	13304
924.741	14275
924.849	13072
924.956	13171
925.064	13061
925.172	13008
925.279	12970
925.387	13080
925.494	13069
925.602	13095
925.709	13126
925.816	12833
925.924	12928
926.031	13152
926.138	12985
926.245	13038
926.352	12768
926.459	12970
926.566	13091
926.673	12913
926.779	12681
926.886	12757
926.993	12574
927.099	12578
927.206	12574
927.312	12601
927.419	12574
927.525	12593
927.631	12620
927.737	12486
927.843	12498
927.95	12330
928.056	12292
928.162	12494
928.267	12498
928.373	13080
928.479	12513
928.585	12251
928.69	12429
928.796	12384
928.901	12266
929.007	12095
929.112	12315
929.218	12254
929.323	12209
929.428	12117
929.533	12243
929.638	11996
929.743	12053
929.848	12095
929.953	12038
930.058	11977
930.163	11798
930.267	11882
930.372	11950
930.477	11870
930.581	12003
930.685	11821
930.79	11695
930.894	11771
930.998	11703
931.103	11802
931.207	11452
931.311	11387
931.415	11254
931.519	11102
931.623	11090
