Data from test_V78500241_2574.txt Node
Date: Fri Mar 25 15:59:37 CST 2022
User: usil
Spectrometer: V785-0024
Trigger mode: 0
Integration Time (sec): 4.000000E-1
Scans to average: 1
Nonlinearity correction enabled: false
Boxcar width: 0
Storing dark spectrum: false
XAxis mode: Wavelengths
Number of Pixels in Spectrum: 1024
>>>>>Begin Spectral Data<<<<<
801.071	29006
801.214	28881
801.356	28653
801.499	28645
801.641	28440
801.783	28363
801.926	28493
802.068	28455
802.211	28401
802.353	28379
802.496	28230
802.638	28196
802.78	28230
802.923	28109
803.065	28074
803.208	27968
803.35	28215
803.492	28360
803.635	28424
803.777	28230
803.919	28481
804.061	28748
804.204	28451
804.346	28363
804.488	28360
804.63	28405
804.773	28440
804.915	28390
805.057	28596
805.199	28276
805.341	28519
805.483	28455
805.626	28584
805.768	28432
805.91	28577
806.052	28519
806.194	28379
806.336	28713
806.478	28523
806.62	28580
806.762	28706
806.904	28816
807.046	29102
807.188	29006
807.33	29181
807.472	29113
807.614	29018
807.756	28999
807.898	28866
808.04	28809
808.182	28869
808.324	28927
808.465	29075
808.607	29140
808.749	29227
808.891	29395
809.033	29452
809.174	29345
809.316	29254
809.458	29303
809.6	29220
809.741	29455
809.883	29356
810.025	29570
810.166	29509
810.308	29589
810.45	29444
810.591	29452
810.733	29292
810.875	29463
811.016	29090
811.158	29315
811.299	29220
811.441	29509
811.582	29471
811.724	29318
811.865	29299
812.007	29353
812.148	29303
812.29	29406
812.431	29493
812.573	29596
812.714	29764
812.855	29737
812.997	30072
813.138	30091
813.279	30034
813.421	29916
813.562	29733
813.703	29615
813.845	29493
813.986	29235
814.127	29132
814.268	28999
814.41	28972
814.551	28896
814.692	28953
814.833	28919
814.974	28961
815.115	29010
815.256	28999
815.397	28965
815.539	28873
815.68	28828
815.821	28763
815.962	28904
816.103	28812
816.244	28725
816.385	28523
816.526	28759
816.666	28481
816.807	28276
816.948	28451
817.089	28474
817.23	28348
817.371	28329
817.512	28276
817.653	28329
817.793	28295
817.934	28299
818.075	28261
818.216	28246
818.356	28226
818.497	28322
818.638	28055
818.778	28109
818.919	28166
819.06	28268
819.2	28287
819.341	28413
819.481	28413
819.622	28573
819.762	28687
819.903	28615
820.043	28481
820.184	28546
820.324	28470
820.465	28573
820.605	28550
820.746	28333
820.886	28367
821.026	28527
821.167	28348
821.307	28512
821.447	28455
821.588	28223
821.728	28162
821.868	27998
822.008	27899
822.149	27865
822.289	27812
822.429	27496
822.569	27698
822.709	27576
822.849	27313
822.99	27378
823.13	27439
823.27	27268
823.41	27165
823.55	27100
823.69	27184
823.83	27218
823.97	27108
824.11	27089
824.25	27020
824.389	26979
824.529	27081
824.669	27005
824.809	27047
824.949	27176
825.089	27127
825.228	27100
825.368	26781
825.508	26815
825.648	26842
825.787	26967
825.927	26933
826.067	26880
826.206	26842
826.346	27062
826.485	27032
826.625	26937
826.765	27001
826.904	26940
827.044	26648
827.183	26659
827.323	26594
827.462	26590
827.601	26541
827.741	26682
827.88	26613
828.02	26579
828.159	26663
828.298	26682
828.437	26674
828.577	26488
828.716	26632
828.855	26636
828.994	26396
829.134	26298
829.273	26415
829.412	26313
829.551	26221
829.69	26172
829.829	26267
829.968	26385
830.107	26343
830.246	26355
830.385	26191
830.524	26199
830.663	26237
830.802	25955
830.941	25860
831.08	25822
831.219	26073
831.357	26092
831.496	26130
831.635	25822
831.774	25833
831.913	25864
832.051	25791
832.19	25708
832.329	25746
832.467	25582
832.606	25540
832.744	25601
832.883	25506
833.022	25575
833.16	25620
833.299	25559
833.437	25666
833.576	25658
833.714	25567
833.852	25727
833.991	25742
834.129	25784
834.267	25868
834.406	25571
834.544	25601
834.682	25605
834.821	25693
834.959	25849
835.097	25651
835.235	25537
835.373	25639
835.511	25594
835.65	25460
835.788	25476
835.926	25308
836.064	25270
836.202	25297
836.34	25354
836.478	25681
836.615	25514
836.753	25400
836.891	25514
837.029	25502
837.167	25236
837.305	25320
837.443	25320
837.58	25213
837.718	25400
837.856	25263
837.993	25175
838.131	25244
838.269	25133
838.406	25175
838.544	25110
838.681	24875
838.819	24894
838.956	24620
839.094	24673
839.231	24730
839.369	25012
839.506	25057
839.643	24962
839.781	24707
839.918	24627
840.055	24757
840.193	24696
840.33	24661
840.467	24715
840.604	24711
840.742	24844
840.879	24494
841.016	24574
841.153	24490
841.29	24711
841.427	24738
841.564	24585
841.701	24574
841.838	24566
841.975	24490
842.112	24448
842.249	24327
842.385	24342
842.522	24620
842.659	24483
842.796	24311
842.933	24376
843.069	24197
843.206	24334
843.343	24342
843.479	24414
843.616	24464
843.752	24144
843.889	24114
844.025	24308
844.162	24087
844.298	24220
844.435	24258
844.571	24121
844.708	24133
844.844	24228
844.98	24414
845.117	24285
845.253	24102
845.389	23927
845.525	24087
845.661	23893
845.798	23855
845.934	24003
846.07	23882
846.206	23908
846.342	24018
846.478	23821
846.614	23619
846.75	23570
846.886	23684
847.022	23699
847.158	23718
847.294	23585
847.429	23619
847.565	23596
847.701	23843
847.837	23444
847.972	23265
848.108	23379
848.244	23444
848.379	23189
848.515	23239
848.65	23121
848.786	23273
848.921	23345
849.057	23292
849.192	23265
849.328	23254
849.463	23200
849.598	23037
849.734	23056
849.869	23018
850.004	23044
850.14	22869
850.275	22930
850.41	22911
850.545	22900
850.68	22881
850.815	23014
850.95	22987
851.085	23090
851.22	23067
851.355	22900
851.49	23025
851.625	22904
851.76	22923
851.895	22911
852.03	22987
852.165	22927
852.299	23033
852.434	23094
852.569	22976
852.703	22927
852.838	23067
852.973	23052
853.107	22927
853.242	22923
853.376	22831
853.511	22679
853.645	22687
853.78	22961
853.914	22774
854.048	22782
854.183	22805
854.317	22805
854.451	23014
854.585	22752
854.72	22805
854.854	22858
854.988	22694
855.122	22763
855.256	22588
855.39	22790
855.524	22721
855.658	22904
855.792	22862
855.926	22786
856.06	22816
856.194	22805
856.327	22679
856.461	22691
856.595	22752
856.729	22774
856.862	22782
856.996	22782
857.13	22847
857.263	22771
857.397	22824
857.53	22752
857.664	22877
857.797	22717
857.931	22869
858.064	22687
858.197	22881
858.331	22691
858.464	22645
858.597	22615
858.731	22809
858.864	22805
858.997	22778
859.13	22740
859.263	22820
859.396	22828
859.529	22793
859.662	22774
859.795	22801
859.928	22790
860.061	22839
860.194	23044
860.327	22915
860.46	22774
860.592	22896
860.725	22999
860.858	22930
860.99	22664
861.123	22752
861.256	22634
861.388	22698
861.521	23524
861.653	22660
861.786	22550
861.918	22637
862.05	22656
862.183	22649
862.315	22691
862.447	22717
862.58	22637
862.712	22470
862.844	22519
862.976	22550
863.108	22668
863.24	23003
863.372	22443
863.504	22538
863.636	22421
863.768	22500
863.9	22527
864.032	22405
864.164	22413
864.296	22550
864.428	22592
864.559	22618
864.691	22565
864.823	22455
864.954	22550
865.086	22348
865.217	22386
865.349	22306
865.48	22318
865.612	22325
865.743	22424
865.875	22352
866.006	22352
866.137	22318
866.269	22322
866.4	22246
866.531	22188
866.662	22131
866.793	22356
866.924	22352
867.055	22272
867.186	22436
867.317	22238
867.448	22078
867.579	22276
867.71	22147
867.841	22124
867.972	22242
868.103	22238
868.233	22261
868.364	22268
868.495	22337
868.625	22474
868.756	22637
868.886	22504
869.017	22519
869.147	22607
869.278	22588
869.408	22523
869.539	22523
869.669	22542
869.799	22546
869.929	22603
870.06	22546
870.19	22858
870.32	22748
870.45	22873
870.58	22847
870.71	22999
870.84	23075
870.97	22911
871.1	22957
871.23	23162
871.36	23197
871.489	23086
871.619	23102
871.749	23075
871.879	23128
872.008	23208
872.138	23151
872.267	23003
872.397	22927
872.526	22847
872.656	23014
872.785	22828
872.915	23216
873.044	23162
873.173	23155
873.303	23162
873.432	23102
873.561	23200
873.69	23220
873.819	23223
873.948	23212
874.077	23242
874.206	23178
874.335	22999
874.464	23231
874.593	23398
874.722	23387
874.851	23459
874.979	23296
875.108	23379
875.237	23311
875.365	23113
875.494	23398
875.623	23421
875.751	23315
875.88	23379
876.008	23410
876.136	23467
876.265	23737
876.393	23882
876.521	23817
876.65	23718
876.778	23737
876.906	23783
877.034	23710
877.162	23767
877.29	23687
877.418	23699
877.546	23752
877.674	23802
877.802	23699
877.93	23573
878.058	23520
878.185	23463
878.313	23551
878.441	23646
878.568	23539
878.696	23623
878.824	23748
878.951	23691
879.079	23885
879.206	23923
879.333	23817
879.461	23726
879.588	23802
879.715	23729
879.842	23969
879.97	23748
880.097	23528
880.224	23524
880.351	23467
880.478	23634
880.605	23448
880.732	23444
880.859	23707
880.986	23452
881.112	23531
881.239	23197
881.366	23250
881.493	23155
881.619	23102
881.746	23048
881.872	23121
881.999	23022
882.125	22968
882.252	23052
882.378	23060
882.505	23048
882.631	22908
882.757	22683
882.883	22927
883.01	22713
883.136	22607
883.262	22668
883.388	22557
883.514	22835
883.64	22763
883.766	22588
883.892	22497
884.018	22538
884.143	22672
884.269	22797
884.395	22424
884.52	22405
884.646	22413
884.772	22188
884.897	22200
885.023	22443
885.148	22443
885.274	22569
885.399	22470
885.524	22333
885.65	22291
885.775	22348
885.9	22322
886.025	22470
886.15	22474
886.275	22303
886.4	22196
886.525	22219
886.65	22211
886.775	22386
886.9	22371
887.025	22584
887.149	22352
887.274	22185
887.399	22017
887.523	22090
887.648	22139
887.773	21994
887.897	22185
888.021	22158
888.146	22017
888.27	22162
888.395	22147
888.519	22158
888.643	22112
888.767	22105
888.891	21926
889.015	21876
889.139	21972
889.263	21873
889.387	21972
889.511	22162
889.635	22063
889.759	21819
889.883	21884
890.006	21918
890.13	21975
890.254	21850
890.377	21861
890.501	21671
890.624	21610
890.748	21743
890.871	21633
890.995	21447
891.118	21412
891.241	21412
891.364	21374
891.488	21599
891.611	21557
891.734	21405
891.857	21511
891.98	21348
892.103	21458
892.226	21485
892.349	21401
892.471	21245
892.594	21260
892.717	21294
892.839	21302
892.962	21348
893.085	21275
893.207	21283
893.33	21211
893.452	21207
893.575	21424
893.697	21348
893.819	21603
893.941	21561
894.064	21405
894.186	21264
894.308	21226
894.43	21252
894.552	21488
894.674	21504
894.796	21230
894.918	21283
895.04	21256
895.161	21275
895.283	21283
895.405	21348
895.526	21386
895.648	21275
895.769	21359
895.891	21313
896.012	21355
896.134	21294
896.255	21344
896.376	21332
896.498	21283
896.619	21340
896.74	21386
896.861	21359
896.982	21644
897.103	21675
897.224	21454
897.345	21625
897.466	21424
897.587	21473
897.708	21606
897.828	21603
897.949	21485
898.07	21207
898.19	21450
898.311	21500
898.431	21363
898.552	21496
898.672	21496
898.792	21633
898.913	21496
899.033	21389
899.153	21157
899.273	21211
899.393	21199
899.513	21306
899.633	21291
899.753	21241
899.873	21108
899.993	21195
900.113	21154
900.232	21142
900.352	21116
900.472	21001
900.591	20895
900.711	21013
900.83	21032
900.95	21077
901.069	21020
901.189	20773
901.308	20598
901.427	20552
901.546	20541
901.665	20503
901.784	20511
901.904	20309
902.023	20419
902.141	20183
902.26	20035
902.379	20050
902.498	20107
902.617	19997
902.735	20130
902.854	19967
902.973	19970
903.091	19689
903.21	19784
903.328	19769
903.446	19655
903.565	19544
903.683	19449
903.801	19324
903.919	19472
904.038	19510
904.156	19304
904.274	19373
904.392	19244
904.51	19247
904.627	19331
904.745	19221
904.863	19259
904.981	19168
905.098	18954
905.216	18954
905.334	18939
905.451	19015
905.569	18821
905.686	18973
905.803	18985
905.921	18734
906.038	18837
906.155	18681
906.272	18578
906.389	18688
906.506	18540
906.623	18467
906.74	18384
906.857	18224
906.974	18372
907.091	18486
907.208	18559
907.324	18437
907.441	18319
907.557	18152
907.674	18251
907.79	18098
907.907	18243
908.023	18167
908.139	18220
908.256	18087
908.372	18095
908.488	18057
908.604	17927
908.72	17878
908.836	17859
908.952	17760
909.068	17794
909.184	17904
909.3	17824
909.415	17904
909.531	17897
909.647	17642
909.762	17577
909.878	17638
909.993	17608
910.108	17459
910.224	17493
910.339	17676
910.454	17459
910.57	17467
910.685	17391
910.8	17562
910.915	17444
911.03	17318
911.145	17136
911.259	17098
911.374	17155
911.489	17041
911.604	17041
911.718	16904
911.833	16862
911.947	16797
912.062	16706
912.176	17033
912.291	16858
912.405	16767
912.519	17014
912.633	16923
912.748	16980
912.862	16828
912.976	16672
913.09	16565
913.204	16660
913.318	16710
913.431	16793
913.545	16755
913.659	16843
913.772	16634
913.886	16485
914	16599
914.113	16622
914.226	16527
914.34	16413
914.453	16424
914.566	16523
914.68	16428
914.793	16265
914.906	16147
915.019	16006
915.132	15994
915.245	16032
915.358	16135
915.47	16044
915.583	16074
915.696	16105
915.809	16147
915.921	16128
916.034	16044
916.146	15972
916.259	15888
916.371	15960
916.483	15964
916.595	15827
916.708	15907
916.82	15895
916.932	15816
917.044	15854
917.156	15743
917.268	15629
917.38	15720
917.491	15667
917.603	15641
917.715	15804
917.826	15827
917.938	15576
918.049	15648
918.161	15530
918.272	15732
918.384	15736
918.495	15538
918.606	15405
918.717	15336
918.828	15367
918.939	15420
919.05	15370
919.161	15458
919.272	15135
919.383	15264
919.494	15435
919.604	15660
919.715	15378
919.826	15313
919.936	15378
920.047	15420
920.157	15405
920.267	15458
920.378	15382
920.488	15332
920.598	15492
920.708	15633
920.818	15382
920.928	15473
921.038	15614
921.148	15614
921.258	15245
921.368	15275
921.477	15116
921.587	15089
921.697	14895
921.806	14982
921.916	14876
922.025	14705
922.134	14781
922.244	14712
922.353	14689
922.462	14526
922.571	14575
922.68	14324
922.789	14377
922.898	14328
923.007	14278
923.116	14374
923.224	14332
923.333	14218
923.442	14202
923.55	14240
923.659	14142
923.767	14221
923.876	14027
923.984	14142
924.092	14027
924.201	14035
924.309	14088
924.417	14035
924.525	13989
924.633	13955
924.741	14918
924.849	13761
924.956	13890
925.064	13712
925.172	13689
925.279	13704
925.387	13681
925.494	13670
925.602	13776
925.709	13788
925.816	13616
925.924	13655
926.031	13723
926.138	13620
926.245	13761
926.352	13510
926.459	13662
926.566	13822
926.673	13521
926.779	13453
926.886	13354
926.993	13274
927.099	13324
927.206	13232
927.312	13129
927.419	13369
927.525	13187
927.631	13190
927.737	13099
927.843	13050
927.95	12989
928.056	12973
928.162	13023
928.267	13076
928.373	13441
928.479	13149
928.585	12825
928.69	13031
928.796	12989
928.901	12852
929.007	12795
929.112	12935
929.218	12871
929.323	12894
929.428	12764
929.533	12863
929.638	12692
929.743	12658
929.848	12707
929.953	12711
930.058	12559
930.163	12319
930.267	12418
930.372	12582
930.477	12327
930.581	12559
930.685	12445
930.79	12319
930.894	12403
930.998	12285
931.103	12395
931.207	12019
931.311	11988
931.415	11916
931.519	11699
931.623	11608
