Data from test_V78500241_916.txt Node
Date: Fri Mar 25 15:48:08 CST 2022
User: usil
Spectrometer: V785-0024
Trigger mode: 0
Integration Time (sec): 4.000000E-1
Scans to average: 1
Nonlinearity correction enabled: false
Boxcar width: 0
Storing dark spectrum: false
XAxis mode: Wavelengths
Number of Pixels in Spectrum: 1024
>>>>>Begin Spectral Data<<<<<
801.071	28128
801.214	27975
801.356	27797
801.499	27618
801.641	27427
801.783	27538
801.926	27675
802.068	27625
802.211	27583
802.353	27466
802.496	27207
802.638	27233
802.78	27176
802.923	27154
803.065	27055
803.208	27203
803.35	27252
803.492	27408
803.635	27431
803.777	27325
803.919	27386
804.061	27842
804.204	27538
804.346	27488
804.488	27306
804.63	27287
804.773	27389
804.915	27412
805.057	27526
805.199	27363
805.341	27545
805.483	27538
805.626	27523
805.768	27557
805.91	27656
806.052	27595
806.194	27542
806.336	27595
806.478	27488
806.62	27656
806.762	27732
806.904	27781
807.046	28124
807.188	28070
807.33	28040
807.472	27873
807.614	27949
807.756	27979
807.898	27899
808.04	27762
808.182	27793
808.324	27895
808.465	27926
808.607	28055
808.749	28318
808.891	28405
809.033	28375
809.174	28265
809.316	28074
809.458	28158
809.6	28166
809.741	28360
809.883	28382
810.025	28459
810.166	28443
810.308	28588
810.45	28390
810.591	28390
810.733	28318
810.875	28226
811.016	28185
811.158	28200
811.299	28303
811.441	28382
811.582	28295
811.724	28333
811.865	28299
812.007	28143
812.148	28109
812.29	28276
812.431	28443
812.573	28466
812.714	28672
812.855	28786
812.997	28915
813.138	28953
813.279	28831
813.421	28649
813.562	28839
813.703	28607
813.845	28500
813.986	28192
814.127	28093
814.268	27972
814.41	28036
814.551	28002
814.692	28051
814.833	27994
814.974	27903
815.115	27918
815.256	27785
815.397	27842
815.539	27873
815.68	27778
815.821	27793
815.962	27595
816.103	27720
816.244	27637
816.385	27515
816.526	27454
816.666	27382
816.807	27279
816.948	27344
817.089	27370
817.23	27340
817.371	27195
817.512	27245
817.653	27260
817.793	27180
817.934	27283
818.075	27176
818.216	27142
818.356	27211
818.497	27112
818.638	27066
818.778	27013
818.919	27096
819.06	27085
819.2	27123
819.341	27264
819.481	27310
819.622	27401
819.762	27530
819.903	27450
820.043	27348
820.184	27363
820.324	27306
820.465	27424
820.605	27359
820.746	27264
820.886	27203
821.026	27363
821.167	27382
821.307	27382
821.447	27283
821.588	27188
821.728	27077
821.868	26857
822.008	26792
822.149	26705
822.289	26636
822.429	26453
822.569	26446
822.709	26332
822.849	26221
822.99	26294
823.13	26286
823.27	26240
823.41	26054
823.55	26001
823.69	25989
823.83	25928
823.97	26005
824.11	25696
824.25	25791
824.389	25833
824.529	25849
824.669	25898
824.809	25963
824.949	25951
825.089	25993
825.228	25830
825.368	25738
825.508	25818
825.648	25776
825.787	25883
825.927	25906
826.067	25765
826.206	25750
826.346	25757
826.485	25902
826.625	25738
826.765	25890
826.904	25704
827.044	25609
827.183	25487
827.323	25396
827.462	25445
827.601	25422
827.741	25365
827.88	25445
828.02	25381
828.159	25403
828.298	25552
828.437	25403
828.577	25278
828.716	25502
828.855	25312
828.994	25198
829.134	25168
829.273	25175
829.412	25012
829.551	25046
829.69	25031
829.829	25190
829.968	25259
830.107	25232
830.246	25065
830.385	25148
830.524	25148
830.663	24981
830.802	24814
830.941	24783
831.08	24650
831.219	24837
831.357	24642
831.496	24882
831.635	24719
831.774	24559
831.913	24654
832.051	24593
832.19	24593
832.329	24604
832.467	24502
832.606	24289
832.744	24327
832.883	24346
833.022	24315
833.16	24403
833.299	24582
833.437	24433
833.576	24315
833.714	24384
833.852	24448
833.991	24517
834.129	24604
834.267	24460
834.406	24623
834.544	24479
834.682	24395
834.821	24456
834.959	24612
835.097	24300
835.235	24460
835.373	24505
835.511	24570
835.65	24277
835.788	24315
835.926	24323
836.064	24136
836.202	24163
836.34	24232
836.478	24407
836.615	24277
836.753	24270
836.891	24426
837.029	24330
837.167	24258
837.305	24186
837.443	24129
837.58	24205
837.718	24209
837.856	24342
837.993	24098
838.131	24201
838.269	24125
838.406	24034
838.544	24121
838.681	23786
838.819	23695
838.956	23482
839.094	23615
839.231	23714
839.369	23726
839.506	23965
839.643	23802
839.781	23733
839.918	23486
840.055	23619
840.193	23680
840.33	23585
840.467	23562
840.604	23577
840.742	23722
840.879	23448
841.016	23452
841.153	23387
841.29	23619
841.427	23539
841.564	23551
841.701	23581
841.838	23459
841.975	23471
842.112	23429
842.249	23417
842.385	23372
842.522	23417
842.659	23288
842.796	23261
842.933	23288
843.069	23181
843.206	23246
843.343	23277
843.479	23273
843.616	23417
843.752	23090
843.889	23041
844.025	23159
844.162	22915
844.298	23208
844.435	22999
844.571	23029
844.708	23025
844.844	23185
844.98	23189
845.117	23105
845.253	22923
845.389	22923
845.525	22965
845.661	22824
845.798	22721
845.934	22866
846.07	22778
846.206	22755
846.342	22961
846.478	22831
846.614	22713
846.75	22447
846.886	22535
847.022	22637
847.158	22630
847.294	22535
847.429	22485
847.565	22512
847.701	22812
847.837	22280
847.972	22097
848.108	22257
848.244	22261
848.379	22090
848.515	22143
848.65	22006
848.786	22029
848.921	22150
849.057	22192
849.192	22147
849.328	22105
849.463	22074
849.598	22036
849.734	22021
849.869	21956
850.004	21895
850.14	21941
850.275	21781
850.41	21835
850.545	21827
850.68	21869
850.815	21968
850.95	21876
851.085	22029
851.22	21960
851.355	21895
851.49	21842
851.625	21823
851.76	21907
851.895	21819
852.03	21819
852.165	21953
852.299	21949
852.434	21975
852.569	21850
852.703	21960
852.838	21873
852.973	22040
853.107	22006
853.242	21842
853.376	21751
853.511	21530
853.645	21568
853.78	21724
853.914	21633
854.048	21561
854.183	21644
854.317	21724
854.451	21850
854.585	21671
854.72	21656
854.854	21679
854.988	21644
855.122	21641
855.256	21618
855.39	21625
855.524	21660
855.658	21713
855.792	21686
855.926	21732
856.06	21819
856.194	21850
856.327	21709
856.461	21648
856.595	21580
856.729	21663
856.862	21850
856.996	21679
857.13	21785
857.263	21835
857.397	21823
857.53	21690
857.664	21682
857.797	21762
857.931	21808
858.064	21690
858.197	21781
858.331	21690
858.464	21629
858.597	21507
858.731	21690
858.864	21568
858.997	21530
859.13	21614
859.263	21698
859.396	21736
859.529	21507
859.662	21660
859.795	21667
859.928	21755
860.061	21816
860.194	21816
860.327	21694
860.46	21713
860.592	21857
860.725	21865
860.858	21953
860.99	21660
861.123	21580
861.256	21526
861.388	21553
861.521	22409
861.653	21603
861.786	21515
861.918	21382
862.05	21622
862.183	21675
862.315	21637
862.447	21641
862.58	21671
862.712	21538
862.844	21294
862.976	21542
863.108	21564
863.24	21686
863.372	21355
863.504	21355
863.636	21496
863.768	21374
863.9	21488
864.032	21310
864.164	21367
864.296	21408
864.428	21454
864.559	21401
864.691	21408
864.823	21447
864.954	21332
865.086	21469
865.217	21332
865.349	21199
865.48	21405
865.612	21386
865.743	21329
865.875	21165
866.006	21405
866.137	21363
866.269	21313
866.4	21199
866.531	21272
866.662	21161
866.793	21176
866.924	21332
867.055	21241
867.186	21264
867.317	21127
867.448	21112
867.579	21173
867.71	21184
867.841	21119
867.972	21245
868.103	21077
868.233	21294
868.364	21157
868.495	21184
868.625	21458
868.756	21660
868.886	21450
869.017	21370
869.147	21610
869.278	21736
869.408	21443
869.539	21526
869.669	21374
869.799	21515
869.929	21542
870.06	21504
870.19	21762
870.32	21774
870.45	21778
870.58	21812
870.71	21930
870.84	21915
870.97	21892
871.1	21895
871.23	22097
871.36	22124
871.489	21922
871.619	21941
871.749	22044
871.879	22093
872.008	22093
872.138	22074
872.267	21983
872.397	21934
872.526	21812
872.656	21876
872.785	21918
872.915	22131
873.044	22265
873.173	22070
873.303	22044
873.432	22131
873.561	22215
873.69	22070
873.819	22048
873.948	22200
874.077	22093
874.206	21998
874.335	22063
874.464	22219
874.593	22394
874.722	22143
874.851	22318
874.979	22337
875.108	22181
875.237	22265
875.365	22246
875.494	22272
875.623	22272
875.751	22375
875.88	22261
876.008	22428
876.136	22466
876.265	22649
876.393	22771
876.521	22866
876.65	22725
876.778	22637
876.906	22580
877.034	22478
877.162	22660
877.29	22580
877.418	22500
877.546	22702
877.674	22588
877.802	22550
877.93	22713
878.058	22580
878.185	22550
878.313	22580
878.441	22710
878.568	22466
878.696	22584
878.824	22599
878.951	22653
879.079	22809
879.206	22869
879.333	22839
879.461	22664
879.588	22778
879.715	22793
879.842	22942
879.97	22694
880.097	22538
880.224	22405
880.351	22504
880.478	22462
880.605	22512
880.732	22402
880.859	22694
880.986	22485
881.112	22459
881.239	22284
881.366	22177
881.493	22013
881.619	22234
881.746	22090
881.872	22051
881.999	21888
882.125	21934
882.252	21960
882.378	21991
882.505	22105
882.631	21808
882.757	21823
882.883	21823
883.01	21709
883.136	21739
883.262	21599
883.388	21526
883.514	21736
883.64	21656
883.766	21663
883.892	21443
884.018	21473
884.143	21553
884.269	21667
884.395	21428
884.52	21275
884.646	21294
884.772	21237
884.897	21291
885.023	21329
885.148	21424
885.274	21469
885.399	21462
885.524	21313
885.65	21302
885.775	21370
885.9	21275
886.025	21507
886.15	21397
886.275	21245
886.4	21249
886.525	21325
886.65	21310
886.775	21226
886.9	21469
887.025	21622
887.149	21401
887.274	21108
887.399	21085
887.523	21074
887.648	21081
887.773	21043
887.897	21218
888.021	21233
888.146	21036
888.27	21237
888.395	21367
888.519	21055
888.643	21146
888.767	21222
888.891	21055
889.015	20918
889.139	20975
889.263	20986
889.387	21036
889.511	21096
889.635	20998
889.759	20906
889.883	20979
890.006	20982
890.13	21028
890.254	20804
890.377	20811
890.501	20716
890.624	20670
890.748	20617
890.871	20617
890.995	20526
891.118	20396
891.241	20423
891.364	20545
891.488	20556
891.611	20522
891.734	20476
891.857	20514
891.98	20461
892.103	20495
892.226	20476
892.349	20396
892.471	20385
892.594	20446
892.717	20419
892.839	20328
892.962	20381
893.085	20400
893.207	20389
893.33	20396
893.452	20259
893.575	20446
893.697	20343
893.819	20427
893.941	20526
894.064	20480
894.186	20278
894.308	20309
894.43	20457
894.552	20503
894.674	20450
894.796	20278
894.918	20305
895.04	20366
895.161	20370
895.283	20492
895.405	20259
895.526	20313
895.648	20248
895.769	20370
895.891	20393
896.012	20419
896.134	20518
896.255	20461
896.376	20370
896.498	20389
896.619	20484
896.74	20404
896.861	20503
896.982	20670
897.103	20849
897.224	20754
897.345	20518
897.466	20484
897.587	20617
897.708	20697
897.828	20609
897.949	20651
898.07	20355
898.19	20530
898.311	20640
898.431	20408
898.552	20594
898.672	20678
898.792	20629
898.913	20651
899.033	20537
899.153	20377
899.273	20225
899.393	20324
899.513	20339
899.633	20423
899.753	20389
899.873	20263
899.993	20275
900.113	20328
900.232	20377
900.352	20317
900.472	20115
900.591	20054
900.711	20149
900.83	20058
900.95	20191
901.069	20248
901.189	20001
901.308	19689
901.427	19643
901.546	19734
901.665	19677
901.784	19651
901.904	19685
902.023	19514
902.141	19312
902.26	19255
902.379	19274
902.498	19293
902.617	19247
902.735	19137
902.854	19175
902.973	19107
903.091	18909
903.21	18901
903.328	18821
903.446	18817
903.565	18677
903.683	18658
903.801	18574
903.919	18677
904.038	18616
904.156	18513
904.274	18547
904.392	18407
904.51	18403
904.627	18388
904.745	18483
904.863	18456
904.981	18167
905.098	18239
905.216	17954
905.334	18045
905.451	18045
905.569	18091
905.686	18262
905.803	17920
905.921	17847
906.038	17980
906.155	17954
906.272	17843
906.389	17737
906.506	17672
906.623	17642
906.74	17657
906.857	17448
906.974	17551
907.091	17562
907.208	17771
907.324	17707
907.441	17592
907.557	17356
907.674	17372
907.79	17258
907.907	17398
908.023	17307
908.139	17292
908.256	17334
908.372	17166
908.488	17235
908.604	17071
908.72	17143
908.836	17067
908.952	17086
909.068	16965
909.184	17174
909.3	17052
909.415	17048
909.531	17117
909.647	16873
909.762	16744
909.878	16675
909.993	16820
910.108	16653
910.224	16805
910.339	16729
910.454	16607
910.57	16618
910.685	16519
910.8	16919
910.915	16603
911.03	16577
911.145	16470
911.259	16413
911.374	16268
911.489	16306
911.604	16280
911.718	16112
911.833	16067
911.947	16044
912.062	16025
912.176	16192
912.291	16177
912.405	16059
912.519	16306
912.633	16246
912.748	16200
912.862	16063
912.976	16036
913.09	15751
913.204	15861
913.318	15865
913.431	15949
913.545	16032
913.659	16074
913.772	15846
913.886	15717
914	15618
914.113	15755
914.226	15789
914.34	15774
914.453	15629
914.566	15774
914.68	15610
914.793	15610
914.906	15454
915.019	15325
915.132	15325
915.245	15275
915.358	15325
915.47	15302
915.583	15359
915.696	15401
915.809	15431
915.921	15462
916.034	15306
916.146	15241
916.259	15077
916.371	15241
916.483	15233
916.595	15294
916.708	15157
916.82	15116
916.932	15142
917.044	15123
917.156	15097
917.268	15017
917.38	15024
917.491	14902
917.603	15001
917.715	15017
917.826	15028
917.938	14910
918.049	14765
918.161	14967
918.272	15043
918.384	15043
918.495	14944
918.606	14697
918.717	14663
918.828	14735
918.939	14750
919.05	14636
919.161	14708
919.272	14545
919.383	14480
919.494	14735
919.604	14838
919.715	14724
919.826	14655
919.936	14735
920.047	14807
920.157	14663
920.267	14826
920.378	14663
920.488	14727
920.598	14861
920.708	14929
920.818	14804
920.928	14876
921.038	14948
921.148	14906
921.258	14556
921.368	14602
921.477	14396
921.587	14396
921.697	14252
921.806	14461
921.916	14275
922.025	14134
922.134	14005
922.244	13986
922.353	14069
922.462	14027
922.571	13928
922.68	13742
922.789	13719
922.898	13689
923.007	13712
923.116	13674
923.224	13681
923.333	13620
923.442	13620
923.55	13556
923.659	13533
923.767	13632
923.876	13571
923.984	13533
924.092	13407
924.201	13472
924.309	13365
924.417	13407
924.525	13403
924.633	13346
924.741	14309
924.849	13149
924.956	13312
925.064	13110
925.172	13118
925.279	13080
925.387	13213
925.494	13114
925.602	13232
925.709	13038
925.816	13046
925.924	13061
926.031	13164
926.138	13042
926.245	13012
926.352	12905
926.459	13160
926.566	13179
926.673	12958
926.779	12890
926.886	12920
926.993	12662
927.099	12764
927.206	12593
927.312	12620
927.419	12722
927.525	12639
927.631	12726
927.737	12525
927.843	12498
927.95	12327
928.056	12559
928.162	12410
928.267	12502
928.373	13027
928.479	12578
928.585	12311
928.69	12426
928.796	12467
928.901	12308
929.007	12243
929.112	12319
929.218	12327
929.323	12247
929.428	12194
929.533	12319
929.638	12125
929.743	12171
929.848	12175
929.953	12102
930.058	12041
930.163	11961
930.267	11969
930.372	12057
930.477	11885
930.581	12091
930.685	11923
930.79	11714
930.894	11798
930.998	11737
931.103	11866
931.207	11600
931.311	11459
931.415	11356
931.519	11075
931.623	11147
