Data from test_V78500241_1790.txt Node
Date: Fri Mar 25 15:54:12 CST 2022
User: usil
Spectrometer: V785-0024
Trigger mode: 0
Integration Time (sec): 4.000000E-1
Scans to average: 1
Nonlinearity correction enabled: false
Boxcar width: 0
Storing dark spectrum: false
XAxis mode: Wavelengths
Number of Pixels in Spectrum: 1024
>>>>>Begin Spectral Data<<<<<
801.071	28440
801.214	28249
801.356	28017
801.499	27854
801.641	27918
801.783	27953
801.926	28048
802.068	27991
802.211	27827
802.353	27804
802.496	27595
802.638	27648
802.78	27557
802.923	27618
803.065	27549
803.208	27572
803.35	27587
803.492	27720
803.635	27869
803.777	27625
803.919	27884
804.061	28063
804.204	27937
804.346	27720
804.488	27903
804.63	27823
804.773	27728
804.915	27808
805.057	27854
805.199	27903
805.341	27876
805.483	27960
805.626	28010
805.768	27968
805.91	27934
806.052	28067
806.194	27850
806.336	28204
806.478	28029
806.62	27972
806.762	28139
806.904	28196
807.046	28306
807.188	28462
807.33	28447
807.472	28573
807.614	28367
807.756	28379
807.898	28299
808.04	28242
808.182	28306
808.324	28318
808.465	28352
808.607	28546
808.749	28607
808.891	28729
809.033	28839
809.174	28702
809.316	28683
809.458	28573
809.6	28481
809.741	28672
809.883	28831
810.025	28850
810.166	28869
810.308	28968
810.45	28858
810.591	28854
810.733	28752
810.875	28615
811.016	28428
811.158	28432
811.299	28752
811.441	28668
811.582	28763
811.724	28672
811.865	28588
812.007	28550
812.148	28550
812.29	28759
812.431	28797
812.573	29006
812.714	29037
812.855	29220
812.997	29193
813.138	29265
813.279	29273
813.421	29143
813.562	29079
813.703	28980
813.845	28839
813.986	28596
814.127	28573
814.268	28162
814.41	28382
814.551	28455
814.692	28459
814.833	28390
814.974	28306
815.115	28478
815.256	28173
815.397	28154
815.539	28261
815.68	28219
815.821	28082
815.962	28261
816.103	28219
816.244	27945
816.385	28032
816.526	27998
816.666	27835
816.807	27751
816.948	27739
817.089	27819
817.23	27572
817.371	27542
817.512	27671
817.653	27682
817.793	27466
817.934	27625
818.075	27732
818.216	27606
818.356	27633
818.497	27675
818.638	27389
818.778	27374
818.919	27511
819.06	27405
819.2	27545
819.341	27736
819.481	27679
819.622	27892
819.762	27991
819.903	27793
820.043	27880
820.184	27747
820.324	27808
820.465	27907
820.605	27789
820.746	27766
820.886	27698
821.026	27762
821.167	27755
821.307	27876
821.447	27724
821.588	27511
821.728	27439
821.868	27447
822.008	27093
822.149	27214
822.289	27093
822.429	26792
822.569	26849
822.709	26788
822.849	26693
822.99	26640
823.13	26590
823.27	26716
823.41	26461
823.55	26374
823.69	26415
823.83	26488
823.97	26453
824.11	26301
824.25	26221
824.389	26225
824.529	26381
824.669	26415
824.809	26453
824.949	26404
825.089	26427
825.228	26431
825.368	26111
825.508	26145
825.648	26191
825.787	26301
825.927	26183
826.067	26202
826.206	26100
826.346	26180
826.485	26199
826.625	26119
826.765	26256
826.904	26195
827.044	25909
827.183	25928
827.323	25780
827.462	25913
827.601	25936
827.741	25715
827.88	25826
828.02	25868
828.159	25955
828.298	25826
828.437	25936
828.577	25753
828.716	26054
828.855	25833
828.994	25582
829.134	25510
829.273	25597
829.412	25597
829.551	25438
829.69	25533
829.829	25457
829.968	25647
830.107	25662
830.246	25624
830.385	25415
830.524	25381
830.663	25301
830.802	25331
830.941	25141
831.08	25061
831.219	25247
831.357	25297
831.496	25384
831.635	25179
831.774	25076
831.913	25171
832.051	25061
832.19	24989
832.329	24867
832.467	24943
832.606	24776
832.744	24886
832.883	24722
833.022	24745
833.16	24719
833.299	24901
833.437	24875
833.576	24817
833.714	24962
833.852	24943
833.991	25114
834.129	24951
834.267	25038
834.406	24894
834.544	24954
834.682	24814
834.821	24856
834.959	25076
835.097	24795
835.235	24894
835.373	24753
835.511	24787
835.65	24745
835.788	24726
835.926	24521
836.064	24555
836.202	24528
836.34	24738
836.478	24882
836.615	24722
836.753	24745
836.891	24787
837.029	24597
837.167	24688
837.305	24722
837.443	24639
837.58	24452
837.718	24532
837.856	24513
837.993	24494
838.131	24509
838.269	24486
838.406	24471
838.544	24232
838.681	24228
838.819	24228
838.956	24129
839.094	24064
839.231	24110
839.369	24197
839.506	24429
839.643	24319
839.781	23935
839.918	23920
840.055	23923
840.193	23961
840.33	23878
840.467	23923
840.604	23950
840.742	24110
840.879	23767
841.016	23912
841.153	23786
841.29	23999
841.427	23984
841.564	24083
841.701	23950
841.838	23977
841.975	23783
842.112	23893
842.249	23764
842.385	23653
842.522	23821
842.659	23687
842.796	23710
842.933	23760
843.069	23649
843.206	23710
843.343	23786
843.479	23638
843.616	23802
843.752	23307
843.889	23395
844.025	23410
844.162	23421
844.298	23497
844.435	23444
844.571	23315
844.708	23364
844.844	23551
844.98	23714
845.117	23592
845.253	23383
845.389	23280
845.525	23364
845.661	23311
845.798	23353
845.934	23356
846.07	23277
846.206	23341
846.342	23337
846.478	23189
846.614	23056
846.75	22923
846.886	22869
847.022	23083
847.158	22881
847.294	22942
847.429	22949
847.565	22942
847.701	23162
847.837	22748
847.972	22717
848.108	22725
848.244	22679
848.379	22611
848.515	22459
848.65	22565
848.786	22481
848.921	22489
849.057	22786
849.192	22577
849.328	22599
849.463	22660
849.598	22512
849.734	22462
849.869	22371
850.004	22402
850.14	22150
850.275	22276
850.41	22219
850.545	22162
850.68	22185
850.815	22356
850.95	22261
851.085	22440
851.22	22322
851.355	22310
851.49	22192
851.625	22181
851.76	22344
851.895	22169
852.03	22188
852.165	22246
852.299	22348
852.434	22360
852.569	22367
852.703	22215
852.838	22379
852.973	22314
853.107	22325
853.242	22196
853.376	22109
853.511	22051
853.645	22154
853.78	22230
853.914	21968
854.048	22135
854.183	22040
854.317	22017
854.451	22265
854.585	22040
854.72	22017
854.854	22207
854.988	21937
855.122	22105
855.256	22006
855.39	22086
855.524	22002
855.658	22059
855.792	22116
855.926	22090
856.06	22093
856.194	22185
856.327	22162
856.461	22112
856.595	21915
856.729	22067
856.862	22090
856.996	22017
857.13	22147
857.263	22223
857.397	22135
857.53	22090
857.664	22097
857.797	22143
857.931	22090
858.064	22093
858.197	22200
858.331	22074
858.464	22105
858.597	21903
858.731	22021
858.864	22017
858.997	22006
859.13	22078
859.263	22204
859.396	22261
859.529	22070
859.662	22017
859.795	22025
859.928	22090
860.061	22299
860.194	22348
860.327	22116
860.46	22162
860.592	22185
860.725	22188
860.858	22234
860.99	22169
861.123	21991
861.256	22029
861.388	22090
861.521	22740
861.653	21865
861.786	21812
861.918	22006
862.05	22029
862.183	21926
862.315	21926
862.447	22048
862.58	22013
862.712	22006
862.844	21667
862.976	21926
863.108	21831
863.24	22261
863.372	21724
863.504	21720
863.636	21937
863.768	21857
863.9	21732
864.032	21793
864.164	21835
864.296	21778
864.428	21861
864.559	21797
864.691	21922
864.823	21778
864.954	21720
865.086	21876
865.217	21717
865.349	21663
865.48	21614
865.612	21755
865.743	21861
865.875	21690
866.006	21804
866.137	21637
866.269	21644
866.4	21675
866.531	21694
866.662	21618
866.793	21663
866.924	21667
867.055	21591
867.186	21694
867.317	21564
867.448	21424
867.579	21595
867.71	21466
867.841	21641
867.972	21633
868.103	21553
868.233	21774
868.364	21519
868.495	21698
868.625	21819
868.756	21903
868.886	21705
869.017	21854
869.147	22029
869.278	21892
869.408	21793
869.539	21949
869.669	21926
869.799	21873
869.929	22029
870.06	21991
870.19	22196
870.32	22204
870.45	22162
870.58	22242
870.71	22265
870.84	22322
870.97	22246
871.1	22284
871.23	22375
871.36	22356
871.489	22402
871.619	22371
871.749	22489
871.879	22481
872.008	22554
872.138	22455
872.267	22565
872.397	22485
872.526	22272
872.656	22276
872.785	22344
872.915	22394
873.044	22592
873.173	22459
873.303	22573
873.432	22573
873.561	22691
873.69	22577
873.819	22531
873.948	22535
874.077	22421
874.206	22421
874.335	22523
874.464	22615
874.593	22752
874.722	22672
874.851	22744
874.979	22691
875.108	22691
875.237	22588
875.365	22618
875.494	22752
875.623	22706
875.751	22592
875.88	22740
876.008	22885
876.136	22786
876.265	23094
876.393	23178
876.521	23151
876.65	23204
876.778	23052
876.906	23159
877.034	23033
877.162	22980
877.29	23006
877.418	23071
877.546	22900
877.674	23071
877.802	22984
877.93	22984
878.058	22938
878.185	22911
878.313	23048
878.441	22961
878.568	22786
878.696	22980
878.824	23025
878.951	23166
879.079	23151
879.206	23277
879.333	23193
879.461	23060
879.588	22968
879.715	23269
879.842	23311
879.97	22976
880.097	22873
880.224	22869
880.351	22961
880.478	22908
880.605	22881
880.732	22774
880.859	23079
880.986	22923
881.112	22877
881.239	22683
881.366	22550
881.493	22641
881.619	22421
881.746	22508
881.872	22379
881.999	22417
882.125	22276
882.252	22538
882.378	22481
882.505	22474
882.631	22367
882.757	22204
882.883	22226
883.01	22276
883.136	22010
883.262	22093
883.388	21953
883.514	22120
883.64	22093
883.766	22040
883.892	21915
884.018	21960
884.143	22032
884.269	22006
884.395	21854
884.52	21629
884.646	21797
884.772	21663
884.897	21690
885.023	21618
885.148	21751
885.274	21937
885.399	21922
885.524	21857
885.65	21827
885.775	21717
885.9	21842
886.025	21880
886.15	21797
886.275	21747
886.4	21671
886.525	21747
886.65	21759
886.775	21720
886.9	21876
887.025	21972
887.149	21873
887.274	21606
887.399	21545
887.523	21504
887.648	21458
887.773	21359
887.897	21603
888.021	21614
888.146	21401
888.27	21629
888.395	21580
888.519	21523
888.643	21568
888.767	21591
888.891	21549
889.015	21214
889.139	21351
889.263	21329
889.387	21549
889.511	21652
889.635	21469
889.759	21226
889.883	21321
890.006	21405
890.13	21454
890.254	21268
890.377	21214
890.501	21180
890.624	21154
890.748	21096
890.871	20937
890.995	20834
891.118	20849
891.241	20895
891.364	20838
891.488	20929
891.611	20994
891.734	20895
891.857	20906
891.98	20823
892.103	20872
892.226	20941
892.349	20769
892.471	20739
892.594	20819
892.717	20769
892.839	20701
892.962	20883
893.085	20746
893.207	20701
893.33	20636
893.452	20648
893.575	20872
893.697	20659
893.819	20899
893.941	20899
894.064	20967
894.186	20807
894.308	20705
894.43	20746
894.552	20914
894.674	20937
894.796	20651
894.918	20834
895.04	20663
895.161	20845
895.283	20842
895.405	20762
895.526	20788
895.648	20830
895.769	20686
895.891	20731
896.012	20891
896.134	20842
896.255	20788
896.376	20693
896.498	20788
896.619	20811
896.74	20632
896.861	20872
896.982	20998
897.103	21203
897.224	21085
897.345	20967
897.466	20902
897.587	21036
897.708	21070
897.828	21039
897.949	20944
898.07	20876
898.19	20864
898.311	20979
898.431	20906
898.552	21017
898.672	21123
898.792	20971
898.913	20986
899.033	20857
899.153	20765
899.273	20743
899.393	20678
899.513	20762
899.633	20750
899.753	20845
899.873	20640
899.993	20910
900.113	20598
900.232	20682
900.352	20697
900.472	20533
900.591	20457
900.711	20499
900.83	20358
900.95	20552
901.069	20594
901.189	20332
901.308	20020
901.427	20084
901.546	20107
901.665	20084
901.784	20046
901.904	19978
902.023	19849
902.141	19620
902.26	19556
902.379	19738
902.498	19613
902.617	19533
902.735	19597
902.854	19597
902.973	19419
903.091	19316
903.21	19236
903.328	19282
903.446	19065
903.565	18951
903.683	19065
903.801	18947
903.919	18966
904.038	18909
904.156	18837
904.274	18867
904.392	18791
904.51	18722
904.627	18745
904.745	18722
904.863	18738
904.981	18540
905.098	18464
905.216	18490
905.334	18490
905.451	18475
905.569	18304
905.686	18544
905.803	18517
905.921	18239
906.038	18410
906.155	18330
906.272	18106
906.389	18121
906.506	17984
906.623	17927
906.74	17897
906.857	17897
906.974	17980
907.091	17973
907.208	18087
907.324	17988
907.441	17901
907.557	17775
907.674	17615
907.79	17596
907.907	17676
908.023	17767
908.139	17707
908.256	17665
908.372	17463
908.488	17585
908.604	17490
908.72	17318
908.836	17505
908.952	17311
909.068	17486
909.184	17562
909.3	17452
909.415	17353
909.531	17231
909.647	17113
909.762	17117
909.878	17140
909.993	17025
910.108	17064
910.224	17037
910.339	17102
910.454	16949
910.57	16847
910.685	16824
910.8	17094
910.915	17014
911.03	16824
911.145	16725
911.259	16660
911.374	16656
911.489	16599
911.604	16516
911.718	16402
911.833	16443
911.947	16272
912.062	16280
912.176	16375
912.291	16436
912.405	16542
912.519	16630
912.633	16630
912.748	16405
912.862	16348
912.976	16318
913.09	16051
913.204	16200
913.318	16169
913.431	16303
913.545	16360
913.659	16390
913.772	16200
913.886	16074
914	15972
914.113	16048
914.226	16059
914.34	16105
914.453	15960
914.566	16086
914.68	16025
914.793	15888
914.906	15713
915.019	15709
915.132	15618
915.245	15625
915.358	15595
915.47	15557
915.583	15591
915.696	15622
915.809	15835
915.921	15629
916.034	15576
916.146	15625
916.259	15447
916.371	15530
916.483	15584
916.595	15443
916.708	15405
916.82	15408
916.932	15412
917.044	15454
917.156	15306
917.268	15245
917.38	15306
917.491	15203
917.603	15207
917.715	15275
917.826	15340
917.938	15203
918.049	15123
918.161	15157
918.272	15241
918.384	15291
918.495	15138
918.606	15043
918.717	14937
918.828	15001
918.939	15024
919.05	14948
919.161	14906
919.272	14952
919.383	14861
919.494	15119
919.604	15161
919.715	15051
919.826	14902
919.936	14960
920.047	15066
920.157	14948
920.267	15135
920.378	14967
920.488	14933
920.598	15097
920.708	15249
920.818	15077
920.928	15112
921.038	15279
921.148	15176
921.258	14990
921.368	14842
921.477	14716
921.587	14727
921.697	14499
921.806	14720
921.916	14545
922.025	14317
922.134	14343
922.244	14271
922.353	14408
922.462	14161
922.571	14157
922.68	13986
922.789	13974
922.898	13974
923.007	13864
923.116	13940
923.224	13940
923.333	13989
923.442	13826
923.55	13860
923.659	13799
923.767	13841
923.876	13769
923.984	13894
924.092	13616
924.201	13822
924.309	13666
924.417	13708
924.525	13658
924.633	13582
924.741	14393
924.849	13426
924.956	13525
925.064	13365
925.172	13278
925.279	13308
925.387	13362
925.494	13396
925.602	13373
925.709	13460
925.816	13278
925.924	13297
926.031	13407
926.138	13369
926.245	13278
926.352	13266
926.459	13297
926.566	13369
926.673	13289
926.779	13091
926.886	13114
926.993	12844
927.099	12848
927.206	12859
927.312	12837
927.419	12871
927.525	12844
927.631	12943
927.737	12867
927.843	12768
927.95	12623
928.056	12642
928.162	12741
928.267	12833
928.373	13327
928.479	12738
928.585	12506
928.69	12696
928.796	12745
928.901	12486
929.007	12429
929.112	12563
929.218	12528
929.323	12380
929.428	12422
929.533	12555
929.638	12403
929.743	12372
929.848	12456
929.953	12327
930.058	12353
930.163	12114
930.267	12079
930.372	12197
930.477	12098
930.581	12300
930.685	12144
930.79	12034
930.894	12087
930.998	11988
931.103	12102
931.207	11805
931.311	11665
931.415	11505
931.519	11402
931.623	11376
