Data from test_V78500241_472.txt Node
Date: Fri Mar 25 15:45:04 CST 2022
User: usil
Spectrometer: V785-0024
Trigger mode: 0
Integration Time (sec): 4.000000E-1
Scans to average: 1
Nonlinearity correction enabled: false
Boxcar width: 0
Storing dark spectrum: false
XAxis mode: Wavelengths
Number of Pixels in Spectrum: 1024
>>>>>Begin Spectral Data<<<<<
801.071	27564
801.214	27576
801.356	27416
801.499	27298
801.641	27154
801.783	27192
801.926	27108
802.068	27127
802.211	26986
802.353	27039
802.496	26727
802.638	26796
802.78	26735
802.923	26678
803.065	26659
803.208	26743
803.35	26804
803.492	26823
803.635	26975
803.777	26777
803.919	26868
804.061	27161
804.204	26940
804.346	26838
804.488	26815
804.63	26838
804.773	26788
804.915	26914
805.057	26735
805.199	26815
805.341	26914
805.483	27093
805.626	27039
805.768	26979
805.91	26887
806.052	27039
806.194	26948
806.336	27294
806.478	26990
806.62	26960
806.762	27165
806.904	27287
807.046	27591
807.188	27424
807.33	27504
807.472	27405
807.614	27389
807.756	27348
807.898	27359
808.04	27127
808.182	27207
808.324	27199
808.465	27173
808.607	27610
808.749	27587
808.891	27690
809.033	27831
809.174	27751
809.316	27755
809.458	27720
809.6	27755
809.741	27770
809.883	27709
810.025	27743
810.166	28055
810.308	28006
810.45	27941
810.591	27736
810.733	27523
810.875	27614
811.016	27538
811.158	27587
811.299	27816
811.441	27762
811.582	27759
811.724	27743
811.865	27488
812.007	27637
812.148	27515
812.29	27701
812.431	27785
812.573	27949
812.714	28162
812.855	28097
812.997	28367
813.138	28322
813.279	28299
813.421	28272
813.562	28105
813.703	27975
813.845	27937
813.986	27614
814.127	27336
814.268	27355
814.41	27287
814.551	27249
814.692	27351
814.833	27233
814.974	27431
815.115	27363
815.256	27329
815.397	27268
815.539	27260
815.68	26952
815.821	26990
815.962	27173
816.103	27096
816.244	27020
816.385	26845
816.526	26853
816.666	26739
816.807	26560
816.948	26583
817.089	26773
817.23	26556
817.371	26526
817.512	26530
817.653	26720
817.793	26606
817.934	26667
818.075	26594
818.216	26621
818.356	26438
818.497	26438
818.638	26278
818.778	26370
818.919	26362
819.06	26309
819.2	26427
819.341	26530
819.481	26648
819.622	26750
819.762	26891
819.903	26853
820.043	26743
820.184	26617
820.324	26575
820.465	26750
820.605	26739
820.746	26720
820.886	26495
821.026	26807
821.167	26705
821.307	26720
821.447	26648
821.588	26461
821.728	26404
821.868	26168
822.008	26122
822.149	25997
822.289	26096
822.429	25803
822.569	25776
822.709	25609
822.849	25639
822.99	25651
823.13	25628
823.27	25392
823.41	25438
823.55	25285
823.69	25346
823.83	25365
823.97	25251
824.11	25065
824.25	25206
824.389	25190
824.529	25202
824.669	25285
824.809	25293
824.949	25289
825.089	25244
825.228	25228
825.368	25053
825.508	25042
825.648	25053
825.787	25080
825.927	25122
826.067	25095
826.206	25107
826.346	25038
826.485	25118
826.625	24932
826.765	25076
826.904	25152
827.044	24738
827.183	24795
827.323	24764
827.462	24703
827.601	24669
827.741	24802
827.88	24722
828.02	24532
828.159	24783
828.298	24764
828.437	24909
828.577	24711
828.716	24738
828.855	24741
828.994	24498
829.134	24369
829.273	24505
829.412	24380
829.551	24334
829.69	24380
829.829	24502
829.968	24528
830.107	24479
830.246	24467
830.385	24460
830.524	24380
830.663	24266
830.802	24232
830.941	24060
831.08	24015
831.219	24079
831.357	24117
831.496	24254
831.635	24076
831.774	23931
831.913	23878
832.051	23798
832.19	23748
832.329	23927
832.467	23726
832.606	23729
832.744	23623
832.883	23691
833.022	23589
833.16	23912
833.299	23832
833.437	23813
833.576	23977
833.714	23695
833.852	23866
833.991	23821
834.129	23863
834.267	23893
834.406	23710
834.544	23767
834.682	23805
834.821	23767
834.959	23885
835.097	23699
835.235	23722
835.373	23657
835.511	23863
835.65	23634
835.788	23627
835.926	23406
836.064	23387
836.202	23379
836.34	23642
836.478	23528
836.615	23577
836.753	23592
836.891	23585
837.029	23615
837.167	23493
837.305	23585
837.443	23505
837.58	23497
837.718	23490
837.856	23554
837.993	23387
838.131	23414
838.269	23315
838.406	23292
838.544	23143
838.681	23018
838.819	23033
838.956	22904
839.094	22946
839.231	22930
839.369	23022
839.506	23398
839.643	23193
839.781	22915
839.918	22809
840.055	22919
840.193	22896
840.33	22736
840.467	22805
840.604	22828
840.742	23071
840.879	22607
841.016	22706
841.153	22748
841.29	22938
841.427	22869
841.564	22854
841.701	22911
841.838	22694
841.975	22710
842.112	22793
842.249	22694
842.385	22550
842.522	22843
842.659	22596
842.796	22660
842.933	22569
843.069	22550
843.206	22538
843.343	22622
843.479	22603
843.616	22538
843.752	22413
843.889	22310
844.025	22596
844.162	22402
844.298	22440
844.435	22325
844.571	22306
844.708	22318
844.844	22459
844.98	22508
845.117	22508
845.253	22341
845.389	22265
845.525	22284
845.661	22284
845.798	22101
845.934	22204
846.07	22070
846.206	22211
846.342	22185
846.478	22124
846.614	21930
846.75	21865
846.886	21800
847.022	21861
847.158	21835
847.294	21705
847.429	21968
847.565	21804
847.701	22032
847.837	21583
847.972	21500
848.108	21698
848.244	21606
848.379	21321
848.515	21397
848.65	21340
848.786	21412
848.921	21363
849.057	21534
849.192	21568
849.328	21469
849.463	21428
849.598	21405
849.734	21275
849.869	21249
850.004	21173
850.14	21138
850.275	21135
850.41	21017
850.545	21161
850.68	21161
850.815	21096
850.95	21279
851.085	21351
851.22	21287
851.355	21165
851.49	21188
851.625	21058
851.76	21173
851.895	21051
852.03	21112
852.165	21249
852.299	21184
852.434	21135
852.569	21161
852.703	21195
852.838	21256
852.973	21241
853.107	21230
853.242	21074
853.376	21058
853.511	20971
853.645	21001
853.78	21169
853.914	20952
854.048	20986
854.183	20910
854.317	20998
854.451	21123
854.585	21032
854.72	20845
854.854	21085
854.988	20975
855.122	20906
855.256	20842
855.39	21005
855.524	21081
855.658	20990
855.792	20990
855.926	21032
856.06	21112
856.194	21039
856.327	21039
856.461	20887
856.595	20933
856.729	20937
856.862	21062
856.996	20975
857.13	21108
857.263	21081
857.397	21036
857.53	20918
857.664	20979
857.797	21077
857.931	21192
858.064	21062
858.197	21169
858.331	20960
858.464	20941
858.597	20956
858.731	20921
858.864	20857
858.997	20937
859.13	20864
859.263	20994
859.396	20994
859.529	20838
859.662	21020
859.795	20982
859.928	20990
860.061	21127
860.194	21165
860.327	20982
860.46	20994
860.592	21081
860.725	21119
860.858	21081
860.99	20979
861.123	20868
861.256	20918
861.388	21093
861.521	21622
861.653	20781
861.786	20823
861.918	20815
862.05	20857
862.183	20960
862.315	20990
862.447	20952
862.58	20883
862.712	20693
862.844	20609
862.976	20670
863.108	20815
863.24	21291
863.372	20579
863.504	20693
863.636	20644
863.768	20826
863.9	20644
864.032	20682
864.164	20629
864.296	20739
864.428	20750
864.559	20819
864.691	20720
864.823	20686
864.954	20746
865.086	20587
865.217	20667
865.349	20461
865.48	20621
865.612	20541
865.743	20739
865.875	20530
866.006	20590
866.137	20705
866.269	20674
866.4	20545
866.531	20621
866.662	20579
866.793	20568
866.924	20537
867.055	20629
867.186	20640
867.317	20476
867.448	20434
867.579	20492
867.71	20461
867.841	20469
867.972	20564
868.103	20400
868.233	20556
868.364	20545
868.495	20629
868.625	20777
868.756	20845
868.886	20636
869.017	20731
869.147	20845
869.278	20895
869.408	20864
869.539	20834
869.669	20937
869.799	20864
869.929	20853
870.06	20899
870.19	21100
870.32	21058
870.45	21142
870.58	21093
870.71	21249
870.84	21272
870.97	21093
871.1	21116
871.23	21302
871.36	21306
871.489	21359
871.619	21389
871.749	21359
871.879	21412
872.008	21310
872.138	21256
872.267	21435
872.397	21310
872.526	21135
872.656	21287
872.785	21116
872.915	21313
873.044	21405
873.173	21439
873.303	21507
873.432	21500
873.561	21466
873.69	21454
873.819	21336
873.948	21454
874.077	21329
874.206	21348
874.335	21435
874.464	21553
874.593	21637
874.722	21606
874.851	21660
874.979	21637
875.108	21633
875.237	21644
875.365	21504
875.494	21682
875.623	21781
875.751	21591
875.88	21652
876.008	21831
876.136	21850
876.265	21983
876.393	22093
876.521	22131
876.65	22112
876.778	22101
876.906	21911
877.034	21823
877.162	21972
877.29	21880
877.418	21983
877.546	21865
877.674	21964
877.802	21918
877.93	22048
878.058	21876
878.185	21846
878.313	21922
878.441	21949
878.568	21766
878.696	21869
878.824	22051
878.951	21994
879.079	22086
879.206	22226
879.333	22173
879.461	22002
879.588	22131
879.715	22112
879.842	22185
879.97	22158
880.097	21793
880.224	21823
880.351	21835
880.478	21854
880.605	21755
880.732	21701
880.859	22067
880.986	21861
881.112	21930
881.239	21705
881.366	21580
881.493	21534
881.619	21401
881.746	21435
881.872	21397
881.999	21408
882.125	21260
882.252	21462
882.378	21496
882.505	21466
882.631	21180
882.757	21032
882.883	21249
883.01	21013
883.136	21123
883.262	20883
883.388	20960
883.514	21157
883.64	21123
883.766	21096
883.892	20872
884.018	20929
884.143	21058
884.269	21074
884.395	20670
884.52	20754
884.646	20899
884.772	20625
884.897	20632
885.023	20724
885.148	20823
885.274	20899
885.399	20838
885.524	20823
885.65	20754
885.775	20811
885.9	20773
886.025	20842
886.15	20724
886.275	20838
886.4	20594
886.525	20613
886.65	20609
886.775	20640
886.9	20777
887.025	20876
887.149	20746
887.274	20533
887.399	20556
887.523	20537
887.648	20484
887.773	20408
887.897	20537
888.021	20560
888.146	20324
888.27	20598
888.395	20568
888.519	20537
888.643	20537
888.767	20526
888.891	20381
889.015	20393
889.139	20374
889.263	20374
889.387	20412
889.511	20514
889.635	20476
889.759	20324
889.883	20244
890.006	20343
890.13	20450
890.254	20290
890.377	20199
890.501	20103
890.624	19997
890.748	20069
890.871	19890
890.995	19921
891.118	19868
891.241	19807
891.364	19917
891.488	19993
891.611	19860
891.734	19795
891.857	19970
891.98	19830
892.103	19967
892.226	19921
892.349	19860
892.471	19738
892.594	19803
892.717	19811
892.839	19742
892.962	19890
893.085	19849
893.207	19814
893.33	19670
893.452	19753
893.575	19898
893.697	19746
893.819	19902
893.941	19978
894.064	19871
894.186	19750
894.308	19693
894.43	19826
894.552	20031
894.674	19845
894.796	19635
894.918	19727
895.04	19685
895.161	19875
895.283	19849
895.405	19833
895.526	19803
895.648	19811
895.769	19791
895.891	19776
896.012	19765
896.134	19811
896.255	19841
896.376	19750
896.498	19803
896.619	19700
896.74	19803
896.861	19921
896.982	20107
897.103	20248
897.224	20149
897.345	19997
897.466	19887
897.587	19978
897.708	20142
897.828	20172
897.949	19932
898.07	19849
898.19	19967
898.311	20202
898.431	19940
898.552	20077
898.672	20149
898.792	20054
898.913	20062
899.033	19947
899.153	19799
899.273	19677
899.393	19814
899.513	19871
899.633	19734
899.753	19936
899.873	19651
899.993	19868
900.113	19685
900.232	19830
900.352	19628
900.472	19537
900.591	19491
900.711	19567
900.83	19544
900.95	19624
901.069	19677
901.189	19556
901.308	19236
901.427	19145
901.546	19088
901.665	19171
901.784	19202
901.904	19118
902.023	18894
902.141	18856
902.26	18711
902.379	18745
902.498	18692
902.617	18677
902.735	18711
902.854	18578
902.973	18525
903.091	18391
903.21	18410
903.328	18395
903.446	18330
903.565	18209
903.683	18182
903.801	18026
903.919	18167
904.038	18026
904.156	17946
904.274	18007
904.392	17931
904.51	17931
904.627	17836
904.745	17931
904.863	17870
904.981	17707
905.098	17611
905.216	17558
905.334	17600
905.451	17718
905.569	17600
905.686	17619
905.803	17619
905.921	17326
906.038	17376
906.155	17429
906.272	17296
906.389	17364
906.506	17071
906.623	17143
906.74	17250
906.857	16995
906.974	16968
907.091	17121
907.208	17159
907.324	17200
907.441	17041
907.557	16896
907.674	16877
907.79	16831
907.907	16763
908.023	16885
908.139	16847
908.256	16866
908.372	16698
908.488	16831
908.604	16637
908.72	16550
908.836	16535
908.952	16580
909.068	16611
909.184	16592
909.3	16550
909.415	16569
909.531	16466
909.647	16299
909.762	16310
909.878	16234
909.993	16303
910.108	16181
910.224	16238
910.339	16257
910.454	16200
910.57	16086
910.685	15994
910.8	16284
910.915	16154
911.03	16048
911.145	15941
911.259	15854
911.374	15861
911.489	15660
911.604	15679
911.718	15606
911.833	15557
911.947	15576
912.062	15450
912.176	15584
912.291	15576
912.405	15644
912.519	15888
912.633	15812
912.748	15682
912.862	15641
912.976	15447
913.09	15264
913.204	15351
913.318	15340
913.431	15557
913.545	15488
913.659	15557
913.772	15313
913.886	15336
914	15298
914.113	15367
914.226	15363
914.34	15268
914.453	15135
914.566	15249
914.68	15188
914.793	15192
914.906	14921
915.019	14902
915.132	14819
915.245	14811
915.358	14921
915.47	14876
915.583	14876
915.696	14933
915.809	15024
915.921	15024
916.034	14804
916.146	14765
916.259	14648
916.371	14895
916.483	14819
916.595	14792
916.708	14701
916.82	14667
916.932	14731
917.044	14746
917.156	14686
917.268	14533
917.38	14590
917.491	14492
917.603	14648
917.715	14598
917.826	14629
917.938	14549
918.049	14415
918.161	14560
918.272	14579
918.384	14598
918.495	14469
918.606	14355
918.717	14275
918.828	14358
918.939	14324
919.05	14301
919.161	14286
919.272	14103
919.383	14161
919.494	14408
919.604	14507
919.715	14412
919.826	14271
919.936	14256
920.047	14393
920.157	14339
920.267	14370
920.378	14195
920.488	14267
920.598	14461
920.708	14587
920.818	14389
920.928	14488
921.038	14587
921.148	14499
921.258	14256
921.368	14206
921.477	14111
921.587	13978
921.697	13959
921.806	14058
921.916	13947
922.025	13723
922.134	13674
922.244	13666
922.353	13674
922.462	13571
922.571	13483
922.68	13407
922.789	13354
922.898	13331
923.007	13285
923.116	13362
923.224	13327
923.333	13293
923.442	13198
923.55	13137
923.659	13198
923.767	13156
923.876	13149
923.984	13160
924.092	13034
924.201	13091
924.309	13137
924.417	13008
924.525	13050
924.633	13061
924.741	13784
924.849	12730
924.956	12958
925.064	12871
925.172	12662
925.279	12684
925.387	12814
925.494	12783
925.602	12901
925.709	12760
925.816	12700
925.924	12692
926.031	12753
926.138	12757
926.245	12715
926.352	12540
926.459	12738
926.566	12764
926.673	12681
926.779	12582
926.886	12483
926.993	12399
927.099	12399
927.206	12319
927.312	12228
927.419	12350
927.525	12350
927.631	12323
927.737	12205
927.843	12171
927.95	12072
928.056	12220
928.162	12232
928.267	12277
928.373	12806
928.479	12243
928.585	12003
928.69	12076
928.796	12186
928.901	12079
929.007	11821
929.112	12030
929.218	11901
929.323	11942
929.428	11980
929.533	12034
929.638	11855
929.743	11882
929.848	11920
929.953	11847
930.058	11676
930.163	11562
930.267	11570
930.372	11809
930.477	11566
930.581	11794
930.685	11653
930.79	11455
930.894	11486
930.998	11448
931.103	11551
931.207	11201
931.311	11090
931.415	11060
931.519	10881
931.623	10896
