Data from test_V78500241_1083.txt Node
Date: Fri Mar 25 15:49:18 CST 2022
User: usil
Spectrometer: V785-0024
Trigger mode: 0
Integration Time (sec): 4.000000E-1
Scans to average: 1
Nonlinearity correction enabled: false
Boxcar width: 0
Storing dark spectrum: false
XAxis mode: Wavelengths
Number of Pixels in Spectrum: 1024
>>>>>Begin Spectral Data<<<<<
801.071	28261
801.214	28150
801.356	28021
801.499	27968
801.641	27922
801.783	27808
801.926	27835
802.068	27869
802.211	27785
802.353	27671
802.496	27412
802.638	27523
802.78	27572
802.923	27344
803.065	27427
803.208	27530
803.35	27580
803.492	27542
803.635	27648
803.777	27473
803.919	27728
804.061	28029
804.204	27743
804.346	27553
804.488	27416
804.63	27709
804.773	27526
804.915	27660
805.057	27888
805.199	27682
805.341	27789
805.483	27937
805.626	27793
805.768	27861
805.91	27941
806.052	27873
806.194	27835
806.336	28070
806.478	27895
806.62	27922
806.762	27956
806.904	28154
807.046	28272
807.188	28287
807.33	28303
807.472	28390
807.614	28166
807.756	28185
807.898	28162
808.04	28188
808.182	28051
808.324	28124
808.465	28109
808.607	28390
808.749	28561
808.891	28481
809.033	28828
809.174	28489
809.316	28512
809.458	28508
809.6	28413
809.741	28569
809.883	28721
810.025	28923
810.166	28805
810.308	28888
810.45	28786
810.591	28645
810.733	28538
810.875	28557
811.016	28462
811.158	28531
811.299	28607
811.441	28710
811.582	28729
811.724	28668
811.865	28485
812.007	28394
812.148	28493
812.29	28664
812.431	28771
812.573	28892
812.714	28858
812.855	29022
812.997	29178
813.138	29246
813.279	29334
813.421	28976
813.562	28896
813.703	28968
813.845	28797
813.986	28474
814.127	28276
814.268	28261
814.41	28314
814.551	28139
814.692	28223
814.833	28246
814.974	28173
815.115	28128
815.256	28032
815.397	28048
815.539	28230
815.68	27975
815.821	27937
815.962	27941
816.103	27975
816.244	27892
816.385	27941
816.526	27934
816.666	27690
816.807	27599
816.948	27732
817.089	27709
817.23	27671
817.371	27629
817.512	27492
817.653	27397
817.793	27603
817.934	27633
818.075	27386
818.216	27526
818.356	27462
818.497	27321
818.638	27351
818.778	27336
818.919	27382
819.06	27355
819.2	27397
819.341	27450
819.481	27557
819.622	27755
819.762	27972
819.903	27724
820.043	27759
820.184	27732
820.324	27511
820.465	27804
820.605	27606
820.746	27523
820.886	27420
821.026	27641
821.167	27599
821.307	27633
821.447	27625
821.588	27458
821.728	27336
821.868	27203
822.008	27100
822.149	27077
822.289	27028
822.429	26724
822.569	26727
822.709	26731
822.849	26484
822.99	26503
823.13	26571
823.27	26511
823.41	26366
823.55	26252
823.69	26343
823.83	26400
823.97	26355
824.11	26187
824.25	26005
824.389	26149
824.529	26317
824.669	26218
824.809	26199
824.949	26282
825.089	26225
825.228	26256
825.368	25993
825.508	26107
825.648	25906
825.787	26176
825.927	26187
826.067	25917
826.206	26088
826.346	26062
826.485	25997
826.625	25894
826.765	26202
826.904	26126
827.044	25887
827.183	25784
827.323	25655
827.462	25826
827.601	25841
827.741	25704
827.88	25750
828.02	25552
828.159	25727
828.298	25719
828.437	25788
828.577	25750
828.716	25849
828.855	25742
828.994	25479
829.134	25457
829.273	25487
829.412	25495
829.551	25392
829.69	25563
829.829	25476
829.968	25521
830.107	25487
830.246	25388
830.385	25270
830.524	25377
830.663	25358
830.802	25263
830.941	25103
831.08	24920
831.219	25057
831.357	24989
831.496	25297
831.635	25008
831.774	24916
831.913	24958
832.051	24764
832.19	24909
832.329	24943
832.467	24768
832.606	24757
832.744	24753
832.883	24665
833.022	24681
833.16	24692
833.299	24791
833.437	24696
833.576	24806
833.714	24829
833.852	24837
833.991	24806
834.129	24844
834.267	24821
834.406	24738
834.544	24776
834.682	24711
834.821	24730
834.959	24943
835.097	24768
835.235	24772
835.373	24768
835.511	24867
835.65	24772
835.788	24536
835.926	24517
836.064	24399
836.202	24437
836.34	24646
836.478	24749
836.615	24551
836.753	24741
836.891	24578
837.029	24661
837.167	24467
837.305	24464
837.443	24429
837.58	24361
837.718	24494
837.856	24547
837.993	24266
838.131	24372
838.269	24266
838.406	24330
838.544	24209
838.681	23980
838.819	23984
838.956	23893
839.094	24072
839.231	23977
839.369	23977
839.506	24372
839.643	24034
839.781	23859
839.918	23866
840.055	23771
840.193	24018
840.33	23878
840.467	23847
840.604	23950
840.742	24053
840.879	23638
841.016	23710
841.153	23699
841.29	23920
841.427	23786
841.564	23752
841.701	23889
841.838	23687
841.975	23703
842.112	23714
842.249	23608
842.385	23592
842.522	23672
842.659	23596
842.796	23570
842.933	23619
843.069	23547
843.206	23524
843.343	23570
843.479	23642
843.616	23592
843.752	23387
843.889	23410
844.025	23490
844.162	23307
844.298	23433
844.435	23391
844.571	23299
844.708	23345
844.844	23528
844.98	23497
845.117	23444
845.253	23277
845.389	23117
845.525	23315
845.661	23170
845.798	23041
845.934	23090
846.07	23018
846.206	23064
846.342	23105
846.478	23022
846.614	22919
846.75	22713
846.886	22774
847.022	22908
847.158	22881
847.294	22767
847.429	22786
847.565	22755
847.701	23037
847.837	22611
847.972	22546
848.108	22577
848.244	22546
848.379	22390
848.515	22485
848.65	22329
848.786	22382
848.921	22417
849.057	22459
849.192	22565
849.328	22489
849.463	22322
849.598	22413
849.734	22204
849.869	22329
850.004	22185
850.14	22272
850.275	22036
850.41	21987
850.545	22093
850.68	22135
850.815	22105
850.95	22162
851.085	22348
851.22	22215
851.355	22112
851.49	22120
851.625	22101
851.76	22097
851.895	22158
852.03	22188
852.165	22147
852.299	22147
852.434	22185
852.569	22112
852.703	22177
852.838	22158
852.973	22287
853.107	22090
853.242	22010
853.376	22082
853.511	21774
853.645	21854
853.78	22044
853.914	22063
854.048	22025
854.183	21960
854.317	22093
854.451	22082
854.585	21994
854.72	21926
854.854	21956
854.988	22029
855.122	21983
855.256	21850
855.39	21968
855.524	21994
855.658	21983
855.792	22082
855.926	22013
856.06	22082
856.194	21850
856.327	22029
856.461	22074
856.595	21968
856.729	21850
856.862	21968
856.996	22086
857.13	22044
857.263	22036
857.397	22074
857.53	21880
857.664	21998
857.797	21880
857.931	21983
858.064	22086
858.197	22135
858.331	21972
858.464	21934
858.597	21835
858.731	21888
858.864	21964
858.997	21960
859.13	21991
859.263	21972
859.396	22086
859.529	21907
859.662	21884
859.795	21922
859.928	21941
860.061	22082
860.194	22139
860.327	22086
860.46	21949
860.592	22147
860.725	22055
860.858	21964
860.99	21865
861.123	21842
861.256	21812
861.388	22006
861.521	22710
861.653	21759
861.786	21819
861.918	21743
862.05	21759
862.183	21861
862.315	21895
862.447	21842
862.58	21941
862.712	21739
862.844	21561
862.976	21698
863.108	21827
863.24	22150
863.372	21633
863.504	21648
863.636	21644
863.768	21701
863.9	21606
864.032	21633
864.164	21644
864.296	21739
864.428	21816
864.559	21663
864.691	21705
864.823	21637
864.954	21698
865.086	21523
865.217	21591
865.349	21523
865.48	21534
865.612	21511
865.743	21812
865.875	21561
866.006	21496
866.137	21618
866.269	21580
866.4	21523
866.531	21515
866.662	21405
866.793	21462
866.924	21504
867.055	21599
867.186	21481
867.317	21405
867.448	21340
867.579	21363
867.71	21443
867.841	21397
867.972	21557
868.103	21443
868.233	21469
868.364	21428
868.495	21485
868.625	21747
868.756	21903
868.886	21660
869.017	21717
869.147	21846
869.278	21899
869.408	21739
869.539	21656
869.669	21804
869.799	21888
869.929	21728
870.06	21964
870.19	22036
870.32	21949
870.45	21991
870.58	22036
870.71	22318
870.84	22090
870.97	22185
871.1	22150
871.23	22405
871.36	22242
871.489	22215
871.619	22318
871.749	22253
871.879	22284
872.008	22440
872.138	22295
872.267	22246
872.397	22265
872.526	22162
872.656	22044
872.785	22223
872.915	22398
873.044	22382
873.173	22367
873.303	22390
873.432	22325
873.561	22390
873.69	22344
873.819	22306
873.948	22386
874.077	22363
874.206	22192
874.335	22207
874.464	22409
874.593	22577
874.722	22546
874.851	22645
874.979	22417
875.108	22519
875.237	22535
875.365	22447
875.494	22527
875.623	22557
875.751	22455
875.88	22569
876.008	22717
876.136	22721
876.265	23018
876.393	23048
876.521	22976
876.65	22915
876.778	22919
876.906	22889
877.034	22793
877.162	22942
877.29	22782
877.418	22866
877.546	23010
877.674	22850
877.802	22850
877.93	22923
878.058	22908
878.185	22755
878.313	22858
878.441	22801
878.568	22748
878.696	22797
878.824	22972
878.951	23033
879.079	23037
879.206	22995
879.333	23143
879.461	22980
879.588	23037
879.715	22984
879.842	23193
879.97	22942
880.097	22736
880.224	22664
880.351	22653
880.478	22793
880.605	22668
880.732	22679
880.859	22949
880.986	22904
881.112	22698
881.239	22649
881.366	22474
881.493	22398
881.619	22253
881.746	22295
881.872	22253
881.999	22348
882.125	22322
882.252	22306
882.378	22268
882.505	22344
882.631	22234
882.757	22032
882.883	22101
883.01	22010
883.136	21876
883.262	21804
883.388	21838
883.514	21941
883.64	22055
883.766	21934
883.892	21785
884.018	21743
884.143	21934
884.269	22109
884.395	21800
884.52	21713
884.646	21720
884.772	21595
884.897	21488
885.023	21576
885.148	21648
885.274	21789
885.399	21648
885.524	21477
885.65	21686
885.775	21595
885.9	21530
886.025	21720
886.15	21576
886.275	21583
886.4	21534
886.525	21625
886.65	21572
886.775	21485
886.9	21652
887.025	21876
887.149	21599
887.274	21378
887.399	21386
887.523	21420
887.648	21351
887.773	21268
887.897	21538
888.021	21397
888.146	21367
888.27	21485
888.395	21408
888.519	21355
888.643	21511
888.767	21393
888.891	21264
889.015	21169
889.139	21279
889.263	21157
889.387	21249
889.511	21420
889.635	21397
889.759	21096
889.883	21245
890.006	21169
890.13	21302
890.254	21104
890.377	20998
890.501	20929
890.624	20895
890.748	20948
890.871	20804
890.995	20823
891.118	20602
891.241	20849
891.364	20792
891.488	20880
891.611	20735
891.734	20724
891.857	20724
891.98	20724
892.103	20804
892.226	20674
892.349	20781
892.471	20552
892.594	20651
892.717	20629
892.839	20583
892.962	20670
893.085	20800
893.207	20689
893.33	20549
893.452	20473
893.575	20583
893.697	20617
893.819	20807
893.941	20834
894.064	20754
894.186	20579
894.308	20617
894.43	20598
894.552	20792
894.674	20716
894.796	20511
894.918	20663
895.04	20583
895.161	20686
895.283	20640
895.405	20594
895.526	20705
895.648	20590
895.769	20701
895.891	20674
896.012	20651
896.134	20674
896.255	20613
896.376	20575
896.498	20636
896.619	20697
896.74	20609
896.861	20613
896.982	20994
897.103	21138
897.224	20872
897.345	20849
897.466	20853
897.587	20842
897.708	20918
897.828	20937
897.949	20727
898.07	20629
898.19	20754
898.311	20777
898.431	20811
898.552	20792
898.672	20864
898.792	20979
898.913	20716
899.033	20758
899.153	20712
899.273	20644
899.393	20492
899.513	20670
899.633	20552
899.753	20609
899.873	20537
899.993	20651
900.113	20507
900.232	20564
900.352	20442
900.472	20457
900.591	20290
900.711	20298
900.83	20358
900.95	20476
901.069	20408
901.189	20290
901.308	20043
901.427	19890
901.546	19947
901.665	19967
901.784	19879
901.904	19772
902.023	19609
902.141	19529
902.26	19464
902.379	19464
902.498	19388
902.617	19392
902.735	19312
902.854	19381
902.973	19282
903.091	19221
903.21	19084
903.328	19008
903.446	18935
903.565	18909
903.683	18996
903.801	18848
903.919	18863
904.038	18833
904.156	18654
904.274	18741
904.392	18570
904.51	18616
904.627	18722
904.745	18730
904.863	18635
904.981	18395
905.098	18300
905.216	18216
905.334	18452
905.451	18308
905.569	18266
905.686	18403
905.803	18334
905.921	18087
906.038	18224
906.155	18095
906.272	17950
906.389	17969
906.506	17882
906.623	17832
906.74	17798
906.857	17699
906.974	17733
907.091	17729
907.208	17961
907.324	17904
907.441	17665
907.557	17589
907.674	17547
907.79	17505
907.907	17619
908.023	17501
908.139	17630
908.256	17497
908.372	17490
908.488	17452
908.604	17360
908.72	17315
908.836	17216
908.952	17185
909.068	17288
909.184	17273
909.3	17296
909.415	17315
909.531	17337
909.647	17003
909.762	17064
909.878	17033
909.993	16980
910.108	17018
910.224	16946
910.339	16991
910.454	16786
910.57	16843
910.685	16793
910.8	16908
910.915	16900
911.03	16831
911.145	16649
911.259	16512
911.374	16615
911.489	16470
911.604	16500
911.718	16333
911.833	16322
911.947	16249
912.062	16192
912.176	16303
912.291	16314
912.405	16257
912.519	16500
912.633	16485
912.748	16405
912.862	16272
912.976	16017
913.09	16051
913.204	16029
913.318	16143
913.431	16154
913.545	16169
913.659	16299
913.772	16131
913.886	15930
914	15949
914.113	15979
914.226	16032
914.34	16032
914.453	15770
914.566	15884
914.68	15732
914.793	15648
914.906	15538
915.019	15542
915.132	15370
915.245	15336
915.358	15462
915.47	15496
915.583	15431
915.696	15557
915.809	15633
915.921	15622
916.034	15469
916.146	15378
916.259	15447
916.371	15469
916.483	15507
916.595	15397
916.708	15313
916.82	15268
916.932	15344
917.044	15283
917.156	15279
917.268	15135
917.38	15218
917.491	15131
917.603	15154
917.715	15093
917.826	15325
917.938	15028
918.049	14986
918.161	15104
918.272	15241
918.384	15184
918.495	15108
918.606	14887
918.717	14906
918.828	14864
918.939	14853
919.05	14807
919.161	14826
919.272	14552
919.383	14769
919.494	14891
919.604	15085
919.715	14967
919.826	14777
919.936	14853
920.047	14876
920.157	14868
920.267	15085
920.378	14906
920.488	14845
920.598	15017
920.708	15138
920.818	14994
920.928	15047
921.038	15226
921.148	15116
921.258	14796
921.368	14655
921.477	14594
921.587	14499
921.697	14465
921.806	14598
921.916	14503
922.025	14351
922.134	14278
922.244	14142
922.353	14313
922.462	14145
922.571	14035
922.68	13986
922.789	13879
922.898	13906
923.007	13750
923.116	13864
923.224	13814
923.333	13864
923.442	13670
923.55	13742
923.659	13738
923.767	13712
923.876	13693
923.984	13666
924.092	13548
924.201	13742
924.309	13643
924.417	13605
924.525	13483
924.633	13495
924.741	14275
924.849	13350
924.956	13529
925.064	13343
925.172	13236
925.279	13285
925.387	13331
925.494	13396
925.602	13392
925.709	13324
925.816	13221
925.924	13190
926.031	13270
926.138	13187
926.245	13308
926.352	13122
926.459	13236
926.566	13278
926.673	13171
926.779	13053
926.886	13046
926.993	12856
927.099	12966
927.206	12821
927.312	12833
927.419	12859
927.525	12871
927.631	12890
927.737	12707
927.843	12711
927.95	12570
928.056	12646
928.162	12719
928.267	12738
928.373	13289
928.479	12757
928.585	12498
928.69	12673
928.796	12650
928.901	12441
929.007	12319
929.112	12559
929.218	12452
929.323	12456
929.428	12395
929.533	12475
929.638	12289
929.743	12384
929.848	12376
929.953	12308
930.058	12148
930.163	12140
930.267	12110
930.372	12163
930.477	12011
930.581	12205
930.685	12102
930.79	12007
930.894	11999
930.998	11939
931.103	11996
931.207	11691
931.311	11558
931.415	11543
931.519	11360
931.623	11326
