Data from test_V78500241_3258.txt Node
Date: Fri Mar 25 16:04:22 CST 2022
User: usil
Spectrometer: V785-0024
Trigger mode: 0
Integration Time (sec): 4.000000E-1
Scans to average: 1
Nonlinearity correction enabled: false
Boxcar width: 0
Storing dark spectrum: false
XAxis mode: Wavelengths
Number of Pixels in Spectrum: 1024
>>>>>Begin Spectral Data<<<<<
801.071	28752
801.214	28664
801.356	28504
801.499	28440
801.641	28341
801.783	28401
801.926	28306
802.068	28246
802.211	28238
802.353	28196
802.496	28177
802.638	28112
802.78	27945
802.923	27930
803.065	27899
803.208	28143
803.35	27983
803.492	28166
803.635	28314
803.777	28120
803.919	28352
804.061	28584
804.204	28394
804.346	28204
804.488	28162
804.63	28249
804.773	28303
804.915	28318
805.057	28306
805.199	28310
805.341	28360
805.483	28455
805.626	28478
805.768	28337
805.91	28394
806.052	28451
806.194	28409
806.336	28580
806.478	28478
806.62	28398
806.762	28618
806.904	28664
807.046	29010
807.188	28885
807.33	28831
807.472	28881
807.614	28888
807.756	28839
807.898	28839
808.04	28683
808.182	28611
808.324	28706
808.465	28782
808.607	28976
808.749	29064
808.891	29216
809.033	29322
809.174	29094
809.316	29166
809.458	29292
809.6	29041
809.741	29235
809.883	29341
810.025	29493
810.166	29547
810.308	29436
810.45	29444
810.591	29391
810.733	29315
810.875	29197
811.016	29193
811.158	29048
811.299	29212
811.441	29231
811.582	29421
811.724	29124
811.865	29109
812.007	29239
812.148	29174
812.29	29353
812.431	29448
812.573	29562
812.714	29478
812.855	29684
812.997	29714
813.138	29821
813.279	29794
813.421	29623
813.562	29543
813.703	29455
813.845	29497
813.986	29094
814.127	28976
814.268	28995
814.41	28854
814.551	28873
814.692	28873
814.833	28839
814.974	28782
815.115	28984
815.256	28755
815.397	28653
815.539	28687
815.68	28679
815.821	28622
815.962	28752
816.103	28729
816.244	28531
816.385	28554
816.526	28451
816.666	28147
816.807	28154
816.948	28337
817.089	28181
817.23	28303
817.371	28223
817.512	28192
817.653	28303
817.793	28135
817.934	28166
818.075	28234
818.216	28154
818.356	28196
818.497	28173
818.638	27953
818.778	27941
818.919	28006
819.06	27949
819.2	28090
819.341	28246
819.481	28226
819.622	28367
819.762	28577
819.903	28485
820.043	28542
820.184	28306
820.324	28470
820.465	28462
820.605	28417
820.746	28352
820.886	28181
821.026	28280
821.167	28204
821.307	28295
821.447	28318
821.588	27998
821.728	27865
821.868	27793
822.008	27663
822.149	27671
822.289	27542
822.429	27408
822.569	27294
822.709	27427
822.849	27188
822.99	27188
823.13	27154
823.27	27081
823.41	26861
823.55	26838
823.69	27017
823.83	26990
823.97	26838
824.11	26758
824.25	26762
824.389	26720
824.529	26990
824.669	26769
824.809	26906
824.949	26971
825.089	26788
825.228	26853
825.368	26731
825.508	26712
825.648	26686
825.787	26724
825.927	26792
826.067	26883
826.206	26823
826.346	26762
826.485	26617
826.625	26644
826.765	26602
826.904	26804
827.044	26431
827.183	26598
827.323	26374
827.462	26461
827.601	26442
827.741	26503
827.88	26427
828.02	26336
828.159	26366
828.298	26423
828.437	26526
828.577	26332
828.716	26465
828.855	26309
828.994	26054
829.134	26103
829.273	26153
829.412	26020
829.551	26092
829.69	26119
829.829	26077
829.968	26191
830.107	26191
830.246	26065
830.385	26008
830.524	26005
830.663	26031
830.802	25898
830.941	25791
831.08	25651
831.219	25890
831.357	25742
831.496	25974
831.635	25791
831.774	25719
831.913	25639
832.051	25476
832.19	25552
832.329	25358
832.467	25369
832.606	25282
832.744	25221
832.883	25251
833.022	25312
833.16	25460
833.299	25362
833.437	25327
833.576	25457
833.714	25426
833.852	25491
833.991	25449
834.129	25544
834.267	25449
834.406	25525
834.544	25487
834.682	25518
834.821	25274
834.959	25582
835.097	25430
835.235	25502
835.373	25426
835.511	25483
835.65	25308
835.788	25339
835.926	25072
836.064	25099
836.202	25198
836.34	25289
836.478	25365
836.615	25293
836.753	25373
836.891	25365
837.029	25320
837.167	25331
837.305	25206
837.443	25012
837.58	25095
837.718	25175
837.856	25137
837.993	24989
838.131	25141
838.269	24992
838.406	25072
838.544	24932
838.681	24772
838.819	24681
838.956	24574
839.094	24452
839.231	24536
839.369	24795
839.506	25012
839.643	24768
839.781	24585
839.918	24410
840.055	24570
840.193	24589
840.33	24441
840.467	24559
840.604	24433
840.742	24757
840.879	24315
841.016	24418
841.153	24350
841.29	24635
841.427	24388
841.564	24494
841.701	24498
841.838	24357
841.975	24342
842.112	24445
842.249	24289
842.385	24186
842.522	24426
842.659	24399
842.796	24243
842.933	24304
843.069	24277
843.206	24068
843.343	24243
843.479	24194
843.616	24114
843.752	23958
843.889	24091
844.025	24018
844.162	23954
844.298	24030
844.435	24011
844.571	24102
844.708	24026
844.844	24148
844.98	24011
845.117	24209
845.253	23961
845.389	23817
845.525	24011
845.661	23729
845.798	23802
845.934	23847
846.07	23691
846.206	23832
846.342	23882
846.478	23756
846.614	23547
846.75	23406
846.886	23440
847.022	23547
847.158	23440
847.294	23440
847.429	23417
847.565	23296
847.701	23676
847.837	23151
847.972	23117
848.108	23083
848.244	23265
848.379	23033
848.515	23041
848.65	23041
848.786	23022
848.921	23037
849.057	23117
849.192	23079
849.328	23124
849.463	23014
849.598	22957
849.734	22987
849.869	22854
850.004	22759
850.14	22759
850.275	22831
850.41	22694
850.545	22622
850.68	22710
850.815	22927
850.95	22835
851.085	22927
851.22	22866
851.355	22835
851.49	22641
851.625	22725
851.76	22767
851.895	22691
852.03	22713
852.165	22881
852.299	22729
852.434	22847
852.569	22767
852.703	22839
852.838	22923
852.973	22972
853.107	22908
853.242	22790
853.376	22607
853.511	22508
853.645	22485
853.78	22683
853.914	22656
854.048	22573
854.183	22630
854.317	22687
854.451	22774
854.585	22679
854.72	22535
854.854	22831
854.988	22641
855.122	22702
855.256	22493
855.39	22531
855.524	22828
855.658	22588
855.792	22664
855.926	22694
856.06	22588
856.194	22725
856.327	22535
856.461	22584
856.595	22489
856.729	22653
856.862	22729
856.996	22592
857.13	22736
857.263	22759
857.397	22721
857.53	22649
857.664	22710
857.797	22668
857.931	22664
858.064	22691
858.197	22759
858.331	22653
858.464	22588
858.597	22493
858.731	22611
858.864	22577
858.997	22550
859.13	22645
859.263	22641
859.396	22645
859.529	22615
859.662	22622
859.795	22554
859.928	22489
860.061	22793
860.194	22828
860.327	22622
860.46	22702
860.592	22706
860.725	22820
860.858	22706
860.99	22615
861.123	22417
861.256	22607
861.388	22546
861.521	23315
861.653	22577
861.786	22451
861.918	22402
862.05	22497
862.183	22481
862.315	22557
862.447	22615
862.58	22542
862.712	22318
862.844	22215
862.976	22379
863.108	22386
863.24	22710
863.372	22276
863.504	22360
863.636	22314
863.768	22417
863.9	22409
864.032	22261
864.164	22337
864.296	22325
864.428	22485
864.559	22481
864.691	22367
864.823	22337
864.954	22318
865.086	22337
865.217	22207
865.349	22131
865.48	22249
865.612	22242
865.743	22295
865.875	22234
866.006	22158
866.137	22120
866.269	22128
866.4	22185
866.531	21994
866.662	22135
866.793	22055
866.924	22181
867.055	22097
867.186	22143
867.317	22158
867.448	21968
867.579	22044
867.71	22013
867.841	22025
867.972	22116
868.103	22150
868.233	22139
868.364	22177
868.495	22253
868.625	22291
868.756	22569
868.886	22356
869.017	22478
869.147	22409
869.278	22382
869.408	22348
869.539	22322
869.669	22432
869.799	22508
869.929	22398
870.06	22428
870.19	22645
870.32	22679
870.45	22694
870.58	22736
870.71	22930
870.84	22812
870.97	22862
871.1	22801
871.23	22984
871.36	23003
871.489	22873
871.619	22980
871.749	22949
871.879	23048
872.008	23025
872.138	23060
872.267	23064
872.397	22911
872.526	22793
872.656	22828
872.785	22839
872.915	22953
873.044	22999
873.173	22930
873.303	23090
873.432	23086
873.561	23113
873.69	22953
873.819	22995
873.948	22850
874.077	23041
874.206	23033
874.335	22980
874.464	23124
874.593	23178
874.722	23083
874.851	23216
874.979	23216
875.108	23315
875.237	23117
875.365	23056
875.494	23124
875.623	23277
875.751	23193
875.88	23235
876.008	23193
876.136	23417
876.265	23566
876.393	23642
876.521	23737
876.65	23703
876.778	23676
876.906	23623
877.034	23482
877.162	23551
877.29	23417
877.418	23516
877.546	23512
877.674	23543
877.802	23539
877.93	23512
878.058	23417
878.185	23307
878.313	23463
878.441	23608
878.568	23261
878.696	23410
878.824	23417
878.951	23707
879.079	23840
879.206	23771
879.333	23623
879.461	23722
879.588	23611
879.715	23684
879.842	23904
879.97	23638
880.097	23337
880.224	23280
880.351	23398
880.478	23376
880.605	23284
880.732	23383
880.859	23551
880.986	23330
881.112	23341
881.239	23220
881.366	23178
881.493	23048
881.619	22953
881.746	22946
881.872	22995
881.999	22995
882.125	22847
882.252	22923
882.378	22942
882.505	22885
882.631	22725
882.757	22706
882.883	22668
883.01	22523
883.136	22455
883.262	22481
883.388	22394
883.514	22580
883.64	22573
883.766	22489
883.892	22276
884.018	22523
884.143	22405
884.269	22577
884.395	22390
884.52	22128
884.646	22204
884.772	22150
884.897	22147
885.023	22287
885.148	22424
885.274	22363
885.399	22238
885.524	22173
885.65	22261
885.775	22185
885.9	22196
886.025	22272
886.15	22337
886.275	22162
886.4	22162
886.525	22223
886.65	22067
886.775	22147
886.9	22291
887.025	22348
887.149	22093
887.274	21972
887.399	22120
887.523	22002
887.648	21915
887.773	21800
887.897	22112
888.021	22029
888.146	21987
888.27	22101
888.395	22090
888.519	22070
888.643	22044
888.767	22048
888.891	21857
889.015	21694
889.139	21751
889.263	21781
889.387	21823
889.511	21979
889.635	21956
889.759	21789
889.883	21705
890.006	21747
890.13	21762
890.254	21690
890.377	21690
890.501	21511
890.624	21477
890.748	21599
890.871	21412
890.995	21344
891.118	21233
891.241	21363
891.364	21332
891.488	21504
891.611	21188
891.734	21252
891.857	21424
891.98	21252
892.103	21367
892.226	21306
892.349	21207
892.471	21089
892.594	21237
892.717	21249
892.839	21279
892.962	21233
893.085	21260
893.207	21077
893.33	21230
893.452	21070
893.575	21165
893.697	21169
893.819	21386
893.941	21393
894.064	21370
894.186	21218
894.308	21104
894.43	21272
894.552	21348
894.674	21199
894.796	21184
894.918	21146
895.04	21169
895.161	21188
895.283	21062
895.405	21028
895.526	21150
895.648	21226
895.769	21222
895.891	21188
896.012	21325
896.134	21214
896.255	21135
896.376	21173
896.498	21359
896.619	21096
896.74	21188
896.861	21252
896.982	21496
897.103	21591
897.224	21523
897.345	21462
897.466	21264
897.587	21431
897.708	21614
897.828	21439
897.949	21264
898.07	21203
898.19	21317
898.311	21344
898.431	21359
898.552	21272
898.672	21420
898.792	21310
898.913	21500
899.033	21313
899.153	21249
899.273	20998
899.393	21138
899.513	21195
899.633	21138
899.753	21154
899.873	21028
899.993	21096
900.113	21017
900.232	21169
900.352	20979
900.472	21036
900.591	20963
900.711	20948
900.83	20807
900.95	20982
901.069	21020
901.189	20712
901.308	20511
901.427	20362
901.546	20625
901.665	20545
901.784	20393
901.904	20237
902.023	20187
902.141	20012
902.26	20020
902.379	20062
902.498	19947
902.617	19868
902.735	19887
902.854	19852
902.973	19868
903.091	19575
903.21	19563
903.328	19658
903.446	19460
903.565	19392
903.683	19324
903.801	19263
903.919	19373
904.038	19304
904.156	19175
904.274	19232
904.392	19099
904.51	19190
904.627	19148
904.745	19225
904.863	19320
904.981	18985
905.098	18795
905.216	18776
905.334	18863
905.451	18928
905.569	18734
905.686	18802
905.803	18692
905.921	18570
906.038	18650
906.155	18688
906.272	18380
906.389	18601
906.506	18315
906.623	18464
906.74	18270
906.857	18216
906.974	18251
907.091	18391
907.208	18456
907.324	18315
907.441	18190
907.557	18060
907.674	18095
907.79	18057
907.907	17965
908.023	18076
908.139	18079
908.256	18019
908.372	17923
908.488	17904
908.604	17813
908.72	17840
908.836	17817
908.952	17646
909.068	17760
909.184	17855
909.3	17718
909.415	17870
909.531	17756
909.647	17581
909.762	17364
909.878	17570
909.993	17410
910.108	17368
910.224	17452
910.339	17368
910.454	17322
910.57	17254
910.685	17109
910.8	17425
910.915	17421
911.03	17159
911.145	16976
911.259	17052
911.374	17064
911.489	16908
911.604	16938
911.718	16839
911.833	16752
911.947	16694
912.062	16641
912.176	16755
912.291	16744
912.405	16793
912.519	16968
912.633	17006
912.748	16824
912.862	16790
912.976	16618
913.09	16523
913.204	16489
913.318	16592
913.431	16641
913.545	16698
913.659	16683
913.772	16516
913.886	16390
914	16535
914.113	16375
914.226	16493
914.34	16337
914.453	16200
914.566	16413
914.68	16226
914.793	16215
914.906	16013
915.019	15975
915.132	15895
915.245	15800
915.358	16021
915.47	15968
915.583	15880
915.696	15903
915.809	16059
915.921	16006
916.034	15994
916.146	15861
916.259	15876
916.371	15945
916.483	15831
916.595	15698
916.708	15755
916.82	15724
916.932	15762
917.044	15717
917.156	15614
917.268	15610
917.38	15591
917.491	15591
917.603	15580
917.715	15587
917.826	15679
917.938	15511
918.049	15450
918.161	15511
918.272	15561
918.384	15641
918.495	15496
918.606	15374
918.717	15272
918.828	15287
918.939	15279
919.05	15218
919.161	15279
919.272	15161
919.383	15123
919.494	15321
919.604	15477
919.715	15310
919.826	15161
919.936	15302
920.047	15336
920.157	15355
920.267	15363
920.378	15355
920.488	15176
920.598	15397
920.708	15534
920.818	15378
920.928	15416
921.038	15542
921.148	15568
921.258	15142
921.368	15127
921.477	15013
921.587	14986
921.697	14868
921.806	15062
921.916	14769
922.025	14674
922.134	14617
922.244	14533
922.353	14613
922.462	14533
922.571	14404
922.68	14278
922.789	14313
922.898	14252
923.007	14065
923.116	14332
923.224	14195
923.333	14176
923.442	14103
923.55	14027
923.659	14069
923.767	14111
923.876	13959
923.984	14145
924.092	13986
924.201	14012
924.309	14031
924.417	13967
924.525	13883
924.633	13978
924.741	14667
924.849	13681
924.956	13875
925.064	13696
925.172	13582
925.279	13575
925.387	13632
925.494	13696
925.602	13719
925.709	13738
925.816	13586
925.924	13556
926.031	13731
926.138	13613
926.245	13620
926.352	13457
926.459	13628
926.566	13548
926.673	13480
926.779	13407
926.886	13346
926.993	13145
927.099	13149
927.206	13183
927.312	13118
927.419	13168
927.525	13156
927.631	13346
927.737	13008
927.843	12947
927.95	12863
928.056	12905
928.162	13034
928.267	12966
928.373	13495
928.479	13015
928.585	12856
928.69	12947
928.796	12909
928.901	12802
929.007	12669
929.112	12825
929.218	12772
929.323	12684
929.428	12684
929.533	12840
929.638	12616
929.743	12608
929.848	12593
929.953	12547
930.058	12525
930.163	12372
930.267	12384
930.372	12517
930.477	12315
930.581	12509
930.685	12418
930.79	12178
930.894	12289
930.998	12186
931.103	12327
931.207	11961
931.311	11824
931.415	11836
931.519	11627
931.623	11604
