Data from test_V78500241_1164.txt Node
Date: Fri Mar 25 15:49:51 CST 2022
User: usil
Spectrometer: V785-0024
Trigger mode: 0
Integration Time (sec): 4.000000E-1
Scans to average: 1
Nonlinearity correction enabled: false
Boxcar width: 0
Storing dark spectrum: false
XAxis mode: Wavelengths
Number of Pixels in Spectrum: 1024
>>>>>Begin Spectral Data<<<<<
801.071	28740
801.214	28615
801.356	28481
801.499	28386
801.641	28166
801.783	28356
801.926	28287
802.068	28303
802.211	28128
802.353	28162
802.496	27907
802.638	27827
802.78	27861
802.923	27705
803.065	27869
803.208	27800
803.35	27850
803.492	28051
803.635	28067
803.777	28032
803.919	28177
804.061	28432
804.204	28253
804.346	28101
804.488	28032
804.63	28131
804.773	28196
804.915	28230
805.057	28360
805.199	28223
805.341	28112
805.483	28310
805.626	28272
805.768	28192
805.91	28322
806.052	28375
806.194	28253
806.336	28519
806.478	28405
806.62	28322
806.762	28527
806.904	28641
807.046	28885
807.188	28725
807.33	28885
807.472	28725
807.614	28729
807.756	28755
807.898	28634
808.04	28607
808.182	28641
808.324	28611
808.465	28584
808.607	28888
808.749	29086
808.891	29121
809.033	29143
809.174	29014
809.316	29022
809.458	28930
809.6	28904
809.741	29280
809.883	29303
810.025	29349
810.166	29364
810.308	29452
810.45	29349
810.591	29220
810.733	29102
810.875	28972
811.016	29048
811.158	29014
811.299	29265
811.441	29197
811.582	29124
811.724	29090
811.865	28949
812.007	29075
812.148	28961
812.29	29151
812.431	29292
812.573	29482
812.714	29501
812.855	29638
812.997	29649
813.138	29729
813.279	29627
813.421	29634
813.562	29566
813.703	29269
813.845	29341
813.986	28976
814.127	28793
814.268	28782
814.41	28812
814.551	28858
814.692	28911
814.833	28805
814.974	28736
815.115	28759
815.256	28713
815.397	28729
815.539	28725
815.68	28557
815.821	28459
815.962	28485
816.103	28519
816.244	28276
816.385	28386
816.526	28204
816.666	28200
816.807	28078
816.948	28101
817.089	28143
817.23	28215
817.371	28086
817.512	28116
817.653	28135
817.793	28013
817.934	28086
818.075	28101
818.216	28105
818.356	27945
818.497	27960
818.638	27816
818.778	27793
818.919	27827
819.06	27968
819.2	27987
819.341	28234
819.481	28101
819.622	28314
819.762	28523
819.903	28284
820.043	28322
820.184	28337
820.324	28246
820.465	28367
820.605	28162
820.746	28177
820.886	27983
821.026	28040
821.167	28215
821.307	28120
821.447	28150
821.588	28097
821.728	27899
821.868	27865
822.008	27614
822.149	27545
822.289	27496
822.429	27310
822.569	27310
822.709	27207
822.849	27051
822.99	27131
823.13	26990
823.27	27055
823.41	26861
823.55	26842
823.69	26883
823.83	26853
823.97	26887
824.11	26727
824.25	26724
824.389	26686
824.529	26800
824.669	26659
824.809	26883
824.949	26788
825.089	26868
825.228	26811
825.368	26473
825.508	26629
825.648	26625
825.787	26575
825.927	26758
826.067	26693
826.206	26598
826.346	26655
826.485	26689
826.625	26594
826.765	26686
826.904	26735
827.044	26355
827.183	26385
827.323	26362
827.462	26408
827.601	26313
827.741	26358
827.88	26450
828.02	26233
828.159	26336
828.298	26278
828.437	26438
828.577	26339
828.716	26347
828.855	26259
828.994	26024
829.134	26115
829.273	26073
829.412	25955
829.551	26016
829.69	26100
829.829	26046
829.968	26043
830.107	26001
830.246	26073
830.385	25932
830.524	26031
830.663	25693
830.802	25689
830.941	25723
831.08	25613
831.219	25681
831.357	25898
831.496	25780
831.635	25647
831.774	25533
831.913	25426
832.051	25540
832.19	25335
832.329	25441
832.467	25339
832.606	25247
832.744	25240
832.883	25358
833.022	25327
833.16	25194
833.299	25411
833.437	25365
833.576	25556
833.714	25540
833.852	25468
833.991	25316
834.129	25335
834.267	25285
834.406	25468
834.544	25518
834.682	25381
834.821	25354
834.959	25552
835.097	25327
835.235	25377
835.373	25331
835.511	25396
835.65	25232
835.788	25255
835.926	25118
836.064	25012
836.202	25072
836.34	25183
836.478	25183
836.615	25156
836.753	25122
836.891	25324
837.029	25259
837.167	25110
837.305	25171
837.443	25141
837.58	25031
837.718	25122
837.856	25050
837.993	24848
838.131	24989
838.269	24890
838.406	24985
838.544	24928
838.681	24726
838.819	24578
838.956	24414
839.094	24513
839.231	24521
839.369	24665
839.506	24840
839.643	24722
839.781	24639
839.918	24429
840.055	24452
840.193	24445
840.33	24315
840.467	24407
840.604	24502
840.742	24665
840.879	24281
841.016	24273
841.153	24410
841.29	24441
841.427	24464
841.564	24494
841.701	24357
841.838	24338
841.975	24300
842.112	24399
842.249	24174
842.385	24205
842.522	24418
842.659	24201
842.796	24106
842.933	24034
843.069	24144
843.206	23935
843.343	24133
843.479	24095
843.616	24178
843.752	23874
843.889	23950
844.025	24003
844.162	23935
844.298	23973
844.435	23916
844.571	23908
844.708	23904
844.844	24095
844.98	23980
845.117	24049
845.253	23859
845.389	23786
845.525	23741
845.661	23805
845.798	23714
845.934	23619
846.07	23642
846.206	23729
846.342	23935
846.478	23596
846.614	23421
846.75	23322
846.886	23414
847.022	23493
847.158	23288
847.294	23356
847.429	23410
847.565	23265
847.701	23672
847.837	23075
847.972	23140
848.108	23044
848.244	23094
848.379	23083
848.515	22987
848.65	22980
848.786	22816
848.921	22942
849.057	23025
849.192	22949
849.328	23018
849.463	22919
849.598	23006
849.734	22854
849.869	22755
850.004	22607
850.14	22793
850.275	22828
850.41	22694
850.545	22694
850.68	22679
850.815	22797
850.95	22702
851.085	22793
851.22	22858
851.355	22755
851.49	22675
851.625	22744
851.76	22580
851.895	22691
852.03	22622
852.165	22877
852.299	22793
852.434	22812
852.569	22755
852.703	22679
852.838	22755
852.973	22869
853.107	22957
853.242	22698
853.376	22538
853.511	22409
853.645	22436
853.78	22736
853.914	22637
854.048	22474
854.183	22615
854.317	22485
854.451	22854
854.585	22493
854.72	22493
854.854	22607
854.988	22360
855.122	22500
855.256	22363
855.39	22542
855.524	22512
855.658	22660
855.792	22481
855.926	22485
856.06	22721
856.194	22641
856.327	22592
856.461	22542
856.595	22440
856.729	22493
856.862	22656
856.996	22653
857.13	22588
857.263	22630
857.397	22618
857.53	22481
857.664	22588
857.797	22565
857.931	22588
858.064	22569
858.197	22752
858.331	22398
858.464	22432
858.597	22550
858.731	22523
858.864	22443
858.997	22550
859.13	22394
859.263	22516
859.396	22577
859.529	22542
859.662	22565
859.795	22413
859.928	22535
860.061	22702
860.194	22694
860.327	22615
860.46	22500
860.592	22771
860.725	22691
860.858	22607
860.99	22535
861.123	22538
861.256	22394
861.388	22508
861.521	23212
861.653	22409
861.786	22333
861.918	22382
862.05	22382
862.183	22489
862.315	22497
862.447	22535
862.58	22440
862.712	22204
862.844	22363
862.976	22379
863.108	22249
863.24	22774
863.372	22242
863.504	22238
863.636	22219
863.768	22280
863.9	22181
864.032	22246
864.164	22162
864.296	22280
864.428	22257
864.559	22284
864.691	22329
864.823	22276
864.954	22150
865.086	22177
865.217	22139
865.349	21964
865.48	22188
865.612	22067
865.743	22238
865.875	22147
866.006	22036
866.137	22154
866.269	22097
866.4	22086
866.531	22032
866.662	22067
866.793	21994
866.924	21964
867.055	21987
867.186	22128
867.317	22090
867.448	21998
867.579	22025
867.71	21968
867.841	21937
867.972	21987
868.103	21956
868.233	22029
868.364	21991
868.495	22032
868.625	22421
868.756	22306
868.886	22143
869.017	22268
869.147	22268
869.278	22352
869.408	22341
869.539	22234
869.669	22386
869.799	22242
869.929	22356
870.06	22360
870.19	22489
870.32	22588
870.45	22596
870.58	22580
870.71	22812
870.84	22831
870.97	22565
871.1	22599
871.23	22835
871.36	22911
871.489	22679
871.619	22847
871.749	22904
871.879	22854
872.008	22930
872.138	22885
872.267	22946
872.397	22675
872.526	22615
872.656	22790
872.785	22588
872.915	22900
873.044	22908
873.173	22953
873.303	22847
873.432	23010
873.561	22938
873.69	22881
873.819	22858
873.948	22949
874.077	22835
874.206	22915
874.335	22839
874.464	23003
874.593	23060
874.722	23140
874.851	23159
874.979	23006
875.108	23189
875.237	23178
875.365	23025
875.494	23071
875.623	23174
875.751	22995
875.88	23166
876.008	23140
876.136	23162
876.265	23345
876.393	23570
876.521	23535
876.65	23589
876.778	23554
876.906	23501
877.034	23189
877.162	23360
877.29	23360
877.418	23356
877.546	23444
877.674	23360
877.802	23360
877.93	23376
878.058	23292
878.185	23398
878.313	23311
878.441	23395
878.568	23334
878.696	23353
878.824	23376
878.951	23554
879.079	23687
879.206	23691
879.333	23535
879.461	23471
879.588	23539
879.715	23684
879.842	23691
879.97	23387
880.097	23288
880.224	23227
880.351	23391
880.478	23250
880.605	23231
880.732	23296
880.859	23467
880.986	23155
881.112	23425
881.239	23223
881.366	23060
881.493	22843
881.619	22828
881.746	22744
881.872	22850
881.999	22744
882.125	22869
882.252	22915
882.378	22710
882.505	22942
882.631	22675
882.757	22615
882.883	22417
883.01	22519
883.136	22367
883.262	22375
883.388	22329
883.514	22451
883.64	22497
883.766	22440
883.892	22306
884.018	22329
884.143	22508
884.269	22580
884.395	22181
884.52	22051
884.646	22059
884.772	22109
884.897	21956
885.023	22051
885.148	22143
885.274	22200
885.399	22268
885.524	22116
885.65	22207
885.775	22070
885.9	22070
886.025	22246
886.15	22200
886.275	22143
886.4	22078
886.525	22013
886.65	22059
886.775	22105
886.9	22356
887.025	22356
887.149	22181
887.274	22013
887.399	22070
887.523	21892
887.648	21895
887.773	21717
887.897	21941
888.021	21892
888.146	21835
888.27	22029
888.395	22029
888.519	21854
888.643	21953
888.767	22059
888.891	21793
889.015	21599
889.139	21679
889.263	21652
889.387	21778
889.511	21804
889.635	21679
889.759	21599
889.883	21660
890.006	21686
890.13	21701
890.254	21519
890.377	21485
890.501	21515
890.624	21420
890.748	21564
890.871	21355
890.995	21169
891.118	21176
891.241	21222
891.364	21218
891.488	21344
891.611	21218
891.734	21192
891.857	21192
891.98	21188
892.103	21138
892.226	21222
892.349	21199
892.471	21028
892.594	21096
892.717	21093
892.839	21169
892.962	21093
893.085	21123
893.207	21199
893.33	21013
893.452	20948
893.575	21070
893.697	21070
893.819	21237
893.941	21370
894.064	21195
894.186	20952
894.308	21093
894.43	21199
894.552	21135
894.674	21085
894.796	20956
894.918	21127
895.04	21119
895.161	21161
895.283	21169
895.405	21009
895.526	21039
895.648	21138
895.769	21100
895.891	21188
896.012	21096
896.134	21138
896.255	20998
896.376	21032
896.498	21154
896.619	21218
896.74	21028
896.861	21093
896.982	21336
897.103	21599
897.224	21325
897.345	21230
897.466	21192
897.587	21256
897.708	21355
897.828	21268
897.949	21203
898.07	21131
898.19	21203
898.311	21313
898.431	21237
898.552	21279
898.672	21340
898.792	21374
898.913	21279
899.033	21135
899.153	21089
899.273	20918
899.393	20906
899.513	21116
899.633	21009
899.753	21009
899.873	20933
899.993	21043
900.113	20880
900.232	21017
900.352	20979
900.472	20842
900.591	20849
900.711	20902
900.83	20697
900.95	20971
901.069	20899
901.189	20651
901.308	20431
901.427	20465
901.546	20385
901.665	20518
901.784	20385
901.904	20168
902.023	20100
902.141	19967
902.26	19917
902.379	20008
902.498	19936
902.617	19765
902.735	19822
902.854	19708
902.973	19635
903.091	19529
903.21	19586
903.328	19594
903.446	19320
903.565	19324
903.683	19343
903.801	19141
903.919	19377
904.038	19297
904.156	19080
904.274	19152
904.392	19004
904.51	19023
904.627	19057
904.745	19137
904.863	19133
904.981	18886
905.098	18696
905.216	18688
905.334	18772
905.451	18722
905.569	18719
905.686	18833
905.803	18661
905.921	18551
906.038	18570
906.155	18642
906.272	18365
906.389	18464
906.506	18308
906.623	18258
906.74	18266
906.857	18152
906.974	18235
907.091	18304
907.208	18407
907.324	18247
907.441	18178
907.557	18007
907.674	18015
907.79	17916
907.907	17954
908.023	17958
908.139	18053
908.256	17840
908.372	17908
908.488	17741
908.604	17790
908.72	17714
908.836	17642
908.952	17748
909.068	17619
909.184	17794
909.3	17687
909.415	17783
909.531	17634
909.647	17535
909.762	17307
909.878	17395
909.993	17383
910.108	17337
910.224	17341
910.339	17356
910.454	17265
910.57	17151
910.685	17174
910.8	17395
910.915	17345
911.03	17235
911.145	17029
911.259	17006
911.374	17048
911.489	16828
911.604	16831
911.718	16752
911.833	16717
911.947	16588
912.062	16569
912.176	16774
912.291	16687
912.405	16771
912.519	16892
912.633	16927
912.748	16782
912.862	16649
912.976	16516
913.09	16470
913.204	16485
913.318	16493
913.431	16504
913.545	16531
913.659	16729
913.772	16462
913.886	16390
914	16211
914.113	16371
914.226	16436
914.34	16405
914.453	16246
914.566	16398
914.68	16207
914.793	16116
914.906	16025
915.019	15903
915.132	15892
915.245	15873
915.358	15998
915.47	15983
915.583	15884
915.696	15930
915.809	15972
915.921	16116
916.034	15895
916.146	15861
916.259	15751
916.371	15789
916.483	15831
916.595	15770
916.708	15819
916.82	15675
916.932	15663
917.044	15656
917.156	15679
917.268	15507
917.38	15553
917.491	15519
917.603	15591
917.715	15488
917.826	15599
917.938	15473
918.049	15485
918.161	15492
918.272	15622
918.384	15603
918.495	15466
918.606	15275
918.717	15230
918.828	15374
918.939	15321
919.05	15203
919.161	15294
919.272	15169
919.383	15146
919.494	15275
919.604	15325
919.715	15268
919.826	15230
919.936	15237
920.047	15272
920.157	15283
920.267	15283
920.378	15256
920.488	15256
920.598	15313
920.708	15618
920.818	15310
920.928	15329
921.038	15515
921.148	15424
921.258	15207
921.368	15024
921.477	15055
921.587	15017
921.697	14849
921.806	14914
921.916	14792
922.025	14640
922.134	14632
922.244	14541
922.353	14655
922.462	14545
922.571	14389
922.68	14248
922.789	14157
922.898	14263
923.007	14244
923.116	14301
923.224	14153
923.333	14210
923.442	14153
923.55	14069
923.659	13978
923.767	14115
923.876	14001
923.984	14016
924.092	14016
924.201	13967
924.309	13970
924.417	14043
924.525	13955
924.633	13871
924.741	14514
924.849	13636
924.956	13776
925.064	13586
925.172	13605
925.279	13529
925.387	13674
925.494	13643
925.602	13761
925.709	13601
925.816	13506
925.924	13487
926.031	13616
926.138	13590
926.245	13647
926.352	13304
926.459	13529
926.566	13521
926.673	13392
926.779	13373
926.886	13304
926.993	13145
927.099	13141
927.206	13114
927.312	13141
927.419	13107
927.525	13110
927.631	13171
927.737	13027
927.843	12981
927.95	12924
928.056	12954
928.162	12939
928.267	12993
928.373	13594
928.479	13122
928.585	12711
928.69	12920
928.796	12875
928.901	12753
929.007	12654
929.112	12707
929.218	12840
929.323	12719
929.428	12616
929.533	12779
929.638	12631
929.743	12582
929.848	12642
929.953	12620
930.058	12574
930.163	12361
930.267	12258
930.372	12464
930.477	12247
930.581	12566
930.685	12414
930.79	12258
930.894	12289
930.998	12194
931.103	12388
931.207	11931
931.311	11920
931.415	11847
931.519	11535
931.623	11554
