Data from test_V78500241_1475.txt Node
Date: Fri Mar 25 15:52:01 CST 2022
User: usil
Spectrometer: V785-0024
Trigger mode: 0
Integration Time (sec): 4.000000E-1
Scans to average: 1
Nonlinearity correction enabled: false
Boxcar width: 0
Storing dark spectrum: false
XAxis mode: Wavelengths
Number of Pixels in Spectrum: 1024
>>>>>Begin Spectral Data<<<<<
801.071	27622
801.214	27648
801.356	27340
801.499	27279
801.641	27188
801.783	27214
801.926	27329
802.068	27214
802.211	27089
802.353	26960
802.496	26838
802.638	26918
802.78	26819
802.923	26762
803.065	26762
803.208	26811
803.35	26720
803.492	26716
803.635	27005
803.777	26925
803.919	27055
804.061	27294
804.204	27039
804.346	26880
804.488	26925
804.63	26998
804.773	26883
804.915	27074
805.057	27024
805.199	27001
805.341	27119
805.483	27157
805.626	27024
805.768	27001
805.91	27127
806.052	27116
806.194	27096
806.336	27283
806.478	27150
806.62	27131
806.762	27256
806.904	27340
807.046	27724
807.188	27492
807.33	27603
807.472	27819
807.614	27431
807.756	27458
807.898	27431
808.04	27401
808.182	27336
808.324	27515
808.465	27443
808.607	27603
808.749	27850
808.891	27941
809.033	27895
809.174	27705
809.316	27709
809.458	27686
809.6	27739
809.741	27857
809.883	28017
810.025	28086
810.166	28128
810.308	28032
810.45	27937
810.591	27994
810.733	27812
810.875	27743
811.016	27614
811.158	27641
811.299	27819
811.441	27911
811.582	27762
811.724	27865
811.865	27641
812.007	27694
812.148	27861
812.29	27812
812.431	27835
812.573	27972
812.714	28143
812.855	28204
812.997	28341
813.138	28500
813.279	28409
813.421	28086
813.562	28131
813.703	28006
813.845	27918
813.986	27751
814.127	27485
814.268	27473
814.41	27492
814.551	27351
814.692	27580
814.833	27374
814.974	27291
815.115	27466
815.256	27268
815.397	27351
815.539	27317
815.68	27359
815.821	27127
815.962	27233
816.103	27074
816.244	26960
816.385	26918
816.526	26895
816.666	26807
816.807	26678
816.948	26743
817.089	26788
817.23	26689
817.371	26689
817.512	26648
817.653	26678
817.793	26613
817.934	26621
818.075	26648
818.216	26724
818.356	26674
818.497	26587
818.638	26503
818.778	26389
818.919	26442
819.06	26385
819.2	26670
819.341	26701
819.481	26651
819.622	26708
819.762	27074
819.903	26952
820.043	26842
820.184	26735
820.324	26678
820.465	26815
820.605	26750
820.746	26800
820.886	26716
821.026	26720
821.167	26792
821.307	26830
821.447	26823
821.588	26632
821.728	26366
821.868	26423
822.008	26138
822.149	26054
822.289	26172
822.429	25936
822.569	25772
822.709	25799
822.849	25658
822.99	25700
823.13	25575
823.27	25620
823.41	25491
823.55	25403
823.69	25510
823.83	25487
823.97	25407
824.11	25274
824.25	25247
824.389	25384
824.529	25396
824.669	25400
824.809	25483
824.949	25457
825.089	25483
825.228	25388
825.368	25217
825.508	25065
825.648	25187
825.787	25179
825.927	25308
826.067	25247
826.206	25126
826.346	25175
826.485	25209
826.625	25263
826.765	25343
826.904	25122
827.044	24985
827.183	24962
827.323	24787
827.462	25019
827.601	24901
827.741	24958
827.88	24852
828.02	24661
828.159	24852
828.298	24970
828.437	24909
828.577	24840
828.716	24871
828.855	25012
828.994	24604
829.134	24494
829.273	24620
829.412	24566
829.551	24422
829.69	24589
829.829	24654
829.968	24616
830.107	24669
830.246	24578
830.385	24490
830.524	24330
830.663	24292
830.802	24289
830.941	24251
831.08	24140
831.219	24296
831.357	24235
831.496	24372
831.635	24167
831.774	24167
831.913	24098
832.051	24022
832.19	23878
832.329	24053
832.467	23855
832.606	23882
832.744	23699
832.883	23767
833.022	23760
833.16	23813
833.299	23893
833.437	23843
833.576	23946
833.714	23882
833.852	23904
833.991	24125
834.129	23977
834.267	23977
834.406	23916
834.544	24007
834.682	23855
834.821	23866
834.959	23984
835.097	23745
835.235	24007
835.373	23863
835.511	23901
835.65	23790
835.788	23737
835.926	23573
836.064	23543
836.202	23520
836.34	23771
836.478	23843
836.615	23821
836.753	23760
836.891	23821
837.029	23775
837.167	23684
837.305	23554
837.443	23581
837.58	23596
837.718	23589
837.856	23638
837.993	23516
838.131	23512
838.269	23398
838.406	23471
838.544	23425
838.681	23326
838.819	23284
838.956	23018
839.094	23071
839.231	23029
839.369	23143
839.506	23440
839.643	23223
839.781	23113
839.918	22904
840.055	23189
840.193	23014
840.33	22938
840.467	23014
840.604	23037
840.742	23185
840.879	22889
841.016	22930
841.153	23018
841.29	23098
841.427	23022
841.564	22854
841.701	22900
841.838	22866
841.975	22889
842.112	22869
842.249	22790
842.385	22713
842.522	22805
842.659	22797
842.796	22672
842.933	22607
843.069	22557
843.206	22736
843.343	22953
843.479	22740
843.616	22683
843.752	22535
843.889	22565
844.025	22736
844.162	22451
844.298	22687
844.435	22470
844.571	22531
844.708	22497
844.844	22698
844.98	22660
845.117	22573
845.253	22535
845.389	22306
845.525	22432
845.661	22386
845.798	22219
845.934	22322
846.07	22249
846.206	22306
846.342	22367
846.478	22284
846.614	22112
846.75	22051
846.886	21895
847.022	22090
847.158	22112
847.294	22124
847.429	22017
847.565	21880
847.701	22188
847.837	21717
847.972	21663
848.108	21671
848.244	21842
848.379	21648
848.515	21458
848.65	21504
848.786	21549
848.921	21477
849.057	21701
849.192	21587
849.328	21561
849.463	21557
849.598	21481
849.734	21507
849.869	21332
850.004	21351
850.14	21351
850.275	21408
850.41	21317
850.545	21211
850.68	21386
850.815	21367
850.95	21298
851.085	21561
851.22	21500
851.355	21386
851.49	21302
851.625	21332
851.76	21260
851.895	21237
852.03	21241
852.165	21272
852.299	21321
852.434	21386
852.569	21393
852.703	21310
852.838	21351
852.973	21485
853.107	21420
853.242	21401
853.376	21268
853.511	21081
853.645	21157
853.78	21317
853.914	21157
854.048	21173
854.183	21116
854.317	21218
854.451	21374
854.585	21192
854.72	21131
854.854	21275
854.988	21043
855.122	21051
855.256	21058
855.39	21157
855.524	21104
855.658	21195
855.792	21070
855.926	21119
856.06	21138
856.194	21211
856.327	21173
856.461	21096
856.595	21161
856.729	21089
856.862	21169
856.996	21165
857.13	21264
857.263	21306
857.397	21237
857.53	21154
857.664	21260
857.797	21211
857.931	21260
858.064	21268
858.197	21272
858.331	21150
858.464	21154
858.597	21127
858.731	21135
858.864	21116
858.997	21062
859.13	21123
859.263	21195
859.396	21340
859.529	21154
859.662	21036
859.795	21131
859.928	21135
860.061	21241
860.194	21370
860.327	21161
860.46	21203
860.592	21298
860.725	21176
860.858	21165
860.99	21291
861.123	21020
861.256	21066
861.388	21154
861.521	21861
861.653	20952
861.786	20975
861.918	20967
862.05	20990
862.183	21051
862.315	21051
862.447	21165
862.58	21039
862.712	20918
862.844	20864
862.976	20910
863.108	20899
863.24	21351
863.372	20769
863.504	20872
863.636	20796
863.768	20918
863.9	20853
864.032	20758
864.164	20788
864.296	20868
864.428	20956
864.559	20933
864.691	21013
864.823	20845
864.954	20918
865.086	20845
865.217	20777
865.349	20724
865.48	20739
865.612	20762
865.743	20994
865.875	20845
866.006	20632
866.137	20724
866.269	20864
866.4	20724
866.531	20708
866.662	20693
866.793	20659
866.924	20834
867.055	20785
867.186	20621
867.317	20693
867.448	20655
867.579	20686
867.71	20530
867.841	20689
867.972	20804
868.103	20712
868.233	20708
868.364	20651
868.495	20853
868.625	20910
868.756	21062
868.886	20929
869.017	20918
869.147	21017
869.278	21085
869.408	21051
869.539	21028
869.669	21055
869.799	21066
869.929	20979
870.06	21169
870.19	21279
870.32	21218
870.45	21245
870.58	21310
870.71	21431
870.84	21534
870.97	21306
871.1	21389
871.23	21424
871.36	21599
871.489	21370
871.619	21504
871.749	21542
871.879	21606
872.008	21618
872.138	21477
872.267	21648
872.397	21428
872.526	21424
872.656	21401
872.785	21397
872.915	21595
873.044	21713
873.173	21606
873.303	21633
873.432	21568
873.561	21637
873.69	21694
873.819	21568
873.948	21686
874.077	21561
874.206	21564
874.335	21576
874.464	21671
874.593	21865
874.722	21694
874.851	21922
874.979	21793
875.108	21800
875.237	21724
875.365	21755
875.494	21854
875.623	21812
875.751	21774
875.88	21770
876.008	21975
876.136	21979
876.265	22185
876.393	22253
876.521	22284
876.65	22246
876.778	22204
876.906	22188
877.034	22093
877.162	22109
877.29	22055
877.418	22154
877.546	22093
877.674	22131
877.802	22143
877.93	22154
878.058	22139
878.185	22051
878.313	22097
878.441	22086
878.568	21945
878.696	22048
878.824	22097
878.951	22200
879.079	22390
879.206	22424
879.333	22299
879.461	22230
879.588	22379
879.715	22390
879.842	22432
879.97	22158
880.097	22040
880.224	22055
880.351	22093
880.478	21991
880.605	21991
880.732	22063
880.859	22204
880.986	22055
881.112	22116
881.239	21804
881.366	21876
881.493	21644
881.619	21595
881.746	21595
881.872	21644
881.999	21728
882.125	21397
882.252	21496
882.378	21591
882.505	21671
882.631	21416
882.757	21355
882.883	21332
883.01	21264
883.136	21199
883.262	21157
883.388	21104
883.514	21264
883.64	21279
883.766	21203
883.892	21051
884.018	21085
884.143	21055
884.269	21222
884.395	21009
884.52	20849
884.646	20956
884.772	20830
884.897	20944
885.023	20941
885.148	20899
885.274	21051
885.399	21093
885.524	20914
885.65	20906
885.775	20918
885.9	20937
886.025	20937
886.15	21074
886.275	20819
886.4	20819
886.525	20861
886.65	20838
886.775	20849
886.9	21043
887.025	21112
887.149	20994
887.274	20686
887.399	20682
887.523	20670
887.648	20617
887.773	20511
887.897	20674
888.021	20670
888.146	20708
888.27	20727
888.395	20716
888.519	20705
888.643	20632
888.767	20792
888.891	20632
889.015	20438
889.139	20499
889.263	20549
889.387	20457
889.511	20697
889.635	20522
889.759	20427
889.883	20412
890.006	20507
890.13	20613
890.254	20343
890.377	20446
890.501	20237
890.624	20221
890.748	20320
890.871	20161
890.995	20103
891.118	19936
891.241	20092
891.364	20035
891.488	20233
891.611	19955
891.734	20012
891.857	20142
891.98	20058
892.103	20187
892.226	20081
892.349	20058
892.471	19902
892.594	20046
892.717	20031
892.839	19959
892.962	19978
893.085	20050
893.207	19875
893.33	19894
893.452	19894
893.575	20001
893.697	19947
893.819	20111
893.941	20084
894.064	20058
894.186	19959
894.308	19811
894.43	19974
894.552	20130
894.674	20031
894.796	19928
894.918	19917
895.04	19921
895.161	19902
895.283	19986
895.405	19822
895.526	19887
895.648	19925
895.769	19955
895.891	19944
896.012	20062
896.134	20027
896.255	20001
896.376	19887
896.498	20024
896.619	20081
896.74	19887
896.861	20012
896.982	20294
897.103	20419
897.224	20153
897.345	20176
897.466	20062
897.587	20214
897.708	20305
897.828	20130
897.949	20168
898.07	20001
898.19	20180
898.311	20214
898.431	20077
898.552	20225
898.672	20305
898.792	20259
898.913	20149
899.033	20084
899.153	19959
899.273	19860
899.393	19982
899.513	20065
899.633	19894
899.753	20046
899.873	19959
899.993	20088
900.113	19906
900.232	19951
900.352	19898
900.472	19761
900.591	19674
900.711	19685
900.83	19708
900.95	19841
901.069	19791
901.189	19655
901.308	19320
901.427	19289
901.546	19320
901.665	19270
901.784	19373
901.904	19232
902.023	19137
902.141	18882
902.26	18810
902.379	18848
902.498	18738
902.617	18677
902.735	18821
902.854	18814
902.973	18757
903.091	18551
903.21	18506
903.328	18437
903.446	18445
903.565	18273
903.683	18311
903.801	18194
903.919	18323
904.038	18254
904.156	18003
904.274	18174
904.392	18076
904.51	18030
904.627	18148
904.745	18102
904.863	18098
904.981	18007
905.098	17703
905.216	17779
905.334	17764
905.451	17752
905.569	17707
905.686	17809
905.803	17722
905.921	17551
906.038	17623
906.155	17501
906.272	17364
906.389	17387
906.506	17220
906.623	17349
906.74	17303
906.857	17273
906.974	17189
907.091	17311
907.208	17372
907.324	17311
907.441	17094
907.557	17003
907.674	16938
907.79	16862
907.907	16881
908.023	16999
908.139	16968
908.256	16961
908.372	16904
908.488	16801
908.604	16828
908.72	16618
908.836	16710
908.952	16672
909.068	16691
909.184	16896
909.3	16607
909.415	16660
909.531	16660
909.647	16478
909.762	16436
909.878	16299
909.993	16451
910.108	16333
910.224	16333
910.339	16314
910.454	16303
910.57	16223
910.685	16120
910.8	16523
910.915	16337
911.03	16299
911.145	16131
911.259	16021
911.374	15983
911.489	15926
911.604	15850
911.718	15728
911.833	15766
911.947	15747
912.062	15629
912.176	15717
912.291	15762
912.405	15823
912.519	15937
912.633	16013
912.748	15766
912.862	15781
912.976	15580
913.09	15488
913.204	15504
913.318	15587
913.431	15587
913.545	15591
913.659	15629
913.772	15564
913.886	15367
914	15443
914.113	15378
914.226	15492
914.34	15488
914.453	15192
914.566	15431
914.68	15336
914.793	15222
914.906	15081
915.019	14933
915.132	14986
915.245	14967
915.358	15085
915.47	15009
915.583	15055
915.696	15017
915.809	15058
915.921	15104
916.034	14944
916.146	14853
916.259	14933
916.371	15047
916.483	15005
916.595	14811
916.708	14845
916.82	14788
916.932	14758
917.044	14724
917.156	14735
917.268	14537
917.38	14686
917.491	14617
917.603	14644
917.715	14659
917.826	14720
917.938	14514
918.049	14473
918.161	14583
918.272	14708
918.384	14796
918.495	14514
918.606	14381
918.717	14412
918.828	14549
918.939	14450
919.05	14282
919.161	14412
919.272	14278
919.383	14339
919.494	14442
919.604	14636
919.715	14381
919.826	14252
919.936	14351
920.047	14377
920.157	14461
920.267	14530
920.378	14427
920.488	14396
920.598	14537
920.708	14826
920.818	14469
920.928	14499
921.038	14629
921.148	14610
921.258	14267
921.368	14149
921.477	14058
921.587	14054
921.697	14008
921.806	14145
921.916	13970
922.025	13841
922.134	13814
922.244	13753
922.353	13826
922.462	13670
922.571	13514
922.68	13434
922.789	13445
922.898	13415
923.007	13350
923.116	13403
923.224	13419
923.333	13335
923.442	13350
923.55	13285
923.659	13179
923.767	13331
923.876	13156
923.984	13236
924.092	13103
924.201	13217
924.309	13160
924.417	13091
924.525	13000
924.633	12985
924.741	14058
924.849	12840
924.956	13053
925.064	12886
925.172	12768
925.279	12814
925.387	12901
925.494	12863
925.602	12916
925.709	12787
925.816	12764
925.924	12745
926.031	12848
926.138	12677
926.245	12848
926.352	12677
926.459	12840
926.566	12924
926.673	12631
926.779	12631
926.886	12551
926.993	12452
927.099	12410
927.206	12353
927.312	12304
927.419	12376
927.525	12391
927.631	12441
927.737	12285
927.843	12281
927.95	12098
928.056	12251
928.162	12296
928.267	12277
928.373	12928
928.479	12277
928.585	12091
928.69	12239
928.796	12194
928.901	12129
929.007	11927
929.112	12114
929.218	11992
929.323	12030
929.428	11954
929.533	12114
929.638	11923
929.743	11904
929.848	11988
929.953	11851
930.058	11878
930.163	11627
930.267	11680
930.372	11813
930.477	11596
930.581	11722
930.685	11623
930.79	11532
930.894	11577
930.998	11512
931.103	11634
931.207	11246
931.311	11185
931.415	11239
931.519	10999
931.623	10896
