Data from test_V78500241_1531.txt Node
Date: Fri Mar 25 15:52:24 CST 2022
User: usil
Spectrometer: V785-0024
Trigger mode: 0
Integration Time (sec): 4.000000E-1
Scans to average: 1
Nonlinearity correction enabled: false
Boxcar width: 0
Storing dark spectrum: false
XAxis mode: Wavelengths
Number of Pixels in Spectrum: 1024
>>>>>Begin Spectral Data<<<<<
801.071	28268
801.214	28211
801.356	28078
801.499	27949
801.641	27914
801.783	27838
801.926	27861
802.068	27774
802.211	27892
802.353	27743
802.496	27587
802.638	27660
802.78	27427
802.923	27412
803.065	27633
803.208	27427
803.35	27629
803.492	27781
803.635	27835
803.777	27743
803.919	27819
804.061	28105
804.204	27774
804.346	27781
804.488	27789
804.63	27823
804.773	27743
804.915	27857
805.057	28021
805.199	27945
805.341	27850
805.483	27876
805.626	27907
805.768	27922
805.91	28086
806.052	28029
806.194	27888
806.336	28242
806.478	28051
806.62	27953
806.762	28185
806.904	28341
807.046	28436
807.188	28337
807.33	28394
807.472	28519
807.614	28291
807.756	28485
807.898	28295
808.04	28265
808.182	28303
808.324	28265
808.465	28424
808.607	28565
808.749	28691
808.891	28835
809.033	28835
809.174	28672
809.316	28630
809.458	28588
809.6	28668
809.741	28778
809.883	28862
810.025	28976
810.166	29037
810.308	28877
810.45	28919
810.591	28790
810.733	28630
810.875	28596
811.016	28481
811.158	28459
811.299	28668
811.441	28698
811.582	28733
811.724	28618
811.865	28569
812.007	28736
812.148	28592
812.29	28672
812.431	28809
812.573	28968
812.714	29109
812.855	29128
812.997	29239
813.138	29448
813.279	29242
813.421	29242
813.562	29048
813.703	28976
813.845	28763
813.986	28622
814.127	28451
814.268	28466
814.41	28390
814.551	28443
814.692	28405
814.833	28265
814.974	28268
815.115	28306
815.256	28192
815.397	28295
815.539	28268
815.68	28226
815.821	28036
815.962	28128
816.103	28192
816.244	28185
816.385	27930
816.526	27861
816.666	27717
816.807	27553
816.948	27724
817.089	27679
817.23	27660
817.371	27648
817.512	27553
817.653	27603
817.793	27641
817.934	27774
818.075	27724
818.216	27679
818.356	27534
818.497	27488
818.638	27431
818.778	27496
818.919	27393
819.06	27492
819.2	27618
819.341	27564
819.481	27774
819.622	27797
819.762	27956
819.903	27907
820.043	27785
820.184	27713
820.324	27797
820.465	27884
820.605	27652
820.746	27701
820.886	27682
821.026	27736
821.167	27724
821.307	27850
821.447	27671
821.588	27580
821.728	27447
821.868	27291
822.008	27237
822.149	27173
822.289	27226
822.429	26940
822.569	26880
822.709	26872
822.849	26705
822.99	26602
823.13	26651
823.27	26568
823.41	26476
823.55	26328
823.69	26564
823.83	26526
823.97	26469
824.11	26256
824.25	26309
824.389	26206
824.529	26377
824.669	26320
824.809	26423
824.949	26511
825.089	26336
825.228	26305
825.368	26210
825.508	26153
825.648	26202
825.787	26259
825.927	26298
826.067	26240
826.206	26176
826.346	26206
826.485	26294
826.625	26134
826.765	26328
826.904	26263
827.044	26024
827.183	25955
827.323	25818
827.462	25947
827.601	25909
827.741	25845
827.88	25894
828.02	25670
828.159	25799
828.298	25989
828.437	25928
828.577	25860
828.716	26054
828.855	25803
828.994	25521
829.134	25681
829.273	25662
829.412	25586
829.551	25438
829.69	25575
829.829	25765
829.968	25845
830.107	25575
830.246	25620
830.385	25521
830.524	25403
830.663	25369
830.802	25278
830.941	25266
831.08	25107
831.219	25240
831.357	25118
831.496	25343
831.635	25168
831.774	25114
831.913	25133
832.051	25061
832.19	24916
832.329	25042
832.467	24970
832.606	24779
832.744	24829
832.883	24867
833.022	24814
833.16	24844
833.299	25038
833.437	24913
833.576	25004
833.714	24829
833.852	25095
833.991	25057
834.129	24966
834.267	24962
834.406	24924
834.544	25076
834.682	24954
834.821	24920
834.959	25103
835.097	25008
835.235	25053
835.373	24810
835.511	24894
835.65	24791
835.788	24745
835.926	24661
836.064	24483
836.202	24563
836.34	24837
836.478	24719
836.615	24745
836.753	24768
836.891	24844
837.029	24681
837.167	24616
837.305	24669
837.443	24566
837.58	24620
837.718	24551
837.856	24620
837.993	24563
838.131	24544
838.269	24464
838.406	24464
838.544	24414
838.681	24152
838.819	24300
838.956	24140
839.094	23958
839.231	24057
839.369	24304
839.506	24365
839.643	24159
839.781	24083
839.918	24057
840.055	24106
840.193	23984
840.33	24022
840.467	23977
840.604	23999
840.742	24140
840.879	23764
841.016	23950
841.153	23828
841.29	24091
841.427	23969
841.564	23996
841.701	23927
841.838	23870
841.975	23904
842.112	24053
842.249	23760
842.385	23745
842.522	23923
842.659	23649
842.796	23745
842.933	23695
843.069	23589
843.206	23737
843.343	23710
843.479	23752
843.616	23779
843.752	23421
843.889	23440
844.025	23535
844.162	23433
844.298	23497
844.435	23482
844.571	23478
844.708	23512
844.844	23687
844.98	23573
845.117	23722
845.253	23509
845.389	23307
845.525	23398
845.661	23299
845.798	23143
845.934	23269
846.07	23162
846.206	23322
846.342	23288
846.478	23143
846.614	23010
846.75	22919
846.886	23041
847.022	23037
847.158	22968
847.294	22919
847.429	23003
847.565	22908
847.701	23189
847.837	22653
847.972	22660
848.108	22767
848.244	22672
848.379	22630
848.515	22474
848.65	22466
848.786	22493
848.921	22485
849.057	22546
849.192	22683
849.328	22615
849.463	22459
849.598	22512
849.734	22500
849.869	22382
850.004	22284
850.14	22348
850.275	22291
850.41	22242
850.545	22314
850.68	22257
850.815	22238
850.95	22322
851.085	22394
851.22	22459
851.355	22306
851.49	22360
851.625	22413
851.76	22242
851.895	22261
852.03	22124
852.165	22276
852.299	22329
852.434	22421
852.569	22284
852.703	22219
852.838	22405
852.973	22531
853.107	22337
853.242	22238
853.376	22135
853.511	21915
853.645	22093
853.78	22181
853.914	22200
854.048	22059
854.183	22017
854.317	22093
854.451	22382
854.585	22074
854.72	22090
854.854	22207
854.988	22090
855.122	22021
855.256	22044
855.39	22166
855.524	22166
855.658	22162
855.792	21968
855.926	22086
856.06	22192
856.194	22181
856.327	22025
856.461	22082
856.595	22010
856.729	22086
856.862	22303
856.996	22181
857.13	22124
857.263	22192
857.397	22185
857.53	22135
857.664	22131
857.797	22150
857.931	22238
858.064	22181
858.197	22219
858.331	22029
858.464	22044
858.597	21915
858.731	22188
858.864	22002
858.997	22128
859.13	22074
859.263	22158
859.396	22246
859.529	22029
859.662	22086
859.795	21945
859.928	22040
860.061	22341
860.194	22242
860.327	22143
860.46	22173
860.592	22120
860.725	22238
860.858	22246
860.99	22032
861.123	21934
861.256	22032
861.388	22169
861.521	22748
861.653	22044
861.786	21953
861.918	22017
862.05	21998
862.183	21945
862.315	22128
862.447	22147
862.58	22025
862.712	21880
862.844	21831
862.976	21842
863.108	21876
863.24	22238
863.372	21751
863.504	21819
863.636	21869
863.768	21892
863.9	21808
864.032	21614
864.164	21808
864.296	21808
864.428	21994
864.559	21850
864.691	21838
864.823	21819
864.954	21903
865.086	21759
865.217	21720
865.349	21660
865.48	21705
865.612	21633
865.743	21785
865.875	21698
866.006	21603
866.137	21789
866.269	21633
866.4	21599
866.531	21629
866.662	21705
866.793	21644
866.924	21637
867.055	21633
867.186	21583
867.317	21583
867.448	21652
867.579	21618
867.71	21660
867.841	21675
867.972	21625
868.103	21572
868.233	21667
868.364	21622
868.495	21667
868.625	21842
868.756	22063
868.886	21774
869.017	21880
869.147	22021
869.278	22021
869.408	21922
869.539	21823
869.669	21907
869.799	21892
869.929	21907
870.06	22070
870.19	22211
870.32	22067
870.45	22272
870.58	22207
870.71	22398
870.84	22375
870.97	22226
871.1	22314
871.23	22398
871.36	22497
871.489	22428
871.619	22474
871.749	22462
871.879	22504
872.008	22649
872.138	22584
872.267	22512
872.397	22440
872.526	22280
872.656	22386
872.785	22352
872.915	22500
873.044	22516
873.173	22584
873.303	22630
873.432	22580
873.561	22725
873.69	22531
873.819	22459
873.948	22527
874.077	22542
874.206	22474
874.335	22489
874.464	22637
874.593	22733
874.722	22778
874.851	22717
874.979	22740
875.108	22835
875.237	22706
875.365	22565
875.494	22793
875.623	22812
875.751	22786
875.88	22698
876.008	22820
876.136	22862
876.265	23128
876.393	23246
876.521	23265
876.65	23075
876.778	23170
876.906	23041
877.034	23003
877.162	23109
877.29	23037
877.418	23022
877.546	23109
877.674	23121
877.802	23117
877.93	23071
878.058	23102
878.185	22965
878.313	22957
878.441	22923
878.568	22927
878.696	23018
878.824	23022
878.951	23136
879.079	23239
879.206	23410
879.333	23052
879.461	23094
879.588	23231
879.715	23307
879.842	23231
879.97	23223
880.097	22900
880.224	22896
880.351	22942
880.478	22885
880.605	22866
880.732	22812
880.859	23147
880.986	22786
881.112	22972
881.239	22649
881.366	22569
881.493	22440
881.619	22402
881.746	22485
881.872	22550
881.999	22382
882.125	22333
882.252	22413
882.378	22405
882.505	22557
882.631	22253
882.757	22173
882.883	22139
883.01	22120
883.136	22181
883.262	22017
883.388	21998
883.514	22097
883.64	22200
883.766	21941
883.892	21869
884.018	21861
884.143	22116
884.269	22169
884.395	21747
884.52	21800
884.646	21774
884.772	21591
884.897	21686
885.023	21705
885.148	21808
885.274	21892
885.399	21774
885.524	21759
885.65	21686
885.775	21774
885.9	21591
886.025	21861
886.15	21930
886.275	21671
886.4	21633
886.525	21766
886.65	21576
886.775	21679
886.9	21884
887.025	21968
887.149	21675
887.274	21557
887.399	21439
887.523	21720
887.648	21408
887.773	21500
887.897	21572
888.021	21549
888.146	21389
888.27	21583
888.395	21583
888.519	21637
888.643	21549
888.767	21591
888.891	21344
889.015	21389
889.139	21374
889.263	21306
889.387	21378
889.511	21466
889.635	21344
889.759	21173
889.883	21268
890.006	21211
890.13	21500
890.254	21268
890.377	21245
890.501	21142
890.624	20979
890.748	21100
890.871	21047
890.995	20864
891.118	20792
891.241	20845
891.364	20960
891.488	20960
891.611	20796
891.734	20876
891.857	20743
891.98	20887
892.103	20994
892.226	20857
892.349	20899
892.471	20689
892.594	20735
892.717	20823
892.839	20743
892.962	20887
893.085	20777
893.207	20765
893.33	20743
893.452	20621
893.575	20830
893.697	20750
893.819	20921
893.941	20944
894.064	20971
894.186	20621
894.308	20743
894.43	20735
894.552	20868
894.674	20876
894.796	20648
894.918	20727
895.04	20785
895.161	20689
895.283	20716
895.405	20739
895.526	20708
895.648	20678
895.769	20727
895.891	20644
896.012	20815
896.134	20796
896.255	20792
896.376	20682
896.498	20701
896.619	20906
896.74	20769
896.861	20868
896.982	21013
897.103	21245
897.224	20998
897.345	20967
897.466	20910
897.587	20857
897.708	21039
897.828	20998
897.949	20918
898.07	20838
898.19	20990
898.311	21070
898.431	21074
898.552	20880
898.672	21074
898.792	21047
898.913	20975
899.033	20857
899.153	20754
899.273	20762
899.393	20819
899.513	20891
899.633	20754
899.753	20796
899.873	20743
899.993	20830
900.113	20708
900.232	20781
900.352	20499
900.472	20450
900.591	20461
900.711	20598
900.83	20568
900.95	20617
901.069	20575
901.189	20408
901.308	20138
901.427	20069
901.546	20069
901.665	20077
901.784	19963
901.904	19925
902.023	19780
902.141	19632
902.26	19613
902.379	19719
902.498	19495
902.617	19480
902.735	19624
902.854	19502
902.973	19510
903.091	19190
903.21	19168
903.328	19240
903.446	19133
903.565	18996
903.683	19118
903.801	18951
903.919	18981
904.038	19015
904.156	18700
904.274	18962
904.392	18726
904.51	18757
904.627	18897
904.745	18840
904.863	18897
904.981	18642
905.098	18509
905.216	18506
905.334	18441
905.451	18483
905.569	18410
905.686	18483
905.803	18361
905.921	18254
906.038	18319
906.155	18334
906.272	18106
906.389	18239
906.506	18064
906.623	18057
906.74	18057
906.857	17977
906.974	17851
907.091	18133
907.208	18064
907.324	17904
907.441	17813
907.557	17741
907.674	17786
907.79	17638
907.907	17714
908.023	17745
908.139	17718
908.256	17596
908.372	17570
908.488	17589
908.604	17478
908.72	17334
908.836	17505
908.952	17429
909.068	17444
909.184	17608
909.3	17444
909.415	17444
909.531	17455
909.647	17155
909.762	17235
909.878	17056
909.993	17151
910.108	17121
910.224	17041
910.339	17143
910.454	17025
910.57	17003
910.685	16877
910.8	17136
910.915	17128
911.03	17025
911.145	16748
911.259	16683
911.374	16759
911.489	16656
911.604	16641
911.718	16462
911.833	16512
911.947	16379
912.062	16390
912.176	16443
912.291	16462
912.405	16390
912.519	16641
912.633	16538
912.748	16573
912.862	16497
912.976	16226
913.09	16223
913.204	16204
913.318	16257
913.431	16280
913.545	16405
913.659	16234
913.772	16177
913.886	16017
914	16059
914.113	16124
914.226	16230
914.34	16086
914.453	15899
914.566	16017
914.68	15907
914.793	15846
914.906	15682
915.019	15637
915.132	15504
915.245	15644
915.358	15690
915.47	15713
915.583	15656
915.696	15644
915.809	15720
915.921	15827
916.034	15595
916.146	15553
916.259	15553
916.371	15492
916.483	15568
916.595	15435
916.708	15428
916.82	15545
916.932	15561
917.044	15336
917.156	15408
917.268	15313
917.38	15336
917.491	15245
917.603	15302
917.715	15298
917.826	15401
917.938	15237
918.049	15062
918.161	15116
918.272	15469
918.384	15329
918.495	15207
918.606	15039
918.717	15005
918.828	15028
918.939	14982
919.05	14853
919.161	15062
919.272	14724
919.383	14853
919.494	14990
919.604	15264
919.715	15062
919.826	14906
919.936	14982
920.047	15001
920.157	15070
920.267	15081
920.378	14975
920.488	14925
920.598	15104
920.708	15264
920.818	15146
920.928	15161
921.038	15291
921.148	15180
921.258	14937
921.368	14785
921.477	14739
921.587	14632
921.697	14533
921.806	14640
921.916	14560
922.025	14427
922.134	14370
922.244	14278
922.353	14362
922.462	14263
922.571	14168
922.68	14050
922.789	13909
922.898	14012
923.007	13963
923.116	13963
923.224	13970
923.333	13875
923.442	13894
923.55	13769
923.659	13890
923.767	13883
923.876	13765
923.984	13822
924.092	13658
924.201	13814
924.309	13715
924.417	13689
924.525	13708
924.633	13662
924.741	14663
924.849	13480
924.956	13632
925.064	13472
925.172	13270
925.279	13403
925.387	13396
925.494	13369
925.602	13392
925.709	13392
925.816	13263
925.924	13327
926.031	13419
926.138	13384
926.245	13373
926.352	13194
926.459	13369
926.566	13381
926.673	13285
926.779	13141
926.886	13103
926.993	12943
927.099	12954
927.206	12871
927.312	12859
927.419	13031
927.525	12840
927.631	12977
927.737	12787
927.843	12749
927.95	12650
928.056	12798
928.162	12787
928.267	12753
928.373	13403
928.479	12711
928.585	12555
928.69	12711
928.796	12734
928.901	12551
929.007	12407
929.112	12585
929.218	12578
929.323	12467
929.428	12422
929.533	12601
929.638	12346
929.743	12414
929.848	12414
929.953	12391
930.058	12365
930.163	12155
930.267	12148
930.372	12224
930.477	12087
930.581	12277
930.685	12133
930.79	11999
930.894	12053
930.998	11973
931.103	12083
931.207	11794
931.311	11627
931.415	11596
931.519	11360
931.623	11372
