Data from test_V78500241_161.txt Node
Date: Fri Mar 25 15:42:55 CST 2022
User: usil
Spectrometer: V785-0024
Trigger mode: 0
Integration Time (sec): 4.000000E-1
Scans to average: 1
Nonlinearity correction enabled: false
Boxcar width: 0
Storing dark spectrum: false
XAxis mode: Wavelengths
Number of Pixels in Spectrum: 1024
>>>>>Begin Spectral Data<<<<<
801.071	29288
801.214	29208
801.356	29033
801.499	29003
801.641	28908
801.783	28805
801.926	28919
802.068	28877
802.211	28664
802.353	28561
802.496	28592
802.638	28538
802.78	28390
802.923	28295
803.065	28371
803.208	28451
803.35	28394
803.492	28417
803.635	28577
803.777	28481
803.919	28557
804.061	28752
804.204	28630
804.346	28455
804.488	28459
804.63	28481
804.773	28497
804.915	28580
805.057	28565
805.199	28466
805.341	28713
805.483	28603
805.626	28645
805.768	28497
805.91	28565
806.052	28607
806.194	28478
806.336	28877
806.478	28516
806.62	28637
806.762	28664
806.904	28858
807.046	29132
807.188	29064
807.33	28968
807.472	28957
807.614	28828
807.756	29003
807.898	29022
808.04	28675
808.182	28816
808.324	28957
808.465	28892
808.607	28953
808.749	29189
808.891	29280
809.033	29444
809.174	29318
809.316	29094
809.458	29220
809.6	29113
809.741	29284
809.883	29223
810.025	29410
810.166	29417
810.308	29315
810.45	29303
810.591	29429
810.733	29162
810.875	29044
811.016	28949
811.158	29044
811.299	29216
811.441	29292
811.582	29174
811.724	29132
811.865	29018
812.007	29143
812.148	29132
812.29	29155
812.431	29341
812.573	29455
812.714	29581
812.855	29611
812.997	29798
813.138	29862
813.279	29684
813.421	29535
813.562	29608
813.703	29471
813.845	29337
813.986	28999
814.127	28919
814.268	28771
814.41	28782
814.551	28752
814.692	28843
814.833	28622
814.974	28706
815.115	28725
815.256	28615
815.397	28432
815.539	28542
815.68	28478
815.821	28455
815.962	28424
816.103	28428
816.244	28440
816.385	28211
816.526	28242
816.666	28093
816.807	27994
816.948	27918
817.089	28067
817.23	27911
817.371	27899
817.512	27831
817.653	27892
817.793	27724
817.934	27911
818.075	27911
818.216	27804
818.356	27854
818.497	27774
818.638	27591
818.778	27610
818.919	27545
819.06	27667
819.2	27850
819.341	27705
819.481	27876
819.622	28006
819.762	28051
819.903	28074
820.043	27876
820.184	27892
820.324	27892
820.465	27888
820.605	27850
820.746	27835
820.886	27671
821.026	27800
821.167	27705
821.307	28002
821.447	27781
821.588	27736
821.728	27469
821.868	27302
822.008	27241
822.149	27119
822.289	27112
822.429	26990
822.569	26914
822.709	26727
822.849	26758
822.99	26640
823.13	26769
823.27	26689
823.41	26442
823.55	26351
823.69	26492
823.83	26518
823.97	26419
824.11	26309
824.25	26286
824.389	26237
824.529	26317
824.669	26199
824.809	26343
824.949	26442
825.089	26355
825.228	26336
825.368	26031
825.508	26157
825.648	26024
825.787	26096
825.927	26058
826.067	26107
826.206	26016
826.346	26084
826.485	26164
826.625	26069
826.765	26145
826.904	26084
827.044	25753
827.183	25822
827.323	25909
827.462	25799
827.601	25814
827.741	25670
827.88	25814
828.02	25658
828.159	25765
828.298	25605
828.437	25788
828.577	25715
828.716	25746
828.855	25605
828.994	25476
829.134	25533
829.273	25571
829.412	25346
829.551	25384
829.69	25388
829.829	25392
829.968	25457
830.107	25487
830.246	25320
830.385	25396
830.524	25141
830.663	25103
830.802	25183
830.941	24958
831.08	24806
831.219	25053
831.357	25171
831.496	25141
831.635	24878
831.774	24981
831.913	24840
832.051	24776
832.19	24779
832.329	24806
832.467	24540
832.606	24479
832.744	24532
832.883	24483
833.022	24536
833.16	24505
833.299	24601
833.437	24582
833.576	24715
833.714	24608
833.852	24593
833.991	24715
834.129	24677
834.267	24650
834.406	24490
834.544	24585
834.682	24452
834.821	24357
834.959	24696
835.097	24479
835.235	24547
835.373	24623
835.511	24589
835.65	24631
835.788	24498
835.926	24365
836.064	24167
836.202	24258
836.34	24395
836.478	24486
836.615	24403
836.753	24308
836.891	24330
837.029	24361
837.167	24277
837.305	24262
837.443	24281
837.58	24247
837.718	24220
837.856	24232
837.993	24232
838.131	24262
838.269	24095
838.406	24220
838.544	23939
838.681	23897
838.819	23870
838.956	23551
839.094	23726
839.231	23722
839.369	23779
839.506	23988
839.643	23935
839.781	23577
839.918	23474
840.055	23638
840.193	23505
840.33	23417
840.467	23478
840.604	23562
840.742	23779
840.879	23356
841.016	23516
841.153	23345
841.29	23562
841.427	23402
841.564	23509
841.701	23482
841.838	23528
841.975	23303
842.112	23368
842.249	23265
842.385	23356
842.522	23429
842.659	23330
842.796	23117
842.933	23227
843.069	23178
843.206	23136
843.343	23326
843.479	23155
843.616	23208
843.752	23132
843.889	22923
844.025	23071
844.162	22873
844.298	23128
844.435	22953
844.571	22980
844.708	22984
844.844	23048
844.98	23094
845.117	23075
845.253	22839
845.389	22805
845.525	22927
845.661	22778
845.798	22752
845.934	22721
846.07	22538
846.206	22607
846.342	22702
846.478	22672
846.614	22375
846.75	22226
846.886	22447
847.022	22447
847.158	22478
847.294	22428
847.429	22405
847.565	22253
847.701	22577
847.837	22105
847.972	22063
848.108	22204
848.244	22124
848.379	21915
848.515	21968
848.65	21941
848.786	21960
848.921	22010
849.057	21998
849.192	21949
849.328	22082
849.463	21972
849.598	21835
849.734	21713
849.869	21823
850.004	21720
850.14	21728
850.275	21618
850.41	21656
850.545	21526
850.68	21648
850.815	21720
850.95	21675
851.085	21793
851.22	21831
851.355	21545
851.49	21648
851.625	21599
851.76	21637
851.895	21603
852.03	21496
852.165	21545
852.299	21561
852.434	21812
852.569	21686
852.703	21622
852.838	21679
852.973	21762
853.107	21759
853.242	21580
853.376	21462
853.511	21363
853.645	21439
853.78	21435
853.914	21462
854.048	21458
854.183	21408
854.317	21549
854.451	21542
854.585	21428
854.72	21313
854.854	21439
854.988	21386
855.122	21393
855.256	21336
855.39	21466
855.524	21454
855.658	21405
855.792	21492
855.926	21496
856.06	21485
856.194	21545
856.327	21496
856.461	21405
856.595	21447
856.729	21313
856.862	21549
856.996	21534
857.13	21534
857.263	21549
857.397	21507
857.53	21397
857.664	21378
857.797	21367
857.931	21568
858.064	21496
858.197	21580
858.331	21336
858.464	21275
858.597	21367
858.731	21332
858.864	21443
858.997	21256
859.13	21405
859.263	21408
859.396	21450
859.529	21344
859.662	21344
859.795	21359
859.928	21355
860.061	21534
860.194	21511
860.327	21317
860.46	21367
860.592	21511
860.725	21576
860.858	21462
860.99	21294
861.123	21397
861.256	21332
861.388	21443
861.521	21926
861.653	21256
861.786	21188
861.918	21237
862.05	21348
862.183	21389
862.315	21420
862.447	21378
862.58	21211
862.712	21131
862.844	21062
862.976	21222
863.108	21222
863.24	21454
863.372	21104
863.504	21020
863.636	21100
863.768	21127
863.9	21017
864.032	20956
864.164	21024
864.296	21009
864.428	21237
864.559	21142
864.691	21142
864.823	21066
864.954	21017
865.086	21085
865.217	20929
865.349	20819
865.48	21020
865.612	20975
865.743	21146
865.875	20982
866.006	20872
866.137	20921
866.269	20971
866.4	20895
866.531	20906
866.662	20902
866.793	20823
866.924	20796
867.055	20937
867.186	20910
867.317	20746
867.448	20834
867.579	20891
867.71	20743
867.841	20937
867.972	20880
868.103	20842
868.233	20937
868.364	20868
868.495	21043
868.625	20982
868.756	21252
868.886	20975
869.017	21104
869.147	21195
869.278	21275
869.408	21199
869.539	21184
869.669	21192
869.799	21203
869.929	21287
870.06	21176
870.19	21450
870.32	21389
870.45	21587
870.58	21633
870.71	21694
870.84	21720
870.97	21633
871.1	21545
871.23	21812
871.36	21785
871.489	21591
871.619	21682
871.749	21789
871.879	21789
872.008	21842
872.138	21641
872.267	21793
872.397	21530
872.526	21553
872.656	21580
872.785	21603
872.915	21759
873.044	21876
873.173	21880
873.303	21949
873.432	21770
873.561	21869
873.69	21880
873.819	21732
873.948	21831
874.077	21827
874.206	21679
874.335	21732
874.464	21861
874.593	22063
874.722	21956
874.851	22150
874.979	22063
875.108	22090
875.237	21941
875.365	21865
875.494	22006
875.623	22116
875.751	21915
875.88	22105
876.008	22154
876.136	22238
876.265	22356
876.393	22417
876.521	22489
876.65	22436
876.778	22360
876.906	22413
877.034	22318
877.162	22287
877.29	22284
877.418	22318
877.546	22360
877.674	22424
877.802	22306
877.93	22325
878.058	22337
878.185	22284
878.313	22242
878.441	22394
878.568	22173
878.696	22318
878.824	22375
878.951	22535
879.079	22485
879.206	22493
879.333	22493
879.461	22493
879.588	22447
879.715	22584
879.842	22519
879.97	22329
880.097	22207
880.224	22192
880.351	22185
880.478	22200
880.605	22173
880.732	22109
880.859	22538
880.986	22169
881.112	22246
881.239	21960
881.366	21998
881.493	21945
881.619	21747
881.746	21743
881.872	21789
881.999	21724
882.125	21603
882.252	21770
882.378	21800
882.505	21880
882.631	21652
882.757	21492
882.883	21595
883.01	21443
883.136	21412
883.262	21340
883.388	21222
883.514	21481
883.64	21447
883.766	21367
883.892	21230
884.018	21241
884.143	21542
884.269	21538
884.395	21268
884.52	21081
884.646	21112
884.772	21142
884.897	20986
885.023	21096
885.148	21249
885.274	21264
885.399	21230
885.524	21077
885.65	21047
885.775	21108
885.9	21089
886.025	21176
886.15	21272
886.275	21032
886.4	20994
886.525	21074
886.65	20960
886.775	20971
886.9	21123
887.025	21325
887.149	20956
887.274	20918
887.399	20853
887.523	20788
887.648	20845
887.773	20781
887.897	20948
888.021	20861
888.146	20788
888.27	20887
888.395	20895
888.519	20944
888.643	20895
888.767	20956
888.891	20750
889.015	20613
889.139	20693
889.263	20503
889.387	20781
889.511	20739
889.635	20861
889.759	20609
889.883	20503
890.006	20503
890.13	20708
890.254	20484
890.377	20579
890.501	20328
890.624	20301
890.748	20404
890.871	20320
890.995	20195
891.118	20103
891.241	20161
891.364	20081
891.488	20317
891.611	20130
891.734	20183
891.857	20221
891.98	20233
892.103	20176
892.226	20210
892.349	20161
892.471	19932
892.594	20081
892.717	20206
892.839	20107
892.962	20107
893.085	20157
893.207	20142
893.33	19974
893.452	19986
893.575	20161
893.697	20081
893.819	20229
893.941	20324
894.064	20157
894.186	20024
894.308	20031
894.43	20039
894.552	20290
894.674	20138
894.796	19868
894.918	20096
895.04	20103
895.161	20126
895.283	20145
895.405	20081
895.526	20267
895.648	20039
895.769	20145
895.891	20229
896.012	20233
896.134	20149
896.255	20077
896.376	20073
896.498	20096
896.619	20176
896.74	20164
896.861	20275
896.982	20461
897.103	20537
897.224	20503
897.345	20514
897.466	20294
897.587	20282
897.708	20503
897.828	20423
897.949	20358
898.07	20134
898.19	20187
898.311	20419
898.431	20282
898.552	20355
898.672	20389
898.792	20377
898.913	20370
899.033	20164
899.153	20161
899.273	19879
899.393	20050
899.513	20103
899.633	19940
899.753	20062
899.873	20012
899.993	20100
900.113	19944
900.232	19963
900.352	19913
900.472	19849
900.591	19818
900.711	19883
900.83	19666
900.95	19921
901.069	19921
901.189	19761
901.308	19529
901.427	19335
901.546	19457
901.665	19548
901.784	19373
901.904	19213
902.023	19179
902.141	18985
902.26	18973
902.379	19046
902.498	18875
902.617	18844
902.735	18935
902.854	18776
902.973	18776
903.091	18661
903.21	18650
903.328	18513
903.446	18433
903.565	18357
903.683	18361
903.801	18311
903.919	18327
904.038	18213
904.156	18155
904.274	18213
904.392	18197
904.51	18163
904.627	18026
904.745	18159
904.863	18285
904.981	17882
905.098	17828
905.216	17843
905.334	17859
905.451	17680
905.569	17619
905.686	17809
905.803	17771
905.921	17608
906.038	17615
906.155	17600
906.272	17493
906.389	17497
906.506	17379
906.623	17463
906.74	17337
906.857	17288
906.974	17189
907.091	17337
907.208	17410
907.324	17364
907.441	17132
907.557	17067
907.674	17037
907.79	16968
907.907	16919
908.023	17018
908.139	16877
908.256	16927
908.372	16812
908.488	16873
908.604	16653
908.72	16649
908.836	16641
908.952	16630
909.068	16694
909.184	16774
909.3	16706
909.415	16710
909.531	16550
909.647	16421
909.762	16436
909.878	16356
909.993	16459
910.108	16390
910.224	16333
910.339	16295
910.454	16166
910.57	16188
910.685	16128
910.8	16443
910.915	16329
911.03	16090
911.145	16055
911.259	15991
911.374	15945
911.489	15854
911.604	15827
911.718	15705
911.833	15591
911.947	15553
912.062	15549
912.176	15770
912.291	15641
912.405	15743
912.519	15846
912.633	15899
912.748	15797
912.862	15660
912.976	15542
913.09	15431
913.204	15526
913.318	15469
913.431	15610
913.545	15564
913.659	15682
913.772	15557
913.886	15359
914	15340
914.113	15393
914.226	15428
914.34	15435
914.453	15241
914.566	15325
914.68	15233
914.793	15180
914.906	14910
915.019	14830
915.132	14811
915.245	14933
915.358	14925
915.47	15017
915.583	14925
915.696	14929
915.809	15001
915.921	15043
916.034	14849
916.146	14804
916.259	14830
916.371	14876
916.483	14914
916.595	14727
916.708	14750
916.82	14724
916.932	14659
917.044	14765
917.156	14667
917.268	14511
917.38	14594
917.491	14492
917.603	14629
917.715	14629
917.826	14655
917.938	14533
918.049	14457
918.161	14571
918.272	14743
918.384	14606
918.495	14530
918.606	14278
918.717	14275
918.828	14328
918.939	14389
919.05	14221
919.161	14282
919.272	14008
919.383	14199
919.494	14351
919.604	14594
919.715	14278
919.826	14278
919.936	14225
920.047	14343
920.157	14282
920.267	14438
920.378	14290
920.488	14225
920.598	14381
920.708	14606
920.818	14381
920.928	14309
921.038	14560
921.148	14530
921.258	14111
921.368	14119
921.477	14005
921.587	14012
921.697	13898
921.806	14054
921.916	13818
922.025	13655
922.134	13575
922.244	13647
922.353	13685
922.462	13506
922.571	13468
922.68	13316
922.789	13251
922.898	13270
923.007	13228
923.116	13301
923.224	13240
923.333	13190
923.442	13110
923.55	13091
923.659	13152
923.767	13152
923.876	12951
923.984	13133
924.092	13046
924.201	13004
924.309	13023
924.417	12981
924.525	12958
924.633	13023
924.741	13719
924.849	12760
924.956	12890
925.064	12795
925.172	12612
925.279	12707
925.387	12639
925.494	12760
925.602	12882
925.709	12817
925.816	12601
925.924	12703
926.031	12703
926.138	12563
926.245	12662
926.352	12494
926.459	12730
926.566	12798
926.673	12574
926.779	12437
926.886	12429
926.993	12334
927.099	12281
927.206	12209
927.312	12243
927.419	12403
927.525	12285
927.631	12296
927.737	12213
927.843	12163
927.95	11980
928.056	12133
928.162	12121
928.267	12152
928.373	12772
928.479	12136
928.585	11973
928.69	12064
928.796	12102
928.901	11977
929.007	11756
929.112	12041
929.218	11878
929.323	11893
929.428	11733
929.533	11996
929.638	11718
929.743	11688
929.848	11859
929.953	11805
930.058	11722
930.163	11520
930.267	11512
930.372	11543
930.477	11558
930.581	11722
930.685	11596
930.79	11406
930.894	11387
930.998	11379
931.103	11417
931.207	11102
931.311	11083
931.415	10976
931.519	10801
931.623	10744
