Data from test_V78500241_1399.txt Node
Date: Fri Mar 25 15:51:29 CST 2022
User: usil
Spectrometer: V785-0024
Trigger mode: 0
Integration Time (sec): 4.000000E-1
Scans to average: 1
Nonlinearity correction enabled: false
Boxcar width: 0
Storing dark spectrum: false
XAxis mode: Wavelengths
Number of Pixels in Spectrum: 1024
>>>>>Begin Spectral Data<<<<<
801.071	27667
801.214	27717
801.356	27492
801.499	27370
801.641	27378
801.783	27176
801.926	27329
802.068	27272
802.211	27188
802.353	27184
802.496	27001
802.638	26918
802.78	26880
802.923	26925
803.065	26967
803.208	26845
803.35	26956
803.492	27036
803.635	27024
803.777	26826
803.919	27062
804.061	27367
804.204	27150
804.346	27119
804.488	27058
804.63	27165
804.773	27062
804.915	27123
805.057	27207
805.199	27180
805.341	27222
805.483	27287
805.626	27252
805.768	27066
805.91	27275
806.052	27233
806.194	27195
806.336	27336
806.478	27321
806.62	27306
806.762	27355
806.904	27466
807.046	27701
807.188	27705
807.33	27804
807.472	27652
807.614	27690
807.756	27709
807.898	27561
808.04	27526
808.182	27553
808.324	27511
808.465	27564
808.607	27850
808.749	27911
808.891	27941
809.033	28131
809.174	27964
809.316	27854
809.458	27793
809.6	27964
809.741	28112
809.883	28036
810.025	28120
810.166	28150
810.308	28249
810.45	28090
810.591	28093
810.733	27930
810.875	27953
811.016	27762
811.158	27842
811.299	27876
811.441	28109
811.582	28070
811.724	27762
811.865	27694
812.007	27895
812.148	27835
812.29	27964
812.431	28082
812.573	28253
812.714	28356
812.855	28470
812.997	28398
813.138	28691
813.279	28603
813.421	28409
813.562	28291
813.703	28211
813.845	28158
813.986	27873
814.127	27690
814.268	27603
814.41	27625
814.551	27549
814.692	27599
814.833	27549
814.974	27629
815.115	27526
815.256	27382
815.397	27477
815.539	27401
815.68	27325
815.821	27386
815.962	27283
816.103	27302
816.244	27176
816.385	27192
816.526	27203
816.666	26914
816.807	26777
816.948	26834
817.089	26902
817.23	26861
817.371	26948
817.512	26830
817.653	26834
817.793	26750
817.934	26887
818.075	26891
818.216	26872
818.356	26708
818.497	26655
818.638	26571
818.778	26613
818.919	26632
819.06	26701
819.2	26667
819.341	26830
819.481	26716
819.622	26971
819.762	27230
819.903	27066
820.043	26986
820.184	26929
820.324	26937
820.465	27066
820.605	27055
820.746	26895
820.886	26853
821.026	27001
821.167	27081
821.307	26933
821.447	26800
821.588	26708
821.728	26617
821.868	26556
822.008	26355
822.149	26305
822.289	26305
822.429	26115
822.569	26027
822.709	26107
822.849	25814
822.99	25818
823.13	25864
823.27	25727
823.41	25723
823.55	25521
823.69	25696
823.83	25727
823.97	25460
824.11	25400
824.25	25445
824.389	25533
824.529	25445
824.669	25529
824.809	25563
824.949	25567
825.089	25460
825.228	25479
825.368	25324
825.508	25350
825.648	25320
825.787	25362
825.927	25415
826.067	25384
826.206	25438
826.346	25354
826.485	25324
826.625	25327
826.765	25426
826.904	25441
827.044	25137
827.183	25114
827.323	24958
827.462	25160
827.601	25015
827.741	25031
827.88	25050
828.02	24878
828.159	25034
828.298	24924
828.437	25103
828.577	24943
828.716	25145
828.855	24913
828.994	24772
829.134	24711
829.273	24745
829.412	24722
829.551	24669
829.69	24738
829.829	24772
829.968	24688
830.107	24798
830.246	24798
830.385	24749
830.524	24532
830.663	24604
830.802	24407
830.941	24422
831.08	24292
831.219	24353
831.357	24513
831.496	24623
831.635	24338
831.774	24281
831.913	24209
832.051	24140
832.19	24098
832.329	24163
832.467	24121
832.606	23939
832.744	23958
832.883	23950
833.022	24041
833.16	23988
833.299	24018
833.437	24011
833.576	24098
833.714	24087
833.852	24163
833.991	24057
834.129	24197
834.267	24072
834.406	24121
834.544	24022
834.682	24064
834.821	23965
834.959	24159
835.097	24057
835.235	24216
835.373	24064
835.511	24155
835.65	23920
835.788	24034
835.926	23741
836.064	23897
836.202	23824
836.34	23897
836.478	24003
836.615	23916
836.753	23805
836.891	23977
837.029	23912
837.167	23863
837.305	23756
837.443	23722
837.58	23779
837.718	23783
837.856	23939
837.993	23733
838.131	23608
838.269	23581
838.406	23589
838.544	23665
838.681	23398
838.819	23303
838.956	23151
839.094	23227
839.231	23231
839.369	23220
839.506	23562
839.643	23444
839.781	23128
839.918	23231
840.055	23223
840.193	23246
840.33	22999
840.467	23124
840.604	23193
840.742	23455
840.879	22835
841.016	23105
841.153	23010
841.29	23143
841.427	23060
841.564	23140
841.701	23117
841.838	23075
841.975	22968
842.112	22896
842.249	22930
842.385	22919
842.522	23071
842.659	22938
842.796	22885
842.933	22877
843.069	22679
843.206	22847
843.343	22965
843.479	22793
843.616	22854
843.752	22725
843.889	22656
844.025	22782
844.162	22618
844.298	22786
844.435	22577
844.571	22485
844.708	22603
844.844	22873
844.98	22862
845.117	22778
845.253	22653
845.389	22615
845.525	22424
845.661	22508
845.798	22489
845.934	22485
846.07	22284
846.206	22390
846.342	22588
846.478	22363
846.614	22078
846.75	22093
846.886	22147
847.022	22280
847.158	22090
847.294	22059
847.429	22196
847.565	22013
847.701	22371
847.837	21831
847.972	21823
848.108	21797
848.244	21911
848.379	21743
848.515	21755
848.65	21713
848.786	21644
848.921	21762
849.057	21724
849.192	21842
849.328	21869
849.463	21713
849.598	21701
849.734	21618
849.869	21568
850.004	21542
850.14	21462
850.275	21473
850.41	21268
850.545	21458
850.68	21530
850.815	21606
850.95	21424
851.085	21568
851.22	21572
851.355	21534
851.49	21466
851.625	21466
851.76	21393
851.895	21462
852.03	21424
852.165	21481
852.299	21458
852.434	21523
852.569	21549
852.703	21439
852.838	21500
852.973	21709
853.107	21606
853.242	21458
853.376	21382
853.511	21123
853.645	21203
853.78	21538
853.914	21195
854.048	21275
854.183	21256
854.317	21313
854.451	21466
854.585	21283
854.72	21321
854.854	21397
854.988	21268
855.122	21230
855.256	21150
855.39	21367
855.524	21443
855.658	21389
855.792	21340
855.926	21351
856.06	21325
856.194	21321
856.327	21340
856.461	21214
856.595	21161
856.729	21310
856.862	21466
856.996	21359
857.13	21382
857.263	21454
857.397	21359
857.53	21283
857.664	21340
857.797	21458
857.931	21389
858.064	21283
858.197	21481
858.331	21222
858.464	21241
858.597	21291
858.731	21294
858.864	21298
858.997	21192
859.13	21302
859.263	21211
859.396	21450
859.529	21325
859.662	21355
859.795	21207
859.928	21313
860.061	21496
860.194	21553
860.327	21351
860.46	21348
860.592	21351
860.725	21511
860.858	21367
860.99	21336
861.123	21268
861.256	21306
861.388	21222
861.521	22040
861.653	21199
861.786	21131
861.918	21241
862.05	21241
862.183	21260
862.315	21313
862.447	21298
862.58	21268
862.712	20956
862.844	20952
862.976	21055
863.108	21077
863.24	21485
863.372	20960
863.504	20933
863.636	21005
863.768	21096
863.9	21036
864.032	21036
864.164	21077
864.296	20948
864.428	21176
864.559	21028
864.691	21047
864.823	20902
864.954	21066
865.086	20998
865.217	20948
865.349	20864
865.48	20804
865.612	20883
865.743	21081
865.875	20876
866.006	20883
866.137	20986
866.269	20910
866.4	20937
866.531	20800
866.662	20796
866.793	20819
866.924	20785
867.055	20925
867.186	20785
867.317	20762
867.448	20739
867.579	20788
867.71	20849
867.841	20815
867.972	20883
868.103	20861
868.233	20902
868.364	20853
868.495	20910
868.625	20918
868.756	21150
868.886	21001
869.017	21009
869.147	21199
869.278	21294
869.408	21188
869.539	21081
869.669	21184
869.799	21222
869.929	21169
870.06	21154
870.19	21351
870.32	21431
870.45	21435
870.58	21469
870.71	21523
870.84	21473
870.97	21572
871.1	21473
871.23	21644
871.36	21755
871.489	21595
871.619	21648
871.749	21629
871.879	21762
872.008	21850
872.138	21797
872.267	21667
872.397	21523
872.526	21496
872.656	21496
872.785	21507
872.915	21656
873.044	21766
873.173	21648
873.303	21785
873.432	21667
873.561	21827
873.69	21732
873.819	21667
873.948	21789
874.077	21759
874.206	21682
874.335	21713
874.464	21884
874.593	21949
874.722	21987
874.851	22078
874.979	22017
875.108	21979
875.237	21888
875.365	21895
875.494	21979
875.623	22063
875.751	22074
875.88	21949
876.008	22147
876.136	22078
876.265	22219
876.393	22428
876.521	22421
876.65	22360
876.778	22322
876.906	22287
877.034	22344
877.162	22348
877.29	22215
877.418	22303
877.546	22291
877.674	22333
877.802	22287
877.93	22360
878.058	22344
878.185	22154
878.313	22352
878.441	22257
878.568	22131
878.696	22284
878.824	22356
878.951	22402
879.079	22417
879.206	22546
879.333	22409
879.461	22299
879.588	22440
879.715	22466
879.842	22516
879.97	22459
880.097	22131
880.224	22105
880.351	22226
880.478	21987
880.605	22074
880.732	22090
880.859	22306
880.986	22177
881.112	22097
881.239	22010
881.366	21892
881.493	21770
881.619	21694
881.746	21766
881.872	21591
881.999	21633
882.125	21580
882.252	21648
882.378	21793
882.505	21709
882.631	21603
882.757	21447
882.883	21515
883.01	21485
883.136	21336
883.262	21359
883.388	21294
883.514	21405
883.64	21408
883.766	21237
883.892	21058
884.018	21226
884.143	21260
884.269	21367
884.395	21077
884.52	20956
884.646	20990
884.772	20918
884.897	20971
885.023	21020
885.148	21245
885.274	21180
885.399	21066
885.524	21020
885.65	21051
885.775	21096
885.9	21039
886.025	21173
886.15	21100
886.275	21001
886.4	20910
886.525	21001
886.65	20948
886.775	20849
886.9	21169
887.025	21161
887.149	21116
887.274	20914
887.399	20868
887.523	20686
887.648	20625
887.773	20758
887.897	20914
888.021	20880
888.146	20697
888.27	20876
888.395	20887
888.519	20838
888.643	20937
888.767	20811
888.891	20708
889.015	20651
889.139	20720
889.263	20629
889.387	20663
889.511	20861
889.635	20674
889.759	20590
889.883	20587
890.006	20765
890.13	20712
890.254	20571
890.377	20549
890.501	20377
890.624	20328
890.748	20469
890.871	20275
890.995	20122
891.118	20077
891.241	20248
891.364	20157
891.488	20374
891.611	20161
891.734	20142
891.857	20237
891.98	20225
892.103	20218
892.226	20142
892.349	20073
892.471	20005
892.594	20062
892.717	20199
892.839	20084
892.962	20195
893.085	20187
893.207	20084
893.33	20024
893.452	19993
893.575	20122
893.697	20172
893.819	20294
893.941	20377
894.064	20191
894.186	20027
894.308	20016
894.43	20161
894.552	20305
894.674	20183
894.796	19993
894.918	20103
895.04	20031
895.161	20225
895.283	20027
895.405	20084
895.526	19989
895.648	20096
895.769	20069
895.891	20107
896.012	20199
896.134	20210
896.255	20088
896.376	19955
896.498	20096
896.619	20016
896.74	20103
896.861	20115
896.982	20484
897.103	20461
897.224	20385
897.345	20396
897.466	20221
897.587	20298
897.708	20355
897.828	20278
897.949	20252
898.07	20142
898.19	20183
898.311	20408
898.431	20271
898.552	20248
898.672	20336
898.792	20309
898.913	20290
899.033	20138
899.153	20077
899.273	20001
899.393	19974
899.513	20020
899.633	20168
899.753	20005
899.873	19921
899.993	20138
900.113	20107
900.232	19993
900.352	19997
900.472	20016
900.591	19757
900.711	19757
900.83	19833
900.95	19974
901.069	20050
901.189	19696
901.308	19540
901.427	19396
901.546	19540
901.665	19438
901.784	19518
901.904	19343
902.023	19141
902.141	18958
902.26	18973
902.379	19046
902.498	19034
902.617	18901
902.735	18973
902.854	18966
902.973	18882
903.091	18589
903.21	18604
903.328	18544
903.446	18574
903.565	18422
903.683	18327
903.801	18262
903.919	18418
904.038	18338
904.156	18266
904.274	18266
904.392	18209
904.51	18095
904.627	18167
904.745	18144
904.863	18148
904.981	17935
905.098	17893
905.216	17836
905.334	17996
905.451	17843
905.569	17817
905.686	17893
905.803	17786
905.921	17619
906.038	17691
906.155	17615
906.272	17596
906.389	17452
906.506	17520
906.623	17436
906.74	17421
906.857	17341
906.974	17216
907.091	17452
907.208	17433
907.324	17448
907.441	17189
907.557	17162
907.674	17128
907.79	17056
907.907	17071
908.023	17090
908.139	17056
908.256	16930
908.372	16987
908.488	16976
908.604	16831
908.72	16797
908.836	16790
908.952	16733
909.068	16854
909.184	16987
909.3	16694
909.415	16820
909.531	16812
909.647	16546
909.762	16508
909.878	16527
909.993	16573
910.108	16466
910.224	16398
910.339	16550
910.454	16363
910.57	16303
910.685	16200
910.8	16577
910.915	16485
911.03	16284
911.145	16059
911.259	16013
911.374	16086
911.489	16071
911.604	16017
911.718	15873
911.833	15892
911.947	15812
912.062	15690
912.176	15888
912.291	15823
912.405	15884
912.519	16021
912.633	16036
912.748	15922
912.862	15789
912.976	15694
913.09	15591
913.204	15606
913.318	15679
913.431	15781
913.545	15842
913.659	15762
913.772	15614
913.886	15534
914	15447
914.113	15622
914.226	15614
914.34	15572
914.453	15382
914.566	15500
914.68	15424
914.793	15359
914.906	15104
915.019	14971
915.132	15077
915.245	15062
915.358	15146
915.47	15039
915.583	15104
915.696	15169
915.809	15154
915.921	15230
916.034	15051
916.146	14952
916.259	14887
916.371	15112
916.483	15001
916.595	14864
916.708	14952
916.82	14963
916.932	14876
917.044	14834
917.156	14883
917.268	14537
917.38	14750
917.491	14651
917.603	14739
917.715	14758
917.826	14712
917.938	14674
918.049	14659
918.161	14712
918.272	14826
918.384	14773
918.495	14655
918.606	14530
918.717	14385
918.828	14571
918.939	14537
919.05	14370
919.161	14450
919.272	14225
919.383	14434
919.494	14526
919.604	14689
919.715	14507
919.826	14393
919.936	14381
920.047	14575
920.157	14400
920.267	14674
920.378	14507
920.488	14404
920.598	14621
920.708	14777
920.818	14606
920.928	14537
921.038	14823
921.148	14731
921.258	14480
921.368	14389
921.477	14233
921.587	14164
921.697	14130
921.806	14195
921.916	14164
922.025	13955
922.134	13811
922.244	13925
922.353	13826
922.462	13776
922.571	13643
922.68	13540
922.789	13491
922.898	13472
923.007	13426
923.116	13491
923.224	13514
923.333	13480
923.442	13373
923.55	13289
923.659	13327
923.767	13499
923.876	13282
923.984	13407
924.092	13320
924.201	13339
924.309	13225
924.417	13251
924.525	13221
924.633	13202
924.741	13974
924.849	13061
924.956	13107
925.064	13000
925.172	12966
925.279	12897
925.387	13031
925.494	12962
925.602	13129
925.709	12985
925.816	12894
925.924	12871
926.031	12981
926.138	12871
926.245	12932
926.352	12806
926.459	12977
926.566	13034
926.673	12802
926.779	12658
926.886	12757
926.993	12597
927.099	12566
927.206	12517
927.312	12540
927.419	12506
927.525	12608
927.631	12544
927.737	12418
927.843	12426
927.95	12270
928.056	12224
928.162	12426
928.267	12479
928.373	12973
928.479	12437
928.585	12197
928.69	12285
928.796	12380
928.901	12247
929.007	12057
929.112	12125
929.218	12232
929.323	12110
929.428	12049
929.533	12285
929.638	12049
929.743	12060
929.848	11999
929.953	11946
930.058	11939
930.163	11680
930.267	11737
930.372	11893
930.477	11756
930.581	11939
930.685	11832
930.79	11684
930.894	11600
930.998	11615
931.103	11828
931.207	11410
931.311	11280
931.415	11223
931.519	11041
931.623	10980
