Data from test_V78500241_468.txt Node
Date: Fri Mar 25 15:45:02 CST 2022
User: usil
Spectrometer: V785-0024
Trigger mode: 0
Integration Time (sec): 4.000000E-1
Scans to average: 1
Nonlinearity correction enabled: false
Boxcar width: 0
Storing dark spectrum: false
XAxis mode: Wavelengths
Number of Pixels in Spectrum: 1024
>>>>>Begin Spectral Data<<<<<
801.071	27663
801.214	27610
801.356	27420
801.499	27420
801.641	27256
801.783	27154
801.926	27374
802.068	27199
802.211	27192
802.353	27089
802.496	26944
802.638	26967
802.78	26986
802.923	26925
803.065	26937
803.208	26906
803.35	27013
803.492	27009
803.635	27001
803.777	26929
803.919	27013
804.061	27351
804.204	27096
804.346	27070
804.488	26887
804.63	27085
804.773	26963
804.915	27047
805.057	27127
805.199	26948
805.341	27036
805.483	27138
805.626	27047
805.768	27116
805.91	27081
806.052	27237
806.194	27051
806.336	27344
806.478	27066
806.62	27233
806.762	27287
806.904	27367
807.046	27743
807.188	27595
807.33	27618
807.472	27641
807.614	27549
807.756	27447
807.898	27477
808.04	27363
808.182	27447
808.324	27511
808.465	27603
808.607	27709
808.749	27819
808.891	27884
809.033	27914
809.174	27911
809.316	27797
809.458	27880
809.6	27842
809.741	27941
809.883	27918
810.025	28013
810.166	28070
810.308	27991
810.45	27983
810.591	27975
810.733	27903
810.875	27667
811.016	27743
811.158	27724
811.299	27918
811.441	28002
811.582	28025
811.724	27766
811.865	27709
812.007	27778
812.148	27755
812.29	27724
812.431	27987
812.573	28025
812.714	28341
812.855	28226
812.997	28382
813.138	28546
813.279	28409
813.421	28455
813.562	28295
813.703	28246
813.845	28059
813.986	27614
814.127	27667
814.268	27644
814.41	27469
814.551	27443
814.692	27466
814.833	27389
814.974	27374
815.115	27538
815.256	27310
815.397	27443
815.539	27405
815.68	27184
815.821	27127
815.962	27298
816.103	27161
816.244	27226
816.385	26963
816.526	27024
816.666	26963
816.807	26754
816.948	26785
817.089	26937
817.23	26815
817.371	26861
817.512	26655
817.653	26861
817.793	26670
817.934	26682
818.075	26796
818.216	26762
818.356	26640
818.497	26632
818.638	26434
818.778	26598
818.919	26518
819.06	26564
819.2	26663
819.341	26667
819.481	26811
819.622	26819
819.762	27184
819.903	26952
820.043	26956
820.184	26853
820.324	26857
820.465	26811
820.605	26819
820.746	26872
820.886	26644
821.026	26769
821.167	26724
821.307	26902
821.447	26785
821.588	26640
821.728	26617
821.868	26351
822.008	26191
822.149	26145
822.289	26218
822.429	25879
822.569	25833
822.709	25826
822.849	25811
822.99	25727
823.13	25590
823.27	25567
823.41	25373
823.55	25392
823.69	25552
823.83	25563
823.97	25445
824.11	25335
824.25	25441
824.389	25266
824.529	25289
824.669	25419
824.809	25495
824.949	25510
825.089	25487
825.228	25293
825.368	25156
825.508	25183
825.648	25324
825.787	25168
825.927	25247
826.067	25266
826.206	25156
826.346	25202
826.485	25213
826.625	25141
826.765	25160
826.904	25282
827.044	24947
827.183	24954
827.323	24875
827.462	24973
827.601	24802
827.741	24901
827.88	24943
828.02	24802
828.159	24867
828.298	24791
828.437	24928
828.577	24886
828.716	25004
828.855	24848
828.994	24673
829.134	24631
829.273	24646
829.412	24555
829.551	24525
829.69	24620
829.829	24627
829.968	24681
830.107	24612
830.246	24479
830.385	24536
830.524	24456
830.663	24437
830.802	24289
830.941	24254
831.08	24205
831.219	24178
831.357	24285
831.496	24448
831.635	24178
831.774	24178
831.913	24102
832.051	23988
832.19	23889
832.329	23817
832.467	23912
832.606	23813
832.744	23775
832.883	23828
833.022	23805
833.16	23859
833.299	23931
833.437	23958
833.576	23977
833.714	23969
833.852	23920
833.991	23961
834.129	23984
834.267	24053
834.406	23729
834.544	23988
834.682	23874
834.821	23786
834.959	24053
835.097	23874
835.235	23897
835.373	23847
835.511	23870
835.65	23684
835.788	23767
835.926	23649
836.064	23676
836.202	23691
836.34	23687
836.478	23843
836.615	23786
836.753	23767
836.891	23832
837.029	23760
837.167	23733
837.305	23737
837.443	23566
837.58	23562
837.718	23623
837.856	23615
837.993	23478
838.131	23623
838.269	23433
838.406	23444
838.544	23299
838.681	23334
838.819	23280
838.956	22995
839.094	22953
839.231	22984
839.369	23273
839.506	23497
839.643	23315
839.781	22987
839.918	23022
840.055	23006
840.193	22946
840.33	22976
840.467	22984
840.604	23033
840.742	23235
840.879	22850
841.016	22949
841.153	22934
841.29	23052
841.427	23014
841.564	23056
841.701	22957
841.838	22915
841.975	22843
842.112	22854
842.249	22812
842.385	22675
842.522	22987
842.659	22835
842.796	22771
842.933	22733
843.069	22839
843.206	22645
843.343	22752
843.479	22672
843.616	22839
843.752	22584
843.889	22485
844.025	22618
844.162	22462
844.298	22588
844.435	22493
844.571	22485
844.708	22523
844.844	22744
844.98	22656
845.117	22588
845.253	22402
845.389	22478
845.525	22417
845.661	22299
845.798	22131
845.934	22333
846.07	22322
846.206	22352
846.342	22455
846.478	22249
846.614	21998
846.75	21892
846.886	21968
847.022	21960
847.158	21968
847.294	22044
847.429	22059
847.565	21915
847.701	22166
847.837	21694
847.972	21682
848.108	21663
848.244	21759
848.379	21587
848.515	21549
848.65	21526
848.786	21530
848.921	21660
849.057	21641
849.192	21629
849.328	21675
849.463	21492
849.598	21530
849.734	21492
849.869	21348
850.004	21310
850.14	21329
850.275	21344
850.41	21256
850.545	21329
850.68	21298
850.815	21268
850.95	21344
851.085	21595
851.22	21332
851.355	21291
851.49	21302
851.625	21291
851.76	21359
851.895	21142
852.03	21306
852.165	21287
852.299	21416
852.434	21466
852.569	21321
852.703	21287
852.838	21367
852.973	21477
853.107	21469
853.242	21294
853.376	21260
853.511	21017
853.645	21070
853.78	21188
853.914	21146
854.048	21108
854.183	21104
854.317	21058
854.451	21310
854.585	21127
854.72	21131
854.854	21146
854.988	21169
855.122	21077
855.256	21081
855.39	21066
855.524	21142
855.658	21123
855.792	21154
855.926	21298
856.06	21096
856.194	21207
856.327	21093
856.461	21058
856.595	21161
856.729	21119
856.862	21256
856.996	21291
857.13	21211
857.263	21218
857.397	21203
857.53	21127
857.664	21070
857.797	21279
857.931	21214
858.064	21161
858.197	21150
858.331	21070
858.464	21085
858.597	20982
858.731	21180
858.864	21066
858.997	20994
859.13	21180
859.263	21241
859.396	21207
859.529	21195
859.662	21108
859.795	21070
859.928	21100
860.061	21226
860.194	21359
860.327	21252
860.46	21062
860.592	21294
860.725	21329
860.858	21306
860.99	21131
861.123	21047
861.256	21100
861.388	21100
861.521	21827
861.653	20967
861.786	20994
861.918	20948
862.05	21058
862.183	21108
862.315	21093
862.447	21131
862.58	21020
862.712	20986
862.844	20788
862.976	20921
863.108	21036
863.24	21306
863.372	20819
863.504	20857
863.636	20906
863.768	20811
863.9	20838
864.032	20807
864.164	20754
864.296	20937
864.428	20944
864.559	20838
864.691	20948
864.823	20883
864.954	20887
865.086	20811
865.217	20800
865.349	20701
865.48	20720
865.612	20636
865.743	20979
865.875	20720
866.006	20716
866.137	20689
866.269	20613
866.4	20887
866.531	20731
866.662	20712
866.793	20663
866.924	20636
867.055	20693
867.186	20640
867.317	20556
867.448	20579
867.579	20659
867.71	20594
867.841	20724
867.972	20663
868.103	20617
868.233	20587
868.364	20686
868.495	20667
868.625	20982
868.756	21036
868.886	20880
869.017	20967
869.147	21017
869.278	20990
869.408	20998
869.539	21047
869.669	21009
869.799	21013
869.929	21005
870.06	21017
870.19	21241
870.32	21233
870.45	21252
870.58	21332
870.71	21351
870.84	21458
870.97	21306
871.1	21241
871.23	21538
871.36	21511
871.489	21367
871.619	21481
871.749	21504
871.879	21614
872.008	21599
872.138	21500
872.267	21572
872.397	21336
872.526	21382
872.656	21310
872.785	21321
872.915	21511
873.044	21458
873.173	21622
873.303	21530
873.432	21629
873.561	21610
873.69	21625
873.819	21625
873.948	21709
874.077	21469
874.206	21481
874.335	21435
874.464	21648
874.593	21747
874.722	21842
874.851	21755
874.979	21804
875.108	21876
875.237	21755
875.365	21618
875.494	21728
875.623	21785
875.751	21823
875.88	21701
876.008	21960
876.136	22090
876.265	22181
876.393	22230
876.521	22154
876.65	22242
876.778	22268
876.906	22150
877.034	22109
877.162	22086
877.29	22021
877.418	22173
877.546	22147
877.674	22074
877.802	22025
877.93	22150
878.058	21941
878.185	21934
878.313	22116
878.441	22093
878.568	21972
878.696	22162
878.824	22158
878.951	22139
879.079	22150
879.206	22481
879.333	22268
879.461	22063
879.588	22207
879.715	22207
879.842	22413
879.97	22166
880.097	21949
880.224	22029
880.351	22067
880.478	22036
880.605	21846
880.732	21964
880.859	22154
880.986	21915
881.112	21934
881.239	21800
881.366	21629
881.493	21663
881.619	21492
881.746	21538
881.872	21572
881.999	21504
882.125	21435
882.252	21591
882.378	21439
882.505	21576
882.631	21458
882.757	21256
882.883	21203
883.01	21119
883.136	21142
883.262	21108
883.388	21176
883.514	21131
883.64	21294
883.766	21142
883.892	20925
884.018	20937
884.143	21150
884.269	21249
884.395	20872
884.52	20765
884.646	20944
884.772	20819
884.897	20777
885.023	20765
885.148	20975
885.274	20941
885.399	21013
885.524	20830
885.65	20864
885.775	20849
885.9	20910
886.025	20902
886.15	20872
886.275	20868
886.4	20743
886.525	20842
886.65	20796
886.775	20758
886.9	20899
887.025	21024
887.149	20765
887.274	20674
887.399	20621
887.523	20609
887.648	20583
887.773	20556
887.897	20636
888.021	20705
888.146	20602
888.27	20636
888.395	20701
888.519	20724
888.643	20606
888.767	20739
888.891	20560
889.015	20473
889.139	20495
889.263	20423
889.387	20545
889.511	20667
889.635	20492
889.759	20366
889.883	20415
890.006	20362
890.13	20644
890.254	20374
890.377	20377
890.501	20134
890.624	20149
890.748	20153
890.871	20020
890.995	19967
891.118	19871
891.241	19997
891.364	20050
891.488	20183
891.611	20084
891.734	20183
891.857	20103
891.98	19947
892.103	20012
892.226	19970
892.349	19955
892.471	19803
892.594	19978
892.717	19925
892.839	19967
892.962	20012
893.085	19932
893.207	19928
893.33	19738
893.452	19849
893.575	19902
893.697	19807
893.819	20096
893.941	19963
894.064	20020
894.186	19928
894.308	19761
894.43	19932
894.552	20096
894.674	19947
894.796	19860
894.918	19974
895.04	19780
895.161	19925
895.283	20027
895.405	19833
895.526	19906
895.648	19845
895.769	19921
895.891	19967
896.012	20062
896.134	19932
896.255	19963
896.376	19811
896.498	19845
896.619	19970
896.74	19871
896.861	19936
896.982	20301
897.103	20408
897.224	20183
897.345	20054
897.466	20088
897.587	20210
897.708	20149
897.828	20084
897.949	20073
898.07	20027
898.19	20012
898.311	20214
898.431	20039
898.552	20138
898.672	20195
898.792	20278
898.913	20206
899.033	19970
899.153	19871
899.273	19864
899.393	19845
899.513	19864
899.633	19902
899.753	19807
899.873	19791
899.993	19898
900.113	19898
900.232	19868
900.352	19951
900.472	19761
900.591	19552
900.711	19647
900.83	19624
900.95	19712
901.069	19788
901.189	19635
901.308	19304
901.427	19316
901.546	19304
901.665	19274
901.784	19183
901.904	19027
902.023	19034
902.141	18848
902.26	18791
902.379	18859
902.498	18791
902.617	18627
902.735	18821
902.854	18772
902.973	18711
903.091	18517
903.21	18536
903.328	18327
903.446	18308
903.565	18311
903.683	18197
903.801	18148
903.919	18251
904.038	18197
904.156	18091
904.274	18072
904.392	17954
904.51	18011
904.627	18041
904.745	18155
904.863	18076
904.981	17840
905.098	17790
905.216	17710
905.334	17653
905.451	17676
905.569	17691
905.686	17691
905.803	17733
905.921	17516
906.038	17581
906.155	17562
906.272	17433
906.389	17395
906.506	17334
906.623	17372
906.74	17235
906.857	17261
906.974	17071
907.091	17284
907.208	17368
907.324	17303
907.441	17022
907.557	16976
907.674	16908
907.79	16778
907.907	16908
908.023	16968
908.139	16946
908.256	16847
908.372	16911
908.488	16904
908.604	16706
908.72	16622
908.836	16675
908.952	16702
909.068	16710
909.184	16713
909.3	16691
909.415	16672
909.531	16637
909.647	16455
909.762	16421
909.878	16402
909.993	16405
910.108	16344
910.224	16314
910.339	16405
910.454	16158
910.57	16306
910.685	16150
910.8	16360
910.915	16371
911.03	16211
911.145	15903
911.259	15979
911.374	15915
911.489	16002
911.604	15884
911.718	15816
911.833	15755
911.947	15701
912.062	15515
912.176	15682
912.291	15732
912.405	15705
912.519	15812
912.633	15915
912.748	15762
912.862	15682
912.976	15515
913.09	15435
913.204	15420
913.318	15462
913.431	15606
913.545	15568
913.659	15675
913.772	15344
913.886	15408
914	15287
914.113	15332
914.226	15439
914.34	15458
914.453	15241
914.566	15386
914.68	15230
914.793	15195
914.906	15028
915.019	14929
915.132	14880
915.245	14948
915.358	14933
915.47	15009
915.583	14967
915.696	14960
915.809	15085
915.921	15150
916.034	14937
916.146	14906
916.259	14815
916.371	14895
916.483	14868
916.595	14777
916.708	14804
916.82	14773
916.932	14785
917.044	14750
917.156	14701
917.268	14651
917.38	14636
917.491	14560
917.603	14530
917.715	14648
917.826	14781
917.938	14568
918.049	14442
918.161	14621
918.272	14705
918.384	14682
918.495	14583
918.606	14396
918.717	14282
918.828	14377
918.939	14385
919.05	14301
919.161	14252
919.272	14206
919.383	14214
919.494	14377
919.604	14556
919.715	14427
919.826	14248
919.936	14252
920.047	14442
920.157	14336
920.267	14568
920.378	14362
920.488	14298
920.598	14507
920.708	14670
920.818	14438
920.928	14404
921.038	14739
921.148	14522
921.258	14301
921.368	14134
921.477	14077
921.587	14123
921.697	13932
921.806	14092
921.916	13997
922.025	13784
922.134	13734
922.244	13582
922.353	13734
922.462	13670
922.571	13499
922.68	13468
922.789	13304
922.898	13434
923.007	13339
923.116	13373
923.224	13297
923.333	13358
923.442	13164
923.55	13198
923.659	13251
923.767	13217
923.876	13137
923.984	13247
924.092	13084
924.201	13084
924.309	13099
924.417	13084
924.525	13084
924.633	13034
924.741	13849
924.849	12844
924.956	12924
925.064	12806
925.172	12757
925.279	12844
925.387	12821
925.494	12684
925.602	12859
925.709	12897
925.816	12639
925.924	12806
926.031	12814
926.138	12779
926.245	12852
926.352	12623
926.459	12802
926.566	12821
926.673	12639
926.779	12665
926.886	12585
926.993	12437
927.099	12410
927.206	12327
927.312	12350
927.419	12395
927.525	12384
927.631	12433
927.737	12273
927.843	12186
927.95	12148
928.056	12209
928.162	12262
928.267	12220
928.373	12886
928.479	12235
928.585	11973
928.69	12140
928.796	12197
928.901	12068
929.007	11908
929.112	12068
929.218	11984
929.323	12034
929.428	11996
929.533	12030
929.638	11843
929.743	11813
929.848	11885
929.953	11840
930.058	11767
930.163	11585
930.267	11649
930.372	11748
930.477	11638
930.581	11786
930.685	11619
930.79	11551
930.894	11562
930.998	11509
931.103	11573
931.207	11318
931.311	11155
931.415	11109
931.519	10816
931.623	10915
