Data from test_V78500241_1817.txt Node
Date: Fri Mar 25 15:54:23 CST 2022
User: usil
Spectrometer: V785-0024
Trigger mode: 0
Integration Time (sec): 4.000000E-1
Scans to average: 1
Nonlinearity correction enabled: false
Boxcar width: 0
Storing dark spectrum: false
XAxis mode: Wavelengths
Number of Pixels in Spectrum: 1024
>>>>>Begin Spectral Data<<<<<
801.071	28664
801.214	28516
801.356	28299
801.499	28303
801.641	28325
801.783	28162
801.926	28314
802.068	28314
802.211	28158
802.353	28067
802.496	27907
802.638	27987
802.78	27922
802.923	28013
803.065	27728
803.208	27899
803.35	27945
803.492	28082
803.635	28173
803.777	28116
803.919	28188
804.061	28424
804.204	28280
804.346	28150
804.488	28116
804.63	28158
804.773	28185
804.915	28344
805.057	28253
805.199	28101
805.341	28192
805.483	28287
805.626	28363
805.768	28325
805.91	28318
806.052	28440
806.194	28124
806.336	28535
806.478	28443
806.62	28310
806.762	28531
806.904	28641
807.046	28797
807.188	28740
807.33	28866
807.472	28774
807.614	28698
807.756	28812
807.898	28599
808.04	28550
808.182	28611
808.324	28702
808.465	28721
808.607	28866
808.749	28938
808.891	29296
809.033	29155
809.174	29041
809.316	28961
809.458	28976
809.6	29071
809.741	29109
809.883	29083
810.025	29284
810.166	29292
810.308	29269
810.45	29269
810.591	29288
810.733	29048
810.875	28965
811.016	28991
811.158	29003
811.299	29159
811.441	29269
811.582	29265
811.724	29136
811.865	28965
812.007	29048
812.148	29010
812.29	29128
812.431	29208
812.573	29280
812.714	29417
812.855	29512
812.997	29665
813.138	29790
813.279	29672
813.421	29531
813.562	29444
813.703	29516
813.845	29204
813.986	28881
814.127	28877
814.268	28869
814.41	28831
814.551	28790
814.692	28828
814.833	28656
814.974	28622
815.115	28820
815.256	28691
815.397	28599
815.539	28599
815.68	28588
815.821	28497
815.962	28580
816.103	28481
816.244	28390
816.385	28337
816.526	28276
816.666	28101
816.807	28021
816.948	28116
817.089	28055
817.23	28120
817.371	28082
817.512	28093
817.653	28021
817.793	28021
817.934	28181
818.075	28181
818.216	28078
818.356	28173
818.497	27956
818.638	27720
818.778	27781
818.919	27701
819.06	27888
819.2	27934
819.341	28116
819.481	28002
819.622	28147
819.762	28451
819.903	28223
820.043	28284
820.184	28192
820.324	28124
820.465	28192
820.605	28234
820.746	28181
820.886	27994
821.026	28169
821.167	28055
821.307	28166
821.447	28067
821.588	28143
821.728	27968
821.868	27747
822.008	27595
822.149	27553
822.289	27500
822.429	27348
822.569	27135
822.709	27169
822.849	27020
822.99	27096
823.13	27020
823.27	27017
823.41	26811
823.55	26849
823.69	26883
823.83	26876
823.97	26853
824.11	26773
824.25	26823
824.389	26674
824.529	26708
824.669	26682
824.809	26503
824.949	26758
825.089	26853
825.228	26743
825.368	26583
825.508	26762
825.648	26587
825.787	26602
825.927	26617
826.067	26476
826.206	26442
826.346	26632
826.485	26575
826.625	26682
826.765	26663
826.904	26617
827.044	26465
827.183	26480
827.323	26229
827.462	26298
827.601	26473
827.741	26153
827.88	26298
828.02	26153
828.159	26389
828.298	26229
828.437	26351
828.577	26191
828.716	26351
828.855	26176
828.994	25959
829.134	26001
829.273	25978
829.412	26016
829.551	25902
829.69	26012
829.829	25970
829.968	25970
830.107	26001
830.246	25986
830.385	25982
830.524	25833
830.663	25917
830.802	25670
830.941	25601
831.08	25567
831.219	25651
831.357	25647
831.496	25837
831.635	25552
831.774	25472
831.913	25487
832.051	25457
832.19	25270
832.329	25426
832.467	25259
832.606	25198
832.744	25091
832.883	25312
833.022	25373
833.16	25190
833.299	25206
833.437	25213
833.576	25183
833.714	25365
833.852	25369
833.991	25491
834.129	25236
834.267	25407
834.406	25350
834.544	25217
834.682	25411
834.821	25270
834.959	25483
835.097	25137
835.235	25388
835.373	25369
835.511	25236
835.65	25133
835.788	25168
835.926	25171
836.064	24935
836.202	24996
836.34	25137
836.478	25278
836.615	25042
836.753	25156
836.891	25266
837.029	25076
837.167	25050
837.305	24977
837.443	24977
837.58	24970
837.718	25023
837.856	24977
837.993	24928
838.131	24833
838.269	24760
838.406	24924
838.544	24814
838.681	24547
838.819	24574
838.956	24380
839.094	24380
839.231	24627
839.369	24505
839.506	24867
839.643	24623
839.781	24346
839.918	24414
840.055	24388
840.193	24426
840.33	24448
840.467	24437
840.604	24384
840.742	24703
840.879	24220
841.016	24350
841.153	24205
841.29	24357
841.427	24403
841.564	24213
841.701	24315
841.838	24239
841.975	24262
842.112	24292
842.249	24060
842.385	24155
842.522	24315
842.659	24201
842.796	24068
842.933	24015
843.069	24030
843.206	24038
843.343	24129
843.479	23950
843.616	24083
843.752	23824
843.889	23847
844.025	24102
844.162	23786
844.298	23946
844.435	23920
844.571	23836
844.708	23851
844.844	24034
844.98	23916
845.117	24060
845.253	23657
845.389	23718
845.525	23794
845.661	23638
845.798	23554
845.934	23570
846.07	23520
846.206	23630
846.342	23676
846.478	23604
846.614	23398
846.75	23071
846.886	23303
847.022	23280
847.158	23349
847.294	23296
847.429	23402
847.565	23311
847.701	23395
847.837	23037
847.972	22976
848.108	23136
848.244	23136
848.379	22927
848.515	22843
848.65	22949
848.786	22824
848.921	22915
849.057	23018
849.192	22908
849.328	22881
849.463	22873
849.598	22885
849.734	22729
849.869	22763
850.004	22835
850.14	22744
850.275	22618
850.41	22611
850.545	22618
850.68	22637
850.815	22691
850.95	22603
851.085	22801
851.22	22736
851.355	22577
851.49	22759
851.625	22577
851.76	22744
851.895	22626
852.03	22630
852.165	22592
852.299	22725
852.434	22721
852.569	22618
852.703	22740
852.838	22854
852.973	22763
853.107	22824
853.242	22607
853.376	22531
853.511	22428
853.645	22462
853.78	22641
853.914	22535
854.048	22485
854.183	22352
854.317	22516
854.451	22691
854.585	22451
854.72	22523
854.854	22367
854.988	22413
855.122	22470
855.256	22379
855.39	22394
855.524	22485
855.658	22550
855.792	22432
855.926	22485
856.06	22485
856.194	22516
856.327	22485
856.461	22485
856.595	22363
856.729	22390
856.862	22527
856.996	22474
857.13	22561
857.263	22603
857.397	22538
857.53	22523
857.664	22618
857.797	22375
857.931	22489
858.064	22519
858.197	22599
858.331	22394
858.464	22417
858.597	22295
858.731	22440
858.864	22485
858.997	22459
859.13	22459
859.263	22440
859.396	22561
859.529	22440
859.662	22478
859.795	22485
859.928	22538
860.061	22641
860.194	22687
860.327	22519
860.46	22550
860.592	22599
860.725	22645
860.858	22618
860.99	22481
861.123	22348
861.256	22519
861.388	22470
861.521	23269
861.653	22371
861.786	22333
861.918	22333
862.05	22299
862.183	22360
862.315	22417
862.447	22497
862.58	22333
862.712	22173
862.844	22234
862.976	22249
863.108	22238
863.24	22702
863.372	22055
863.504	22147
863.636	22196
863.768	22188
863.9	22158
864.032	22135
864.164	22177
864.296	22063
864.428	22207
864.559	22268
864.691	22188
864.823	22109
864.954	22147
865.086	22230
865.217	22246
865.349	21983
865.48	22063
865.612	22082
865.743	22181
865.875	22002
866.006	21884
866.137	21956
866.269	22051
866.4	21945
866.531	22006
866.662	21987
866.793	21964
866.924	22036
867.055	21918
867.186	21968
867.317	21945
867.448	21937
867.579	22010
867.71	21793
867.841	21907
867.972	22154
868.103	22017
868.233	21941
868.364	22002
868.495	22090
868.625	22253
868.756	22322
868.886	22211
869.017	22158
869.147	22139
869.278	22204
869.408	22211
869.539	22261
869.669	22310
869.799	22169
869.929	22348
870.06	22246
870.19	22474
870.32	22371
870.45	22607
870.58	22588
870.71	22793
870.84	22683
870.97	22573
871.1	22630
871.23	22801
871.36	22721
871.489	22675
871.619	22793
871.749	22839
871.879	22790
872.008	22911
872.138	22850
872.267	22759
872.397	22797
872.526	22755
872.656	22793
872.785	22649
872.915	22801
873.044	22949
873.173	22725
873.303	22812
873.432	22904
873.561	22987
873.69	22866
873.819	22866
873.948	22850
874.077	22797
874.206	22828
874.335	22930
874.464	22889
874.593	22991
874.722	23003
874.851	23102
874.979	22987
875.108	23083
875.237	23041
875.365	23079
875.494	22923
875.623	23056
875.751	23048
875.88	22972
876.008	23166
876.136	23185
876.265	23391
876.393	23543
876.521	23558
876.65	23509
876.778	23452
876.906	23444
877.034	23277
877.162	23440
877.29	23372
877.418	23501
877.546	23391
877.674	23299
877.802	23330
877.93	23429
878.058	23303
878.185	23204
878.313	23356
878.441	23356
878.568	23334
878.696	23303
878.824	23398
878.951	23353
879.079	23619
879.206	23741
879.333	23642
879.461	23463
879.588	23596
879.715	23623
879.842	23657
879.97	23486
880.097	23277
880.224	23280
880.351	23166
880.478	23143
880.605	23193
880.732	23181
880.859	23425
880.986	23288
881.112	23197
881.239	23113
881.366	22889
881.493	22862
881.619	22820
881.746	22866
881.872	22683
881.999	22729
882.125	22710
882.252	22733
882.378	22847
882.505	22694
882.631	22531
882.757	22504
882.883	22599
883.01	22436
883.136	22352
883.262	22215
883.388	22192
883.514	22436
883.64	22424
883.766	22318
883.892	22128
884.018	22295
884.143	22318
884.269	22421
884.395	22200
884.52	22048
884.646	22055
884.772	21987
884.897	21937
885.023	22143
885.148	22082
885.274	22169
885.399	22158
885.524	21994
885.65	22139
885.775	22154
885.9	22059
886.025	22276
886.15	22032
886.275	22082
886.4	22036
886.525	22074
886.65	21861
886.775	21979
886.9	22211
887.025	22185
887.149	22128
887.274	21911
887.399	21823
887.523	21934
887.648	21774
887.773	21766
887.897	21983
888.021	21922
888.146	21759
888.27	21934
888.395	21899
888.519	21873
888.643	21759
888.767	21804
888.891	21690
889.015	21576
889.139	21557
889.263	21542
889.387	21816
889.511	21857
889.635	21785
889.759	21637
889.883	21629
890.006	21568
890.13	21679
890.254	21500
890.377	21481
890.501	21370
890.624	21401
890.748	21496
890.871	21306
890.995	21184
891.118	21237
891.241	21119
891.364	21146
891.488	21317
891.611	21138
891.734	21214
891.857	21192
891.98	21233
892.103	21138
892.226	21173
892.349	21138
892.471	21051
892.594	21062
892.717	21108
892.839	21085
892.962	21123
893.085	20944
893.207	20967
893.33	21039
893.452	20990
893.575	21127
893.697	21055
893.819	21146
893.941	21260
894.064	21241
894.186	21074
894.308	21036
894.43	21039
894.552	21100
894.674	21119
894.796	21001
894.918	21161
895.04	20941
895.161	21116
895.283	21173
895.405	21005
895.526	21142
895.648	20986
895.769	21055
895.891	21074
896.012	21074
896.134	21062
896.255	20998
896.376	20960
896.498	21066
896.619	20960
896.74	21024
896.861	21043
896.982	21420
897.103	21458
897.224	21230
897.345	21302
897.466	21096
897.587	21336
897.708	21443
897.828	21306
897.949	21161
898.07	21047
898.19	21192
898.311	21348
898.431	21131
898.552	21199
898.672	21325
898.792	21332
898.913	21294
899.033	21085
899.153	21127
899.273	20960
899.393	20902
899.513	20998
899.633	21001
899.753	21058
899.873	20963
899.993	20960
900.113	20845
900.232	21066
900.352	20906
900.472	20754
900.591	20735
900.711	20762
900.83	20609
900.95	20823
901.069	20743
901.189	20629
901.308	20328
901.427	20290
901.546	20366
901.665	20438
901.784	20286
901.904	20233
902.023	20084
902.141	19940
902.26	19841
902.379	19841
902.498	19799
902.617	19753
902.735	19932
902.854	19689
902.973	19734
903.091	19510
903.21	19529
903.328	19362
903.446	19396
903.565	19297
903.683	19285
903.801	19148
903.919	19152
904.038	19148
904.156	19072
904.274	19053
904.392	18996
904.51	19000
904.627	18958
904.745	19080
904.863	19160
904.981	18833
905.098	18768
905.216	18631
905.334	18791
905.451	18791
905.569	18650
905.686	18654
905.803	18589
905.921	18445
906.038	18540
906.155	18513
906.272	18494
906.389	18429
906.506	18232
906.623	18258
906.74	18224
906.857	18205
906.974	18095
907.091	18262
907.208	18327
907.324	18228
907.441	18133
907.557	18030
907.674	18121
907.79	17779
907.907	17927
908.023	17828
908.139	17946
908.256	17828
908.372	17813
908.488	17805
908.604	17649
908.72	17592
908.836	17611
908.952	17691
909.068	17627
909.184	17752
909.3	17668
909.415	17707
909.531	17608
909.647	17421
909.762	17337
909.878	17334
909.993	17395
910.108	17433
910.224	17311
910.339	17315
910.454	17109
910.57	17181
910.685	17075
910.8	17318
910.915	17299
911.03	17147
911.145	16991
911.259	16892
911.374	16938
911.489	16828
911.604	16755
911.718	16607
911.833	16656
911.947	16721
912.062	16558
912.176	16668
912.291	16599
912.405	16580
912.519	16824
912.633	16820
912.748	16736
912.862	16558
912.976	16508
913.09	16360
913.204	16451
913.318	16504
913.431	16497
913.545	16516
913.659	16542
913.772	16413
913.886	16287
914	16287
914.113	16268
914.226	16356
914.34	16409
914.453	16181
914.566	16257
914.68	16120
914.793	16036
914.906	15945
915.019	15800
915.132	15812
915.245	15819
915.358	15854
915.47	15789
915.583	15899
915.696	15816
915.809	16025
915.921	15918
916.034	15770
916.146	15709
916.259	15675
916.371	15861
916.483	15774
916.595	15759
916.708	15732
916.82	15686
916.932	15671
917.044	15641
917.156	15652
917.268	15382
917.38	15488
917.491	15393
917.603	15542
917.715	15534
917.826	15549
917.938	15439
918.049	15207
918.161	15466
918.272	15454
918.384	15500
918.495	15481
918.606	15245
918.717	15150
918.828	15313
918.939	15325
919.05	15093
919.161	15161
919.272	15039
919.383	15116
919.494	15249
919.604	15325
919.715	15154
919.826	15097
919.936	15237
920.047	15188
920.157	15214
920.267	15336
920.378	15169
920.488	15207
920.598	15268
920.708	15386
920.818	15249
920.928	15306
921.038	15504
921.148	15458
921.258	15039
921.368	14986
921.477	15020
921.587	14918
921.697	14739
921.806	14929
921.916	14663
922.025	14560
922.134	14530
922.244	14400
922.353	14530
922.462	14454
922.571	14332
922.68	14218
922.789	14210
922.898	14233
923.007	14039
923.116	14157
923.224	14157
923.333	14092
923.442	14035
923.55	14027
923.659	13967
923.767	14107
923.876	13951
923.984	13978
924.092	13860
924.201	13963
924.309	13864
924.417	13906
924.525	13898
924.633	13849
924.741	14522
924.849	13563
924.956	13769
925.064	13597
925.172	13571
925.279	13567
925.387	13567
925.494	13499
925.602	13601
925.709	13632
925.816	13422
925.924	13388
926.031	13605
926.138	13384
926.245	13552
926.352	13369
926.459	13422
926.566	13544
926.673	13460
926.779	13232
926.886	13251
926.993	13069
927.099	13103
927.206	13088
927.312	12993
927.419	13099
927.525	13103
927.631	13088
927.737	12989
927.843	12913
927.95	12837
928.056	12878
928.162	12932
928.267	13004
928.373	13529
928.479	12966
928.585	12738
928.69	12848
928.796	12821
928.901	12768
929.007	12578
929.112	12817
929.218	12783
929.323	12696
929.428	12669
929.533	12669
929.638	12528
929.743	12582
929.848	12547
929.953	12578
930.058	12407
930.163	12216
930.267	12369
930.372	12369
930.477	12292
930.581	12464
930.685	12338
930.79	12129
930.894	12110
930.998	12106
931.103	12243
931.207	11904
931.311	11817
931.415	11691
931.519	11562
931.623	11505
