Data from test_V78500241_2965.txt Node
Date: Fri Mar 25 16:02:20 CST 2022
User: usil
Spectrometer: V785-0024
Trigger mode: 0
Integration Time (sec): 4.000000E-1
Scans to average: 1
Nonlinearity correction enabled: false
Boxcar width: 0
Storing dark spectrum: false
XAxis mode: Wavelengths
Number of Pixels in Spectrum: 1024
>>>>>Begin Spectral Data<<<<<
801.071	28801
801.214	28759
801.356	28519
801.499	28615
801.641	28398
801.783	28421
801.926	28447
802.068	28421
802.211	28436
802.353	28401
802.496	28150
802.638	28234
802.78	28204
802.923	28086
803.065	28044
803.208	28044
803.35	28112
803.492	28341
803.635	28333
803.777	28188
803.919	28318
804.061	28736
804.204	28470
804.346	28371
804.488	28348
804.63	28417
804.773	28268
804.915	28459
805.057	28672
805.199	28413
805.341	28344
805.483	28538
805.626	28584
805.768	28485
805.91	28504
806.052	28649
806.194	28352
806.336	28721
806.478	28664
806.62	28599
806.762	28687
806.904	28828
807.046	29041
807.188	29022
807.33	28946
807.472	29151
807.614	28995
807.756	29048
807.898	28850
808.04	28713
808.182	28858
808.324	28900
808.465	28915
808.607	29086
808.749	29231
808.891	29334
809.033	29410
809.174	29288
809.316	29102
809.458	29216
809.6	29284
809.741	29277
809.883	29391
810.025	29581
810.166	29600
810.308	29551
810.45	29551
810.591	29410
810.733	29303
810.875	29269
811.016	29071
811.158	29113
811.299	29360
811.441	29497
811.582	29463
811.724	29356
811.865	29288
812.007	29166
812.148	29261
812.29	29204
812.431	29471
812.573	29630
812.714	29786
812.855	29828
812.997	29783
813.138	29988
813.279	29961
813.421	29855
813.562	29745
813.703	29672
813.845	29448
813.986	29277
814.127	29132
814.268	28938
814.41	28946
814.551	29003
814.692	29121
814.833	28946
814.974	28980
815.115	28987
815.256	28854
815.397	28858
815.539	28927
815.68	28881
815.821	28763
815.962	28736
816.103	28790
816.244	28618
816.385	28634
816.526	28622
816.666	28451
816.807	28204
816.948	28306
817.089	28470
817.23	28181
817.371	28303
817.512	28348
817.653	28181
817.793	28097
817.934	28147
818.075	28306
818.216	28192
818.356	28261
818.497	28105
818.638	27953
818.778	28086
818.919	28067
819.06	28112
819.2	28310
819.341	28253
819.481	28401
819.622	28455
819.762	28626
819.903	28569
820.043	28504
820.184	28462
820.324	28550
820.465	28573
820.605	28455
820.746	28531
820.886	28207
821.026	28303
821.167	28310
821.307	28554
821.447	28348
821.588	28257
821.728	28086
821.868	28025
822.008	27972
822.149	27816
822.289	27800
822.429	27568
822.569	27572
822.709	27477
822.849	27268
822.99	27256
823.13	27306
823.27	27222
823.41	27173
823.55	26986
823.69	27138
823.83	27058
823.97	26918
824.11	26918
824.25	26883
824.389	27058
824.529	27108
824.669	26982
824.809	26921
824.949	27055
825.089	27096
825.228	26990
825.368	26906
825.508	26929
825.648	26849
825.787	26834
825.927	26830
826.067	26773
826.206	26800
826.346	26834
826.485	26929
826.625	26792
826.765	26982
826.904	26800
827.044	26606
827.183	26609
827.323	26598
827.462	26663
827.601	26594
827.741	26602
827.88	26594
828.02	26480
828.159	26423
828.298	26594
828.437	26651
828.577	26453
828.716	26590
828.855	26404
828.994	26206
829.134	26286
829.273	26336
829.412	26187
829.551	26130
829.69	26050
829.829	26298
829.968	26400
830.107	26229
830.246	26229
830.385	26256
830.524	26237
830.663	26008
830.802	26046
830.941	25776
831.08	25784
831.219	26024
831.357	25921
831.496	26240
831.635	25890
831.774	25799
831.913	25757
832.051	25567
832.19	25616
832.329	25666
832.467	25460
832.606	25460
832.744	25499
832.883	25476
833.022	25464
833.16	25571
833.299	25613
833.437	25476
833.576	25613
833.714	25586
833.852	25567
833.991	25647
834.129	25651
834.267	25700
834.406	25616
834.544	25628
834.682	25510
834.821	25544
834.959	25746
835.097	25540
835.235	25685
835.373	25624
835.511	25525
835.65	25415
835.788	25525
835.926	25251
836.064	25202
836.202	25259
836.34	25453
836.478	25407
836.615	25312
836.753	25430
836.891	25525
837.029	25472
837.167	25384
837.305	25270
837.443	25278
837.58	25270
837.718	25251
837.856	25217
837.993	25122
838.131	25278
838.269	25042
838.406	25168
838.544	25110
838.681	24878
838.819	24753
838.956	24772
839.094	24696
839.231	24734
839.369	24844
839.506	25069
839.643	24901
839.781	24741
839.918	24620
840.055	24776
840.193	24654
840.33	24639
840.467	24601
840.604	24601
840.742	24859
840.879	24384
841.016	24616
841.153	24502
841.29	24650
841.427	24486
841.564	24566
841.701	24601
841.838	24464
841.975	24414
842.112	24426
842.249	24422
842.385	24365
842.522	24330
842.659	24391
842.796	24422
842.933	24209
843.069	24251
843.206	24350
843.343	24285
843.479	24399
843.616	24224
843.752	24140
843.889	24178
844.025	24289
844.162	24205
844.298	24277
844.435	24076
844.571	23992
844.708	24220
844.844	24182
844.98	24228
845.117	24174
845.253	23931
845.389	23950
845.525	24041
845.661	23961
845.798	23764
845.934	23961
846.07	23786
846.206	23764
846.342	24018
846.478	23813
846.614	23611
846.75	23570
846.886	23414
847.022	23657
847.158	23516
847.294	23585
847.429	23615
847.565	23585
847.701	23703
847.837	23395
847.972	23364
848.108	23258
848.244	23379
848.379	23265
848.515	23121
848.65	23189
848.786	23193
848.921	23136
849.057	23140
849.192	23208
849.328	23170
849.463	23239
849.598	23079
849.734	23044
849.869	23014
850.004	22923
850.14	23067
850.275	23003
850.41	22881
850.545	22889
850.68	22938
850.815	22896
850.95	22976
851.085	23151
851.22	22949
851.355	23083
851.49	22900
851.625	22717
851.76	22824
851.895	22748
852.03	22774
852.165	22892
852.299	22930
852.434	22847
852.569	23018
852.703	22972
852.838	23067
852.973	23033
853.107	23067
853.242	22698
853.376	22733
853.511	22550
853.645	22755
853.78	22805
853.914	22660
854.048	22755
854.183	22603
854.317	22713
854.451	22957
854.585	22729
854.72	22793
854.854	22752
854.988	22793
855.122	22736
855.256	22554
855.39	22763
855.524	22805
855.658	22843
855.792	22889
855.926	22752
856.06	22809
856.194	22805
856.327	22812
856.461	22630
856.595	22630
856.729	22752
856.862	22771
856.996	22740
857.13	22843
857.263	22965
857.397	22744
857.53	22801
857.664	22790
857.797	22713
857.931	22748
858.064	22896
858.197	22809
858.331	22706
858.464	22668
858.597	22717
858.731	22733
858.864	22706
858.997	22733
859.13	22767
859.263	22767
859.396	22599
859.529	22672
859.662	22679
859.795	22752
859.928	22706
860.061	22919
860.194	22965
860.327	22713
860.46	22759
860.592	22839
860.725	22892
860.858	22820
860.99	22733
861.123	22691
861.256	22668
861.388	22885
861.521	23551
861.653	22672
861.786	22569
861.918	22588
862.05	22531
862.183	22584
862.315	22649
862.447	22759
862.58	22687
862.712	22462
862.844	22360
862.976	22596
863.108	22599
863.24	22980
863.372	22291
863.504	22314
863.636	22379
863.768	22462
863.9	22508
864.032	22265
864.164	22428
864.296	22557
864.428	22462
864.559	22440
864.691	22436
864.823	22379
864.954	22512
865.086	22341
865.217	22295
865.349	22265
865.48	22360
865.612	22280
865.743	22462
865.875	22333
866.006	22280
866.137	22291
866.269	22424
866.4	22413
866.531	22173
866.662	22261
866.793	22246
866.924	22219
867.055	22135
867.186	22306
867.317	22219
867.448	22162
867.579	22306
867.71	22135
867.841	22128
867.972	22322
868.103	22097
868.233	22109
868.364	22246
868.495	22306
868.625	22428
868.756	22508
868.886	22352
869.017	22485
869.147	22535
869.278	22694
869.408	22508
869.539	22615
869.669	22618
869.799	22531
869.929	22687
870.06	22523
870.19	22839
870.32	22774
870.45	22740
870.58	22881
870.71	22930
870.84	23067
870.97	22805
871.1	22809
871.23	23018
871.36	23155
871.489	22805
871.619	22965
871.749	23064
871.879	23037
872.008	23193
872.138	23048
872.267	23121
872.397	22889
872.526	23060
872.656	22858
872.785	22968
872.915	23159
873.044	23261
873.173	23075
873.303	23090
873.432	23197
873.561	23265
873.69	23113
873.819	23060
873.948	23200
874.077	23140
874.206	22995
874.335	23056
874.464	23140
874.593	23303
874.722	23231
874.851	23398
874.979	23391
875.108	23261
875.237	23322
875.365	23220
875.494	23231
875.623	23395
875.751	23334
875.88	23322
876.008	23570
876.136	23433
876.265	23699
876.393	23859
876.521	23870
876.65	23786
876.778	23707
876.906	23592
877.034	23570
877.162	23653
877.29	23627
877.418	23596
877.546	23585
877.674	23619
877.802	23767
877.93	23733
878.058	23615
878.185	23600
878.313	23585
878.441	23726
878.568	23455
878.696	23562
878.824	23668
878.951	23729
879.079	23718
879.206	23916
879.333	23885
879.461	23573
879.588	23642
879.715	23783
879.842	23965
879.97	23687
880.097	23452
880.224	23505
880.351	23395
880.478	23452
880.605	23379
880.732	23406
880.859	23741
880.986	23425
881.112	23615
881.239	23341
881.366	23200
881.493	23296
881.619	22873
881.746	23086
881.872	22987
881.999	22968
882.125	23041
882.252	23094
882.378	22991
882.505	23014
882.631	22885
882.757	22774
882.883	22740
883.01	22736
883.136	22668
883.262	22538
883.388	22436
883.514	22668
883.64	22672
883.766	22744
883.892	22554
884.018	22554
884.143	22516
884.269	22740
884.395	22386
884.52	22314
884.646	22352
884.772	22318
884.897	22246
885.023	22306
885.148	22344
885.274	22466
885.399	22295
885.524	22261
885.65	22379
885.775	22405
885.9	22390
886.025	22466
886.15	22367
886.275	22322
886.4	22211
886.525	22390
886.65	22341
886.775	22322
886.9	22322
887.025	22584
887.149	22352
887.274	22097
887.399	21987
887.523	22017
887.648	22048
887.773	21975
887.897	22124
888.021	22154
888.146	21972
888.27	22147
888.395	22055
888.519	22017
888.643	21998
888.767	22147
888.891	21953
889.015	21835
889.139	21876
889.263	21926
889.387	21926
889.511	22017
889.635	21888
889.759	21747
889.883	21778
890.006	21884
890.13	21922
890.254	21941
890.377	21827
890.501	21580
890.624	21610
890.748	21629
890.871	21443
890.995	21389
891.118	21405
891.241	21485
891.364	21416
891.488	21576
891.611	21454
891.734	21462
891.857	21393
891.98	21420
892.103	21492
892.226	21435
892.349	21241
892.471	21287
892.594	21363
892.717	21340
892.839	21283
892.962	21359
893.085	21340
893.207	21344
893.33	21233
893.452	21256
893.575	21408
893.697	21386
893.819	21454
893.941	21405
894.064	21374
894.186	21203
894.308	21184
894.43	21424
894.552	21424
894.674	21397
894.796	21173
894.918	21165
895.04	21275
895.161	21405
895.283	21355
895.405	21173
895.526	21169
895.648	21256
895.769	21363
895.891	21203
896.012	21351
896.134	21294
896.255	21306
896.376	21214
896.498	21302
896.619	21256
896.74	21317
896.861	21401
896.982	21625
897.103	21610
897.224	21500
897.345	21542
897.466	21374
897.587	21287
897.708	21641
897.828	21485
897.949	21408
898.07	21268
898.19	21355
898.311	21420
898.431	21500
898.552	21549
898.672	21469
898.792	21443
898.913	21504
899.033	21382
899.153	21294
899.273	21142
899.393	21252
899.513	21173
899.633	21199
899.753	21176
899.873	21089
899.993	21169
900.113	21138
900.232	21131
900.352	20998
900.472	20967
900.591	20956
900.711	21001
900.83	21051
900.95	21089
901.069	21032
901.189	20792
901.308	20613
901.427	20492
901.546	20476
901.665	20469
901.784	20575
901.904	20313
902.023	20282
902.141	20168
902.26	20062
902.379	20111
902.498	20043
902.617	20027
902.735	20134
902.854	19940
902.973	19902
903.091	19731
903.21	19670
903.328	19601
903.446	19651
903.565	19521
903.683	19472
903.801	19392
903.919	19384
904.038	19388
904.156	19263
904.274	19331
904.392	19175
904.51	19331
904.627	19285
904.745	19244
904.863	19362
904.981	19084
905.098	18977
905.216	18817
905.334	18875
905.451	18924
905.569	18856
905.686	18897
905.803	18928
905.921	18776
906.038	18741
906.155	18589
906.272	18601
906.389	18601
906.506	18566
906.623	18452
906.74	18388
906.857	18178
906.974	18426
907.091	18525
907.208	18559
907.324	18479
907.441	18361
907.557	18140
907.674	18178
907.79	18034
907.907	18125
908.023	18148
908.139	18041
908.256	18003
908.372	18064
908.488	18026
908.604	17851
908.72	17760
908.836	17901
908.952	17840
909.068	17851
909.184	17999
909.3	17836
909.415	17923
909.531	17748
909.647	17722
909.762	17452
909.878	17570
909.993	17741
910.108	17490
910.224	17551
910.339	17474
910.454	17353
910.57	17364
910.685	17200
910.8	17551
910.915	17455
911.03	17258
911.145	17254
911.259	17143
911.374	16957
911.489	17128
911.604	16980
911.718	16850
911.833	16801
911.947	16839
912.062	16725
912.176	16835
912.291	16866
912.405	16729
912.519	17079
912.633	16995
912.748	16927
912.862	16835
912.976	16622
913.09	16584
913.204	16611
913.318	16713
913.431	16683
913.545	16653
913.659	16786
913.772	16584
913.886	16470
914	16500
914.113	16588
914.226	16656
914.34	16428
914.453	16306
914.566	16421
914.68	16310
914.793	16291
914.906	16143
915.019	16090
915.132	16036
915.245	15964
915.358	16074
915.47	16029
915.583	16002
915.696	16105
915.809	16162
915.921	16192
916.034	16074
916.146	15926
916.259	15785
916.371	16055
916.483	15964
916.595	15808
916.708	15804
916.82	15865
916.932	15606
917.044	15812
917.156	15869
917.268	15679
917.38	15625
917.491	15675
917.603	15648
917.715	15732
917.826	15816
917.938	15545
918.049	15553
918.161	15644
918.272	15652
918.384	15701
918.495	15500
918.606	15420
918.717	15416
918.828	15348
918.939	15462
919.05	15370
919.161	15370
919.272	15127
919.383	15203
919.494	15435
919.604	15542
919.715	15363
919.826	15180
919.936	15226
920.047	15424
920.157	15313
920.267	15523
920.378	15298
920.488	15321
920.598	15458
920.708	15557
920.818	15408
920.928	15538
921.038	15671
921.148	15568
921.258	15336
921.368	15294
921.477	15081
921.587	14971
921.697	14910
921.806	15047
921.916	14906
922.025	14693
922.134	14773
922.244	14663
922.353	14689
922.462	14533
922.571	14549
922.68	14320
922.789	14385
922.898	14434
923.007	14278
923.116	14252
923.224	14324
923.333	14267
923.442	14199
923.55	14145
923.659	14176
923.767	14123
923.876	14054
923.984	14096
924.092	14012
924.201	14084
924.309	14005
924.417	14043
924.525	13902
924.633	13986
924.741	14743
924.849	13776
924.956	13883
925.064	13738
925.172	13719
925.279	13681
925.387	13636
925.494	13700
925.602	13807
925.709	13708
925.816	13636
925.924	13700
926.031	13769
926.138	13525
926.245	13704
926.352	13548
926.459	13677
926.566	13757
926.673	13586
926.779	13422
926.886	13358
926.993	13213
927.099	13293
927.206	13187
927.312	13152
927.419	13285
927.525	13270
927.631	13217
927.737	13126
927.843	13008
927.95	12958
928.056	12973
928.162	13110
928.267	13084
928.373	13674
928.479	13069
928.585	12833
928.69	12996
928.796	13019
928.901	12878
929.007	12760
929.112	12894
929.218	12825
929.323	12814
929.428	12802
929.533	12863
929.638	12741
929.743	12650
929.848	12726
929.953	12673
930.058	12490
930.163	12460
930.267	12517
930.372	12517
930.477	12395
930.581	12639
930.685	12407
930.79	12216
930.894	12277
930.998	12285
931.103	12395
931.207	12041
931.311	11996
931.415	11916
931.519	11642
931.623	11668
