Data from test_V78500241_979.txt Node
Date: Fri Mar 25 15:48:34 CST 2022
User: usil
Spectrometer: V785-0024
Trigger mode: 0
Integration Time (sec): 4.000000E-1
Scans to average: 1
Nonlinearity correction enabled: false
Boxcar width: 0
Storing dark spectrum: false
XAxis mode: Wavelengths
Number of Pixels in Spectrum: 1024
>>>>>Begin Spectral Data<<<<<
801.071	28599
801.214	28337
801.356	28295
801.499	28287
801.641	28006
801.783	28162
801.926	28173
802.068	28025
802.211	28021
802.353	27949
802.496	27808
802.638	27781
802.78	27751
802.923	27755
803.065	27774
803.208	27774
803.35	27732
803.492	27747
803.635	27930
803.777	27892
803.919	27979
804.061	28280
804.204	28128
804.346	27918
804.488	27964
804.63	27968
804.773	27994
804.915	27998
805.057	28044
805.199	27926
805.341	28173
805.483	28097
805.626	28196
805.768	28029
805.91	28162
806.052	28173
806.194	28200
806.336	28424
806.478	28310
806.62	28268
806.762	28303
806.904	28554
807.046	28649
807.188	28603
807.33	28641
807.472	28790
807.614	28584
807.756	28516
807.898	28481
808.04	28421
808.182	28474
808.324	28508
808.465	28596
808.607	28713
808.749	28793
808.891	28877
809.033	29052
809.174	28930
809.316	28847
809.458	28885
809.6	28733
809.741	28934
809.883	29060
810.025	29048
810.166	29098
810.308	29216
810.45	29121
810.591	29022
810.733	28885
810.875	28858
811.016	28888
811.158	28774
811.299	29006
811.441	29071
811.582	29079
811.724	28877
811.865	28816
812.007	28801
812.148	28816
812.29	28919
812.431	29041
812.573	29212
812.714	29398
812.855	29414
812.997	29562
813.138	29539
813.279	29642
813.421	29288
813.562	29372
813.703	29200
813.845	29094
813.986	28786
814.127	28797
814.268	28584
814.41	28588
814.551	28596
814.692	28759
814.833	28573
814.974	28626
815.115	28573
815.256	28405
815.397	28333
815.539	28516
815.68	28284
815.821	28265
815.962	28451
816.103	28230
816.244	28215
816.385	28135
816.526	28128
816.666	28131
816.807	27926
816.948	27953
817.089	27930
817.23	27892
817.371	27888
817.512	27865
817.653	27892
817.793	27865
817.934	27907
818.075	27972
818.216	27949
818.356	27770
818.497	27679
818.638	27660
818.778	27614
818.919	27675
819.06	27789
819.2	27709
819.341	27968
819.481	27903
819.622	28067
819.762	28325
819.903	28105
820.043	28070
820.184	28139
820.324	28067
820.465	28200
820.605	28078
820.746	28017
820.886	27819
821.026	28128
821.167	27934
821.307	28025
821.447	27854
821.588	27751
821.728	27766
821.868	27561
822.008	27386
822.149	27294
822.289	27268
822.429	27112
822.569	27009
822.709	27013
822.849	26921
822.99	26838
823.13	26697
823.27	26834
823.41	26659
823.55	26632
823.69	26769
823.83	26811
823.97	26853
824.11	26499
824.25	26514
824.389	26492
824.529	26488
824.669	26434
824.809	26781
824.949	26533
825.089	26682
825.228	26644
825.368	26324
825.508	26320
825.648	26545
825.787	26419
825.927	26476
826.067	26263
826.206	26453
826.346	26366
826.485	26469
826.625	26469
826.765	26537
826.904	26549
827.044	26202
827.183	26237
827.323	26084
827.462	26168
827.601	26065
827.741	26073
827.88	26263
828.02	25974
828.159	26176
828.298	26126
828.437	26309
828.577	26088
828.716	26240
828.855	25963
828.994	25860
829.134	25860
829.273	25799
829.412	25795
829.551	25765
829.69	25887
829.829	25871
829.968	25993
830.107	25753
830.246	25837
830.385	25814
830.524	25750
830.663	25586
830.802	25529
830.941	25449
831.08	25285
831.219	25502
831.357	25468
831.496	25700
831.635	25483
831.774	25343
831.913	25343
832.051	25103
832.19	25228
832.329	25183
832.467	25187
832.606	24966
832.744	25015
832.883	25065
833.022	25034
833.16	25053
833.299	25187
833.437	25110
833.576	25251
833.714	25126
833.852	25232
833.991	25076
834.129	25145
834.267	25152
834.406	25114
834.544	25141
834.682	25251
834.821	25141
834.959	25343
835.097	25038
835.235	25202
835.373	25194
835.511	25050
835.65	24943
835.788	25019
835.926	24924
836.064	24806
836.202	24916
836.34	24947
836.478	25046
836.615	25023
836.753	25031
836.891	25031
837.029	25019
837.167	24905
837.305	24954
837.443	24947
837.58	24856
837.718	24992
837.856	24867
837.993	24722
838.131	24787
838.269	24677
838.406	24612
838.544	24688
838.681	24388
838.819	24273
838.956	24357
839.094	24315
839.231	24380
839.369	24399
839.506	24673
839.643	24547
839.781	24273
839.918	24174
840.055	24216
840.193	24338
840.33	24213
840.467	24270
840.604	24319
840.742	24403
840.879	24125
841.016	24117
841.153	24045
841.29	24399
841.427	24117
841.564	24140
841.701	24197
841.838	24076
841.975	24060
842.112	24117
842.249	24072
842.385	24015
842.522	24114
842.659	23920
842.796	23973
842.933	23969
843.069	23965
843.206	23939
843.343	23980
843.479	23969
843.616	23931
843.752	23653
843.889	23653
844.025	23802
844.162	23668
844.298	23771
844.435	23642
844.571	23638
844.708	23703
844.844	23908
844.98	23965
845.117	23748
845.253	23722
845.389	23604
845.525	23520
845.661	23570
845.798	23615
845.934	23452
846.07	23417
846.206	23440
846.342	23558
846.478	23376
846.614	23273
846.75	23155
846.886	23075
847.022	23212
847.158	23174
847.294	23178
847.429	23197
847.565	23147
847.701	23349
847.837	22877
847.972	22854
848.108	23006
848.244	22869
848.379	22843
848.515	22691
848.65	22668
848.786	22858
848.921	22835
849.057	22850
849.192	22896
849.328	22759
849.463	22721
849.598	22713
849.734	22698
849.869	22702
850.004	22485
850.14	22542
850.275	22508
850.41	22462
850.545	22459
850.68	22474
850.815	22474
850.95	22523
851.085	22637
851.22	22554
851.355	22641
851.49	22508
851.625	22504
851.76	22500
851.895	22306
852.03	22538
852.165	22542
852.299	22519
852.434	22645
852.569	22512
852.703	22577
852.838	22546
852.973	22656
853.107	22630
853.242	22447
853.376	22371
853.511	22169
853.645	22276
853.78	22459
853.914	22295
854.048	22310
854.183	22261
854.317	22375
854.451	22474
854.585	22333
854.72	22310
854.854	22398
854.988	22196
855.122	22306
855.256	22200
855.39	22284
855.524	22390
855.658	22284
855.792	22314
855.926	22436
856.06	22295
856.194	22337
856.327	22291
856.461	22276
856.595	22230
856.729	22341
856.862	22409
856.996	22352
857.13	22382
857.263	22432
857.397	22432
857.53	22371
857.664	22257
857.797	22455
857.931	22421
858.064	22337
858.197	22440
858.331	22390
858.464	22204
858.597	22246
858.731	22272
858.864	22322
858.997	22211
859.13	22253
859.263	22196
859.396	22371
859.529	22295
859.662	22360
859.795	22181
859.928	22341
860.061	22504
860.194	22508
860.327	22314
860.46	22363
860.592	22451
860.725	22535
860.858	22443
860.99	22382
861.123	22230
861.256	22230
861.388	22344
861.521	23006
861.653	22124
861.786	22112
861.918	22230
862.05	22215
862.183	22344
862.315	22371
862.447	22276
862.58	22367
862.712	22055
862.844	21983
862.976	22090
863.108	22078
863.24	22379
863.372	22002
863.504	22147
863.636	21934
863.768	22048
863.9	22044
864.032	21987
864.164	22044
864.296	22002
864.428	22162
864.559	22181
864.691	22055
864.823	22036
864.954	21953
865.086	21956
865.217	21945
865.349	21934
865.48	21994
865.612	21876
865.743	22025
865.875	21838
866.006	21884
866.137	22002
866.269	21869
866.4	22036
866.531	21797
866.662	21823
866.793	21842
866.924	21892
867.055	21800
867.186	21953
867.317	21793
867.448	21679
867.579	21838
867.71	21637
867.841	21797
867.972	21797
868.103	21785
868.233	21827
868.364	21888
868.495	22021
868.625	21979
868.756	22284
868.886	22051
869.017	22090
869.147	22124
869.278	22169
869.408	22207
869.539	22063
869.669	22169
869.799	22109
869.929	22272
870.06	22169
870.19	22466
870.32	22253
870.45	22436
870.58	22565
870.71	22531
870.84	22569
870.97	22500
871.1	22519
871.23	22618
871.36	22656
871.489	22573
871.619	22755
871.749	22668
871.879	22710
872.008	22786
872.138	22672
872.267	22653
872.397	22611
872.526	22432
872.656	22569
872.785	22485
872.915	22672
873.044	22820
873.173	22771
873.303	22748
873.432	22892
873.561	22740
873.69	22664
873.819	22748
873.948	22713
874.077	22725
874.206	22637
874.335	22717
874.464	22790
874.593	22930
874.722	22862
874.851	23083
874.979	22927
875.108	22877
875.237	22885
875.365	22729
875.494	22885
875.623	22995
875.751	22911
875.88	22900
876.008	22946
876.136	23174
876.265	23197
876.393	23429
876.521	23235
876.65	23368
876.778	23318
876.906	23364
877.034	23086
877.162	23326
877.29	23143
877.418	23204
877.546	23242
877.674	23113
877.802	23124
877.93	23200
878.058	23193
878.185	23098
878.313	23102
878.441	23277
878.568	23006
878.696	23235
878.824	23193
878.951	23296
879.079	23353
879.206	23452
879.333	23391
879.461	23258
879.588	23417
879.715	23406
879.842	23406
879.97	23383
880.097	23174
880.224	23064
880.351	23022
880.478	23033
880.605	23067
880.732	23010
880.859	23318
880.986	23151
881.112	23193
881.239	22854
881.366	22778
881.493	22641
881.619	22630
881.746	22622
881.872	22577
881.999	22626
882.125	22596
882.252	22588
882.378	22557
882.505	22850
882.631	22580
882.757	22348
882.883	22295
883.01	22268
883.136	22295
883.262	22032
883.388	22109
883.514	22333
883.64	22352
883.766	22169
883.892	22116
884.018	22029
884.143	22128
884.269	22497
884.395	21987
884.52	22010
884.646	22021
884.772	21892
884.897	21831
885.023	21915
885.148	22082
885.274	22006
885.399	22147
885.524	21884
885.65	22021
885.775	21998
885.9	21991
886.025	22109
886.15	22002
886.275	21968
886.4	21785
886.525	21797
886.65	21781
886.775	21778
886.9	22086
887.025	21987
887.149	21865
887.274	21739
887.399	21755
887.523	21755
887.648	21671
887.773	21595
887.897	21774
888.021	21812
888.146	21557
888.27	21766
888.395	21671
888.519	21728
888.643	21762
888.767	21759
888.891	21534
889.015	21397
889.139	21454
889.263	21553
889.387	21534
889.511	21679
889.635	21477
889.759	21515
889.883	21450
890.006	21462
890.13	21545
890.254	21458
890.377	21466
890.501	21317
890.624	21150
890.748	21203
890.871	21089
890.995	20952
891.118	20998
891.241	21096
891.364	21108
891.488	21036
891.611	21074
891.734	21131
891.857	21192
891.98	21024
892.103	20994
892.226	21058
892.349	20876
892.471	20655
892.594	20960
892.717	21074
892.839	20929
892.962	20948
893.085	20986
893.207	20921
893.33	20868
893.452	20811
893.575	20929
893.697	20929
893.819	21020
893.941	21123
894.064	21013
894.186	20887
894.308	20750
894.43	20971
894.552	21066
894.674	21058
894.796	20769
894.918	20990
895.04	20861
895.161	21074
895.283	20823
895.405	20902
895.526	20906
895.648	20967
895.769	20975
895.891	20971
896.012	20975
896.134	20933
896.255	21070
896.376	20937
896.498	21013
896.619	20975
896.74	20906
896.861	20956
896.982	21268
897.103	21298
897.224	21112
897.345	21218
897.466	21089
897.587	21085
897.708	21294
897.828	21161
897.949	21127
898.07	20956
898.19	21074
898.311	21154
898.431	21039
898.552	21032
898.672	21062
898.792	21131
898.913	21116
899.033	20975
899.153	20902
899.273	20845
899.393	20861
899.513	20834
899.633	20762
899.753	20861
899.873	20925
899.993	20834
900.113	20826
900.232	20811
900.352	20735
900.472	20670
900.591	20568
900.711	20678
900.83	20629
900.95	20689
901.069	20670
901.189	20522
901.308	20328
901.427	20168
901.546	20172
901.665	20244
901.784	20237
901.904	20054
902.023	19932
902.141	19890
902.26	19696
902.379	19791
902.498	19662
902.617	19734
902.735	19719
902.854	19639
902.973	19533
903.091	19358
903.21	19270
903.328	19411
903.446	19282
903.565	19228
903.683	19225
903.801	19050
903.919	19118
904.038	19046
904.156	19015
904.274	19072
904.392	18894
904.51	18840
904.627	18958
904.745	19095
904.863	18947
904.981	18700
905.098	18734
905.216	18601
905.334	18589
905.451	18502
905.569	18559
905.686	18566
905.803	18528
905.921	18410
906.038	18601
906.155	18395
906.272	18247
906.389	18300
906.506	18091
906.623	18125
906.74	18140
906.857	18003
906.974	18053
907.091	18163
907.208	18190
907.324	18194
907.441	18091
907.557	17939
907.674	17885
907.79	17847
907.907	17824
908.023	17843
908.139	17813
908.256	17756
908.372	17714
908.488	17665
908.604	17493
908.72	17505
908.836	17611
908.952	17501
909.068	17619
909.184	17665
909.3	17543
909.415	17387
909.531	17516
909.647	17303
909.762	17220
909.878	17277
909.993	17216
910.108	17227
910.224	17269
910.339	17204
910.454	17109
910.57	17003
910.685	16900
910.8	17200
910.915	17102
911.03	17010
911.145	16850
911.259	16835
911.374	16809
911.489	16725
911.604	16702
911.718	16546
911.833	16630
911.947	16584
912.062	16428
912.176	16615
912.291	16523
912.405	16618
912.519	16767
912.633	16691
912.748	16550
912.862	16516
912.976	16356
913.09	16261
913.204	16303
913.318	16333
913.431	16428
913.545	16447
913.659	16466
913.772	16363
913.886	16143
914	16147
914.113	16230
914.226	16223
914.34	16093
914.453	16105
914.566	16124
914.68	15991
914.793	16040
914.906	15835
915.019	15679
915.132	15781
915.245	15778
915.358	15625
915.47	15736
915.583	15705
915.696	15739
915.809	15835
915.921	15888
916.034	15667
916.146	15648
916.259	15599
916.371	15603
916.483	15686
916.595	15618
916.708	15614
916.82	15545
916.932	15523
917.044	15488
917.156	15545
917.268	15420
917.38	15477
917.491	15351
917.603	15313
917.715	15374
917.826	15348
917.938	15275
918.049	15211
918.161	15298
918.272	15447
918.384	15443
918.495	15294
918.606	15062
918.717	15013
918.828	15081
918.939	15321
919.05	14948
919.161	15112
919.272	14906
919.383	15058
919.494	15116
919.604	15378
919.715	15203
919.826	15017
919.936	15039
920.047	15112
920.157	15100
920.267	15233
920.378	15104
920.488	15077
920.598	15268
920.708	15287
920.818	15142
920.928	15119
921.038	15329
921.148	15268
921.258	14998
921.368	14956
921.477	14910
921.587	14819
921.697	14743
921.806	14815
921.916	14621
922.025	14495
922.134	14446
922.244	14415
922.353	14461
922.462	14358
922.571	14286
922.68	14088
922.789	14088
922.898	14069
923.007	13982
923.116	14073
923.224	14039
923.333	13993
923.442	13913
923.55	13856
923.659	13856
923.767	13868
923.876	13906
923.984	13890
924.092	13750
924.201	13871
924.309	13788
924.417	13788
924.525	13799
924.633	13772
924.741	14655
924.849	13514
924.956	13700
925.064	13457
925.172	13419
925.279	13438
925.387	13495
925.494	13510
925.602	13506
925.709	13559
925.816	13270
925.924	13297
926.031	13502
926.138	13419
926.245	13491
926.352	13350
926.459	13354
926.566	13384
926.673	13274
926.779	13168
926.886	13137
926.993	13050
927.099	13019
927.206	12935
927.312	12962
927.419	13012
927.525	12981
927.631	13042
927.737	12859
927.843	12897
927.95	12791
928.056	12798
928.162	12783
928.267	12901
928.373	13327
928.479	12848
928.585	12593
928.69	12779
928.796	12738
928.901	12620
929.007	12448
929.112	12688
929.218	12559
929.323	12525
929.428	12559
929.533	12669
929.638	12403
929.743	12467
929.848	12563
929.953	12448
930.058	12330
930.163	12197
930.267	12140
930.372	12304
930.477	12159
930.581	12426
930.685	12281
930.79	12102
930.894	12091
930.998	12057
931.103	12232
931.207	11897
931.311	11805
931.415	11745
931.519	11528
931.623	11478
