Data from test_V78500241_1105.txt Node
Date: Fri Mar 25 15:49:27 CST 2022
User: usil
Spectrometer: V785-0024
Trigger mode: 0
Integration Time (sec): 4.000000E-1
Scans to average: 1
Nonlinearity correction enabled: false
Boxcar width: 0
Storing dark spectrum: false
XAxis mode: Wavelengths
Number of Pixels in Spectrum: 1024
>>>>>Begin Spectral Data<<<<<
801.071	28466
801.214	28413
801.356	28207
801.499	28143
801.641	28059
801.783	27903
801.926	28044
802.068	27998
802.211	27808
802.353	27899
802.496	27728
802.638	27648
802.78	27766
802.923	27568
803.065	27519
803.208	27648
803.35	27709
803.492	27789
803.635	27907
803.777	27778
803.919	27956
804.061	28211
804.204	27846
804.346	27816
804.488	27793
804.63	27899
804.773	27709
804.915	27991
805.057	27918
805.199	27941
805.341	27945
805.483	28105
805.626	28044
805.768	27914
805.91	28078
806.052	28070
806.194	28006
806.336	28143
806.478	28128
806.62	28067
806.762	28185
806.904	28253
807.046	28508
807.188	28481
807.33	28432
807.472	28485
807.614	28375
807.756	28588
807.898	28306
808.04	28276
808.182	28226
808.324	28329
808.465	28531
808.607	28588
808.749	28637
808.891	28854
809.033	28888
809.174	28812
809.316	28717
809.458	28752
809.6	28675
809.741	28816
809.883	28854
810.025	29006
810.166	29052
810.308	29029
810.45	29109
810.591	28938
810.733	28835
810.875	28843
811.016	28687
811.158	28649
811.299	28759
811.441	28930
811.582	28965
811.724	28759
811.865	28793
812.007	28767
812.148	28774
812.29	28934
812.431	28843
812.573	29067
812.714	29254
812.855	29337
812.997	29299
813.138	29452
813.279	29349
813.421	29375
813.562	29193
813.703	29174
813.845	29117
813.986	28759
814.127	28626
814.268	28443
814.41	28436
814.551	28519
814.692	28573
814.833	28493
814.974	28398
815.115	28554
815.256	28375
815.397	28226
815.539	28344
815.68	28181
815.821	28181
815.962	28325
816.103	28238
816.244	28169
816.385	27987
816.526	27960
816.666	27873
816.807	27778
816.948	27713
817.089	27842
817.23	27838
817.371	27686
817.512	27751
817.653	27732
817.793	27739
817.934	27755
818.075	27865
818.216	27892
818.356	27762
818.497	27629
818.638	27568
818.778	27496
818.919	27564
819.06	27591
819.2	27705
819.341	27854
819.481	27694
819.622	27926
819.762	28154
819.903	28021
820.043	27975
820.184	27956
820.324	27972
820.465	28029
820.605	27918
820.746	27884
820.886	27968
821.026	27930
821.167	27728
821.307	27835
821.447	27861
821.588	27686
821.728	27583
821.868	27500
822.008	27363
822.149	27351
822.289	27344
822.429	27058
822.569	26895
822.709	27039
822.849	26819
822.99	26781
823.13	26845
823.27	26670
823.41	26545
823.55	26473
823.69	26552
823.83	26644
823.97	26579
824.11	26389
824.25	26309
824.389	26385
824.529	26537
824.669	26400
824.809	26533
824.949	26473
825.089	26541
825.228	26461
825.368	26324
825.508	26305
825.648	26240
825.787	26286
825.927	26305
826.067	26282
826.206	26221
826.346	26355
826.485	26381
826.625	26191
826.765	26362
826.904	26225
827.044	26031
827.183	26027
827.323	25955
827.462	25966
827.601	26115
827.741	25963
827.88	26107
828.02	25871
828.159	26092
828.298	26054
828.437	26164
828.577	25875
828.716	26100
828.855	25940
828.994	25693
829.134	25662
829.273	25791
829.412	25803
829.551	25700
829.69	25708
829.829	25738
829.968	25677
830.107	25795
830.246	25689
830.385	25704
830.524	25552
830.663	25540
830.802	25392
830.941	25171
831.08	25247
831.219	25548
831.357	25396
831.496	25548
831.635	25396
831.774	25270
831.913	25221
832.051	25065
832.19	25076
832.329	25061
832.467	24966
832.606	24905
832.744	24848
832.883	24996
833.022	24973
833.16	24973
833.299	25012
833.437	25015
833.576	25080
833.714	25110
833.852	25065
833.991	25122
834.129	25137
834.267	25179
834.406	25065
834.544	25088
834.682	25076
834.821	25122
834.959	25152
835.097	25008
835.235	25023
835.373	24989
835.511	24992
835.65	24791
835.788	24954
835.926	24661
836.064	24604
836.202	24814
836.34	24810
836.478	24871
836.615	24700
836.753	24859
836.891	24901
837.029	24837
837.167	24753
837.305	24817
837.443	24837
837.58	24776
837.718	24734
837.856	24700
837.993	24593
838.131	24795
838.269	24429
838.406	24563
838.544	24578
838.681	24262
838.819	24308
838.956	24095
839.094	24190
839.231	24243
839.369	24483
839.506	24563
839.643	24486
839.781	24106
839.918	24117
840.055	24038
840.193	23980
840.33	24117
840.467	24060
840.604	24190
840.742	24327
840.879	23950
841.016	24041
841.153	24026
841.29	24197
841.427	23961
841.564	24095
841.701	24053
841.838	24087
841.975	23870
842.112	24144
842.249	23901
842.385	23832
842.522	23958
842.659	23946
842.796	23726
842.933	23783
843.069	23748
843.206	23638
843.343	23813
843.479	23741
843.616	23779
843.752	23589
843.889	23528
844.025	23863
844.162	23535
844.298	23718
844.435	23528
844.571	23471
844.708	23562
844.844	23646
844.98	23577
845.117	23783
845.253	23581
845.389	23570
845.525	23402
845.661	23524
845.798	23318
845.934	23452
846.07	23337
846.206	23322
846.342	23486
846.478	23334
846.614	23071
846.75	23067
846.886	23048
847.022	23132
847.158	23048
847.294	23041
847.429	23018
847.565	23029
847.701	23216
847.837	22763
847.972	22816
848.108	22828
848.244	22786
848.379	22767
848.515	22596
848.65	22596
848.786	22519
848.921	22634
849.057	22687
849.192	22645
849.328	22645
849.463	22668
849.598	22516
849.734	22527
849.869	22538
850.004	22348
850.14	22481
850.275	22322
850.41	22265
850.545	22341
850.68	22371
850.815	22303
850.95	22409
851.085	22615
851.22	22481
851.355	22440
851.49	22310
851.625	22379
851.76	22405
851.895	22318
852.03	22360
852.165	22390
852.299	22310
852.434	22573
852.569	22421
852.703	22519
852.838	22550
852.973	22550
853.107	22462
853.242	22325
853.376	22280
853.511	22166
853.645	22200
853.78	22341
853.914	22322
854.048	22253
854.183	22135
854.317	22166
854.451	22333
854.585	22223
854.72	22314
854.854	22223
854.988	22143
855.122	22204
855.256	22063
855.39	22242
855.524	22333
855.658	22192
855.792	22166
855.926	22253
856.06	22230
856.194	22223
856.327	22276
856.461	22135
856.595	22154
856.729	22169
856.862	22329
856.996	22242
857.13	22272
857.263	22341
857.397	22249
857.53	22181
857.664	22295
857.797	22360
857.931	22310
858.064	22318
858.197	22295
858.331	22257
858.464	22147
858.597	22078
858.731	22196
858.864	22204
858.997	22291
859.13	22295
859.263	22169
859.396	22299
859.529	22067
859.662	22181
859.795	22246
859.928	22207
860.061	22352
860.194	22322
860.327	22211
860.46	22287
860.592	22390
860.725	22394
860.858	22398
860.99	22284
861.123	22063
861.256	22238
861.388	22112
861.521	23010
861.653	22105
861.786	22036
861.918	22040
862.05	22177
862.183	22211
862.315	22177
862.447	22234
862.58	22090
862.712	21964
862.844	21934
862.976	22013
863.108	21975
863.24	22413
863.372	21865
863.504	22025
863.636	21869
863.768	21972
863.9	22010
864.032	21911
864.164	21911
864.296	21945
864.428	21975
864.559	21945
864.691	22097
864.823	21972
864.954	21937
865.086	21907
865.217	21755
865.349	21854
865.48	21774
865.612	21747
865.743	21960
865.875	21831
866.006	21949
866.137	21789
866.269	21876
866.4	21679
866.531	21781
866.662	21717
866.793	21895
866.924	21656
867.055	21747
867.186	21728
867.317	21778
867.448	21663
867.579	21698
867.71	21774
867.841	21713
867.972	21713
868.103	21717
868.233	21717
868.364	21873
868.495	21800
868.625	21915
868.756	22101
868.886	21922
869.017	22010
869.147	22002
869.278	22059
869.408	22021
869.539	21960
869.669	22067
869.799	22051
869.929	22135
870.06	21972
870.19	22299
870.32	22329
870.45	22276
870.58	22356
870.71	22417
870.84	22580
870.97	22242
871.1	22371
871.23	22694
871.36	22497
871.489	22421
871.619	22550
871.749	22702
871.879	22721
872.008	22767
872.138	22611
872.267	22402
872.397	22382
872.526	22363
872.656	22394
872.785	22447
872.915	22580
873.044	22691
873.173	22679
873.303	22710
873.432	22630
873.561	22767
873.69	22641
873.819	22664
873.948	22645
874.077	22630
874.206	22554
874.335	22557
874.464	22786
874.593	22957
874.722	22774
874.851	22934
874.979	22774
875.108	22866
875.237	22740
875.365	22755
875.494	22752
875.623	22778
875.751	22759
875.88	22767
876.008	23041
876.136	23033
876.265	23216
876.393	23296
876.521	23444
876.65	23326
876.778	23258
876.906	23124
877.034	23174
877.162	23200
877.29	23258
877.418	23170
877.546	23132
877.674	23079
877.802	23075
877.93	23239
878.058	23231
878.185	22896
878.313	23094
878.441	23094
878.568	22976
878.696	23140
878.824	23155
878.951	23284
879.079	23425
879.206	23661
879.333	23376
879.461	23216
879.588	23246
879.715	23299
879.842	23478
879.97	23162
880.097	23003
880.224	22987
880.351	22923
880.478	22995
880.605	22942
880.732	23006
880.859	23052
880.986	22930
881.112	22938
881.239	22915
881.366	22687
881.493	22774
881.619	22626
881.746	22538
881.872	22436
881.999	22459
882.125	22519
882.252	22584
882.378	22535
882.505	22664
882.631	22314
882.757	22246
882.883	22318
883.01	22280
883.136	22166
883.262	22101
883.388	21991
883.514	22211
883.64	22306
883.766	22086
883.892	22044
884.018	21983
884.143	22185
884.269	22204
884.395	21915
884.52	21797
884.646	21884
884.772	21724
884.897	21709
885.023	21854
885.148	21934
885.274	22013
885.399	21926
885.524	21934
885.65	21899
885.775	21892
885.9	21892
886.025	21987
886.15	22010
886.275	21781
886.4	21778
886.525	21755
886.65	21751
886.775	21781
886.9	21743
887.025	22109
887.149	21804
887.274	21644
887.399	21633
887.523	21705
887.648	21705
887.773	21599
887.897	21652
888.021	21698
888.146	21511
888.27	21641
888.395	21831
888.519	21705
888.643	21637
888.767	21557
888.891	21568
889.015	21424
889.139	21485
889.263	21393
889.387	21519
889.511	21576
889.635	21663
889.759	21405
889.883	21348
890.006	21374
890.13	21511
890.254	21268
890.377	21344
890.501	21180
890.624	21169
890.748	21272
890.871	21058
890.995	20906
891.118	20899
891.241	20982
891.364	20918
891.488	20998
891.611	20982
891.734	20899
891.857	21100
891.98	20910
892.103	20948
892.226	20925
892.349	20933
892.471	20701
892.594	20864
892.717	20906
892.839	20838
892.962	20872
893.085	20864
893.207	20758
893.33	20758
893.452	20746
893.575	20868
893.697	20807
893.819	20937
893.941	20975
894.064	20982
894.186	20739
894.308	20644
894.43	20944
894.552	21028
894.674	20929
894.796	20807
894.918	20769
895.04	20842
895.161	20925
895.283	20849
895.405	20720
895.526	20815
895.648	20876
895.769	20788
895.891	20834
896.012	20830
896.134	20956
896.255	20845
896.376	20769
896.498	20773
896.619	20864
896.74	20876
896.861	20872
896.982	21142
897.103	21268
897.224	21005
897.345	21017
897.466	20914
897.587	21009
897.708	21036
897.828	21043
897.949	20842
898.07	20979
898.19	20994
898.311	21036
898.431	20948
898.552	21055
898.672	21043
898.792	21108
898.913	21104
899.033	20933
899.153	20914
899.273	20724
899.393	20750
899.513	20758
899.633	20727
899.753	20739
899.873	20750
899.993	20914
900.113	20739
900.232	20705
900.352	20667
900.472	20617
900.591	20575
900.711	20545
900.83	20602
900.95	20644
901.069	20609
901.189	20332
901.308	20233
901.427	20046
901.546	20077
901.665	20191
901.784	20012
901.904	20001
902.023	19879
902.141	19753
902.26	19670
902.379	19715
902.498	19635
902.617	19628
902.735	19734
902.854	19556
902.973	19548
903.091	19270
903.21	19354
903.328	19358
903.446	19251
903.565	19057
903.683	19069
903.801	18954
903.919	19171
904.038	18989
904.156	19004
904.274	18973
904.392	18817
904.51	18802
904.627	18798
904.745	18882
904.863	18947
904.981	18669
905.098	18525
905.216	18536
905.334	18574
905.451	18471
905.569	18422
905.686	18460
905.803	18483
905.921	18353
906.038	18452
906.155	18304
906.272	18209
906.389	18136
906.506	18125
906.623	18076
906.74	17992
906.857	17973
906.974	18045
907.091	18068
907.208	18186
907.324	18095
907.441	17893
907.557	17729
907.674	17855
907.79	17699
907.907	17653
908.023	17695
908.139	17783
908.256	17619
908.372	17596
908.488	17630
908.604	17528
908.72	17482
908.836	17482
908.952	17493
909.068	17512
909.184	17524
909.3	17387
909.415	17478
909.531	17448
909.647	17216
909.762	17193
909.878	17090
909.993	17185
910.108	17147
910.224	17143
910.339	17178
910.454	17048
910.57	16927
910.685	16801
910.8	17124
910.915	17151
911.03	16892
911.145	16774
911.259	16733
911.374	16843
911.489	16592
911.604	16649
911.718	16558
911.833	16512
911.947	16436
912.062	16333
912.176	16523
912.291	16611
912.405	16554
912.519	16569
912.633	16603
912.748	16489
912.862	16428
912.976	16382
913.09	16246
913.204	16299
913.318	16341
913.431	16375
913.545	16470
913.659	16455
913.772	16246
913.886	16044
914	16048
914.113	16226
914.226	16135
914.34	16223
914.453	15949
914.566	16105
914.68	16013
914.793	15876
914.906	15728
915.019	15637
915.132	15625
915.245	15679
915.358	15701
915.47	15705
915.583	15648
915.696	15732
915.809	15755
915.921	15797
916.034	15648
916.146	15530
916.259	15572
916.371	15629
916.483	15618
916.595	15591
916.708	15519
916.82	15538
916.932	15424
917.044	15431
917.156	15519
917.268	15321
917.38	15374
917.491	15294
917.603	15272
917.715	15450
917.826	15492
917.938	15317
918.049	15089
918.161	15184
918.272	15439
918.384	15310
918.495	15222
918.606	15081
918.717	15024
918.828	15081
918.939	15047
919.05	14975
919.161	15081
919.272	14834
919.383	14872
919.494	15142
919.604	15272
919.715	15020
919.826	14937
919.936	14914
920.047	15081
920.157	14944
920.267	15207
920.378	14967
920.488	14918
920.598	15180
920.708	15256
920.818	15116
920.928	15093
921.038	15245
921.148	15279
921.258	15001
921.368	14944
921.477	14765
921.587	14731
921.697	14602
921.806	14678
921.916	14560
922.025	14358
922.134	14427
922.244	14358
922.353	14419
922.462	14301
922.571	14225
922.68	14058
922.789	14062
922.898	14016
923.007	13890
923.116	13993
923.224	13921
923.333	13963
923.442	13875
923.55	13860
923.659	13906
923.767	13837
923.876	13738
923.984	13780
924.092	13753
924.201	13738
924.309	13753
924.417	13753
924.525	13677
924.633	13586
924.741	14476
924.849	13537
924.956	13533
925.064	13457
925.172	13384
925.279	13441
925.387	13449
925.494	13377
925.602	13567
925.709	13381
925.816	13263
925.924	13297
926.031	13377
926.138	13285
926.245	13365
926.352	13259
926.459	13324
926.566	13449
926.673	13152
926.779	13069
926.886	13228
926.993	12981
927.099	12932
927.206	12852
927.312	12863
927.419	12993
927.525	12886
927.631	12932
927.737	12844
927.843	12707
927.95	12654
928.056	12837
928.162	12840
928.267	12875
928.373	13247
928.479	12783
928.585	12642
928.69	12787
928.796	12779
928.901	12578
929.007	12441
929.112	12642
929.218	12585
929.323	12585
929.428	12490
929.533	12601
929.638	12399
929.743	12380
929.848	12471
929.953	12502
930.058	12372
930.163	12129
930.267	12186
930.372	12182
930.477	12148
930.581	12258
930.685	12213
930.79	12049
930.894	12114
930.998	12049
931.103	12091
931.207	11767
931.311	11665
931.415	11619
931.519	11509
931.623	11421
