Data from test_V78500241_2974.txt Node
Date: Fri Mar 25 16:02:24 CST 2022
User: usil
Spectrometer: V785-0024
Trigger mode: 0
Integration Time (sec): 4.000000E-1
Scans to average: 1
Nonlinearity correction enabled: false
Boxcar width: 0
Storing dark spectrum: false
XAxis mode: Wavelengths
Number of Pixels in Spectrum: 1024
>>>>>Begin Spectral Data<<<<<
801.071	27800
801.214	27663
801.356	27504
801.499	27367
801.641	27214
801.783	27203
801.926	27298
802.068	27043
802.211	27093
802.353	27237
802.496	26975
802.638	26872
802.78	26785
802.923	26929
803.065	26819
803.208	26785
803.35	26857
803.492	27051
803.635	27032
803.777	26967
803.919	27074
804.061	27450
804.204	27233
804.346	27062
804.488	26937
804.63	27104
804.773	26948
804.915	27116
805.057	27268
805.199	27119
805.341	27199
805.483	27135
805.626	27245
805.768	27055
805.91	27306
806.052	27268
806.194	27074
806.336	27382
806.478	27291
806.62	27146
806.762	27397
806.904	27534
807.046	27614
807.188	27663
807.33	27606
807.472	27641
807.614	27496
807.756	27580
807.898	27450
808.04	27340
808.182	27397
808.324	27405
808.465	27519
808.607	27644
808.749	27960
808.891	27876
809.033	27941
809.174	27819
809.316	27941
809.458	27785
809.6	27759
809.741	27975
809.883	28044
810.025	28086
810.166	28185
810.308	28120
810.45	28002
810.591	28101
810.733	27941
810.875	27781
811.016	27751
811.158	27739
811.299	27911
811.441	27987
811.582	28021
811.724	27861
811.865	27709
812.007	27865
812.148	27819
812.29	27838
812.431	28029
812.573	28082
812.714	28185
812.855	28287
812.997	28466
813.138	28615
813.279	28401
813.421	28417
813.562	28177
813.703	28177
813.845	28078
813.986	27781
814.127	27599
814.268	27568
814.41	27652
814.551	27507
814.692	27568
814.833	27313
814.974	27481
815.115	27523
815.256	27355
815.397	27340
815.539	27195
815.68	27351
815.821	27241
815.962	27211
816.103	27340
816.244	27199
816.385	27264
816.526	27127
816.666	26902
816.807	26914
816.948	26819
817.089	26944
817.23	26861
817.371	26746
817.512	26796
817.653	26670
817.793	26708
817.934	26796
818.075	26739
818.216	26739
818.356	26735
818.497	26701
818.638	26526
818.778	26434
818.919	26480
819.06	26556
819.2	26587
819.341	26823
819.481	26758
819.622	27020
819.762	27036
819.903	26963
820.043	26944
820.184	26891
820.324	26857
820.465	27047
820.605	26925
820.746	26788
820.886	26925
821.026	26933
821.167	26853
821.307	26834
821.447	26746
821.588	26754
821.728	26545
821.868	26438
822.008	26309
822.149	26278
822.289	26320
822.429	25928
822.569	26035
822.709	25940
822.849	25803
822.99	25765
823.13	25799
823.27	25742
823.41	25609
823.55	25510
823.69	25639
823.83	25601
823.97	25441
824.11	25415
824.25	25377
824.389	25476
824.529	25571
824.669	25430
824.809	25506
824.949	25525
825.089	25559
825.228	25438
825.368	25133
825.508	25251
825.648	25274
825.787	25381
825.927	25301
826.067	25285
826.206	25171
826.346	25384
826.485	25354
826.625	25206
826.765	25289
826.904	25373
827.044	25088
827.183	25103
827.323	24871
827.462	25027
827.601	24981
827.741	24962
827.88	25004
828.02	24928
828.159	24928
828.298	24901
828.437	25095
828.577	24882
828.716	25072
828.855	24905
828.994	24631
829.134	24776
829.273	24730
829.412	24597
829.551	24642
829.69	24642
829.829	24673
829.968	24696
830.107	24779
830.246	24597
830.385	24631
830.524	24471
830.663	24585
830.802	24437
830.941	24308
831.08	24224
831.219	24323
831.357	24388
831.496	24490
831.635	24216
831.774	24266
831.913	24182
832.051	24095
832.19	24091
832.329	24057
832.467	23999
832.606	23893
832.744	23908
832.883	23851
833.022	23885
833.16	24007
833.299	24038
833.437	24083
833.576	24057
833.714	24205
833.852	23958
833.991	24083
834.129	24205
834.267	24190
834.406	24007
834.544	24133
834.682	24026
834.821	23969
834.959	24228
835.097	23920
835.235	24038
835.373	23992
835.511	23954
835.65	23920
835.788	23878
835.926	23859
836.064	23646
836.202	23646
836.34	23935
836.478	24015
836.615	23870
836.753	23935
836.891	24007
837.029	23786
837.167	23760
837.305	23676
837.443	23752
837.58	23710
837.718	23889
837.856	23615
837.993	23596
838.131	23592
838.269	23478
838.406	23691
838.544	23440
838.681	23368
838.819	23299
838.956	23296
839.094	23098
839.231	23189
839.369	23315
839.506	23505
839.643	23398
839.781	23216
839.918	22972
840.055	23216
840.193	23121
840.33	23178
840.467	23105
840.604	23128
840.742	23318
840.879	22927
841.016	23086
841.153	22892
841.29	23242
841.427	23003
841.564	23037
841.701	23105
841.838	23014
841.975	22885
842.112	23090
842.249	22934
842.385	22850
842.522	23159
842.659	23056
842.796	22812
842.933	22797
843.069	22850
843.206	22831
843.343	22793
843.479	22885
843.616	22831
843.752	22668
843.889	22538
844.025	22664
844.162	22691
844.298	22630
844.435	22641
844.571	22592
844.708	22649
844.844	22782
844.98	22752
845.117	22752
845.253	22538
845.389	22653
845.525	22413
845.661	22516
845.798	22352
845.934	22367
846.07	22310
846.206	22333
846.342	22363
846.478	22344
846.614	22154
846.75	22055
846.886	22185
847.022	22150
847.158	22219
847.294	22112
847.429	22215
847.565	22044
847.701	22280
847.837	21743
847.972	21816
848.108	21892
848.244	21876
848.379	21751
848.515	21671
848.65	21690
848.786	21698
848.921	21682
849.057	21770
849.192	21747
849.328	21732
849.463	21705
849.598	21656
849.734	21610
849.869	21424
850.004	21515
850.14	21545
850.275	21504
850.41	21466
850.545	21294
850.68	21431
850.815	21435
850.95	21363
851.085	21599
851.22	21458
851.355	21454
851.49	21477
851.625	21439
851.76	21462
851.895	21412
852.03	21325
852.165	21363
852.299	21454
852.434	21519
852.569	21359
852.703	21473
852.838	21450
852.973	21545
853.107	21542
853.242	21500
853.376	21192
853.511	21203
853.645	21169
853.78	21367
853.914	21313
854.048	21199
854.183	21287
854.317	21306
854.451	21458
854.585	21256
854.72	21226
854.854	21275
854.988	21287
855.122	21207
855.256	21157
855.39	21317
855.524	21275
855.658	21298
855.792	21336
855.926	21340
856.06	21310
856.194	21386
856.327	21241
856.461	21302
856.595	21233
856.729	21165
856.862	21279
856.996	21279
857.13	21348
857.263	21332
857.397	21351
857.53	21218
857.664	21252
857.797	21233
857.931	21382
858.064	21325
858.197	21325
858.331	21123
858.464	21245
858.597	21180
858.731	21279
858.864	21291
858.997	21195
859.13	21363
859.263	21207
859.396	21397
859.529	21275
859.662	21116
859.795	21123
859.928	21287
860.061	21477
860.194	21454
860.327	21332
860.46	21195
860.592	21374
860.725	21431
860.858	21401
860.99	21268
861.123	21119
861.256	21199
861.388	21268
861.521	22032
861.653	21157
861.786	20998
861.918	21074
862.05	21199
862.183	21169
862.315	21329
862.447	21203
862.58	21142
862.712	21055
862.844	21047
862.976	21009
863.108	21093
863.24	21462
863.372	20849
863.504	20948
863.636	20929
863.768	21020
863.9	21013
864.032	20963
864.164	20792
864.296	21074
864.428	20944
864.559	21074
864.691	21058
864.823	21024
864.954	20960
865.086	21058
865.217	20876
865.349	20788
865.48	20899
865.612	20948
865.743	21093
865.875	20963
866.006	20842
866.137	20910
866.269	21005
866.4	20864
866.531	20823
866.662	20880
866.793	20765
866.924	20815
867.055	20823
867.186	20872
867.317	20864
867.448	20682
867.579	20910
867.71	20807
867.841	20739
867.972	20853
868.103	20796
868.233	20842
868.364	20918
868.495	20998
868.625	21173
868.756	21230
868.886	21005
869.017	21055
869.147	21146
869.278	21100
869.408	21146
869.539	21024
869.669	21138
869.799	21081
869.929	21123
870.06	21055
870.19	21374
870.32	21397
870.45	21249
870.58	21561
870.71	21515
870.84	21515
870.97	21469
871.1	21420
871.23	21720
871.36	21526
871.489	21625
871.619	21663
871.749	21595
871.879	21622
872.008	21774
872.138	21705
872.267	21648
872.397	21428
872.526	21523
872.656	21564
872.785	21523
872.915	21739
873.044	21800
873.173	21641
873.303	21770
873.432	21766
873.561	21778
873.69	21561
873.819	21827
873.948	21838
874.077	21793
874.206	21682
874.335	21641
874.464	21682
874.593	21975
874.722	21819
874.851	21964
874.979	21918
875.108	21949
875.237	21854
875.365	21819
875.494	21922
875.623	21945
875.751	21880
875.88	21911
876.008	22074
876.136	22150
876.265	22398
876.393	22344
876.521	22390
876.65	22230
876.778	22341
876.906	22246
877.034	22303
877.162	22295
877.29	22219
877.418	22177
877.546	22280
877.674	22226
877.802	22219
877.93	22253
878.058	22192
878.185	22086
878.313	22211
878.441	22219
878.568	22150
878.696	22029
878.824	22268
878.951	22382
879.079	22356
879.206	22577
879.333	22447
879.461	22333
879.588	22287
879.715	22360
879.842	22561
879.97	22299
880.097	22177
880.224	22219
880.351	22177
880.478	22093
880.605	22143
880.732	22070
880.859	22337
880.986	22200
881.112	22101
881.239	21945
881.366	21808
881.493	21720
881.619	21751
881.746	21629
881.872	21641
881.999	21587
882.125	21587
882.252	21720
882.378	21667
882.505	21812
882.631	21462
882.757	21344
882.883	21477
883.01	21397
883.136	21321
883.262	21233
883.388	21089
883.514	21355
883.64	21401
883.766	21351
883.892	21093
884.018	21192
884.143	21176
884.269	21393
884.395	21104
884.52	21062
884.646	21123
884.772	20941
884.897	20891
885.023	21005
885.148	21142
885.274	21218
885.399	21169
885.524	21009
885.65	21039
885.775	21020
885.9	21062
886.025	21039
886.15	20956
886.275	20891
886.4	21001
886.525	20925
886.65	20887
886.775	20880
886.9	21108
887.025	21249
887.149	20986
887.274	20769
887.399	20902
887.523	20807
887.648	20648
887.773	20606
887.897	20902
888.021	20762
888.146	20659
888.27	20788
888.395	20826
888.519	20762
888.643	20777
888.767	20712
888.891	20712
889.015	20518
889.139	20640
889.263	20530
889.387	20579
889.511	20823
889.635	20781
889.759	20594
889.883	20568
890.006	20488
890.13	20686
890.254	20503
890.377	20503
890.501	20263
890.624	20187
890.748	20404
890.871	20259
890.995	20103
891.118	20062
891.241	20187
891.364	20043
891.488	20259
891.611	20100
891.734	20210
891.857	20225
891.98	20065
892.103	20176
892.226	20103
892.349	20073
892.471	19887
892.594	20065
892.717	20069
892.839	19982
892.962	19951
893.085	20142
893.207	20069
893.33	19871
893.452	19909
893.575	20161
893.697	19970
893.819	20225
893.941	20282
894.064	20248
894.186	19959
894.308	19982
894.43	20195
894.552	20077
894.674	20069
894.796	20005
894.918	19944
895.04	19997
895.161	20176
895.283	20027
895.405	20043
895.526	20012
895.648	20065
895.769	20107
895.891	20100
896.012	20069
896.134	20142
896.255	20069
896.376	20008
896.498	20008
896.619	20069
896.74	20039
896.861	20081
896.982	20343
897.103	20495
897.224	20298
897.345	20221
897.466	20111
897.587	20286
897.708	20351
897.828	20202
897.949	20145
898.07	20149
898.19	20271
898.311	20309
898.431	20149
898.552	20290
898.672	20298
898.792	20419
898.913	20355
899.033	20176
899.153	20183
899.273	19986
899.393	19970
899.513	20043
899.633	20043
899.753	19928
899.873	19925
899.993	20073
900.113	19959
900.232	20103
900.352	19887
900.472	19845
900.591	19761
900.711	19890
900.83	19742
900.95	20035
901.069	19822
901.189	19681
901.308	19556
901.427	19381
901.546	19381
901.665	19468
901.784	19362
901.904	19198
902.023	19179
902.141	18993
902.26	18897
902.379	19099
902.498	18966
902.617	18916
902.735	18981
902.854	19034
902.973	18817
903.091	18673
903.21	18540
903.328	18570
903.446	18509
903.565	18410
903.683	18388
903.801	18391
903.919	18270
904.038	18361
904.156	18197
904.274	18220
904.392	18205
904.51	18079
904.627	18053
904.745	18129
904.863	18155
904.981	18026
905.098	17874
905.216	17729
905.334	17828
905.451	17920
905.569	17863
905.686	17840
905.803	17726
905.921	17627
906.038	17764
906.155	17661
906.272	17600
906.389	17573
906.506	17284
906.623	17345
906.74	17356
906.857	17296
906.974	17280
907.091	17334
907.208	17512
907.324	17345
907.441	17204
907.557	17155
907.674	17109
907.79	17025
907.907	17067
908.023	17151
908.139	17067
908.256	17056
908.372	17079
908.488	16957
908.604	16828
908.72	16710
908.836	16805
908.952	16736
909.068	16763
909.184	16767
909.3	16687
909.415	16755
909.531	16713
909.647	16512
909.762	16470
909.878	16516
909.993	16455
910.108	16519
910.224	16474
910.339	16417
910.454	16382
910.57	16314
910.685	16226
910.8	16497
910.915	16390
911.03	16246
911.145	16006
911.259	16147
911.374	16139
911.489	16040
911.604	15972
911.718	15812
911.833	15797
911.947	15732
912.062	15679
912.176	15819
912.291	15850
912.405	15736
912.519	15994
912.633	16071
912.748	15888
912.862	15823
912.976	15713
913.09	15526
913.204	15599
913.318	15656
913.431	15705
913.545	15663
913.659	15732
913.772	15641
913.886	15370
914	15386
914.113	15500
914.226	15580
914.34	15545
914.453	15260
914.566	15481
914.68	15412
914.793	15340
914.906	15089
915.019	15131
915.132	15055
915.245	15009
915.358	15017
915.47	15005
915.583	15093
915.696	15173
915.809	15256
915.921	15165
916.034	15062
916.146	14960
916.259	15013
916.371	14971
916.483	14990
916.595	14807
916.708	14842
916.82	14864
916.932	14929
917.044	14857
917.156	14758
917.268	14727
917.38	14826
917.491	14746
917.603	14667
917.715	14697
917.826	14724
917.938	14552
918.049	14598
918.161	14743
918.272	14788
918.384	14864
918.495	14621
918.606	14571
918.717	14454
918.828	14568
918.939	14590
919.05	14427
919.161	14393
919.272	14240
919.383	14275
919.494	14488
919.604	14537
919.715	14434
919.826	14434
919.936	14404
920.047	14495
920.157	14366
920.267	14495
920.378	14423
920.488	14473
920.598	14568
920.708	14716
920.818	14644
920.928	14579
921.038	14773
921.148	14701
921.258	14495
921.368	14313
921.477	14187
921.587	14233
921.697	13921
921.806	14221
921.916	14046
922.025	13826
922.134	13890
922.244	13784
922.353	13833
922.462	13712
922.571	13643
922.68	13441
922.789	13407
922.898	13609
923.007	13369
923.116	13468
923.224	13457
923.333	13499
923.442	13327
923.55	13362
923.659	13381
923.767	13343
923.876	13247
923.984	13384
924.092	13202
924.201	13221
924.309	13209
924.417	13183
924.525	13164
924.633	13103
924.741	13997
924.849	12924
924.956	13095
925.064	12871
925.172	12863
925.279	12806
925.387	12882
925.494	12913
925.602	12996
925.709	12905
925.816	12806
925.924	12867
926.031	12916
926.138	12776
926.245	12833
926.352	12760
926.459	12863
926.566	12954
926.673	12757
926.779	12642
926.886	12635
926.993	12506
927.099	12532
927.206	12376
927.312	12407
927.419	12585
927.525	12365
927.631	12422
927.737	12334
927.843	12262
927.95	12190
928.056	12266
928.162	12175
928.267	12353
928.373	12890
928.479	12369
928.585	12098
928.69	12270
928.796	12243
928.901	12194
929.007	11999
929.112	12186
929.218	12163
929.323	12064
929.428	12045
929.533	12159
929.638	11923
929.743	11878
929.848	11973
929.953	11969
930.058	11843
930.163	11604
930.267	11741
930.372	11695
930.477	11611
930.581	11828
930.685	11699
930.79	11573
930.894	11672
930.998	11596
931.103	11752
931.207	11368
931.311	11250
931.415	11212
931.519	10915
931.623	10976
