Data from test_V78500241_2403.txt Node
Date: Fri Mar 25 15:58:26 CST 2022
User: usil
Spectrometer: V785-0024
Trigger mode: 0
Integration Time (sec): 4.000000E-1
Scans to average: 1
Nonlinearity correction enabled: false
Boxcar width: 0
Storing dark spectrum: false
XAxis mode: Wavelengths
Number of Pixels in Spectrum: 1024
>>>>>Begin Spectral Data<<<<<
801.071	28337
801.214	28192
801.356	28074
801.499	27983
801.641	27903
801.783	27755
801.926	27895
802.068	27846
802.211	27766
802.353	27728
802.496	27553
802.638	27530
802.78	27530
802.923	27507
803.065	27268
803.208	27386
803.35	27538
803.492	27679
803.635	27755
803.777	27530
803.919	27789
804.061	28112
804.204	27785
804.346	27800
804.488	27641
804.63	27770
804.773	27629
804.915	27797
805.057	27953
805.199	27694
805.341	27766
805.483	27953
805.626	27869
805.768	27656
805.91	27914
806.052	27827
806.194	27823
806.336	28112
806.478	27884
806.62	27922
806.762	27968
806.904	28196
807.046	28440
807.188	28367
807.33	28242
807.472	28382
807.614	28344
807.756	28314
807.898	28188
808.04	28128
808.182	28063
808.324	28303
808.465	28329
808.607	28455
808.749	28493
808.891	28664
809.033	28580
809.174	28622
809.316	28557
809.458	28527
809.6	28329
809.741	28554
809.883	28740
810.025	28755
810.166	28927
810.308	28725
810.45	28725
810.591	28478
810.733	28740
810.875	28523
811.016	28519
811.158	28478
811.299	28561
811.441	28664
811.582	28736
811.724	28386
811.865	28519
812.007	28554
812.148	28386
812.29	28531
812.431	28592
812.573	28790
812.714	28866
812.855	29056
812.997	29147
813.138	29364
813.279	29071
813.421	29033
813.562	28934
813.703	28866
813.845	28599
813.986	28447
814.127	28398
814.268	28341
814.41	28295
814.551	28105
814.692	28204
814.833	28124
814.974	28109
815.115	28139
815.256	28051
815.397	28086
815.539	28143
815.68	28097
815.821	28010
815.962	28051
816.103	28070
816.244	27823
816.385	27819
816.526	27861
816.666	27698
816.807	27542
816.948	27545
817.089	27568
817.23	27401
817.371	27504
817.512	27458
817.653	27485
817.793	27424
817.934	27443
818.075	27553
818.216	27515
818.356	27374
818.497	27530
818.638	27233
818.778	27260
818.919	27298
819.06	27329
819.2	27408
819.341	27595
819.481	27511
819.622	27519
819.762	27880
819.903	27895
820.043	27705
820.184	27690
820.324	27698
820.465	27724
820.605	27679
820.746	27652
820.886	27477
821.026	27652
821.167	27542
821.307	27633
821.447	27408
821.588	27458
821.728	27397
821.868	27100
822.008	27199
822.149	27096
822.289	27005
822.429	26701
822.569	26674
822.709	26815
822.849	26488
822.99	26606
823.13	26602
823.27	26526
823.41	26244
823.55	26339
823.69	26313
823.83	26412
823.97	26343
824.11	26183
824.25	26221
824.389	26294
824.529	26263
824.669	26130
824.809	26309
824.949	26218
825.089	26142
825.228	26183
825.368	26005
825.508	26008
825.648	26012
825.787	26027
825.927	26088
826.067	25940
826.206	26046
826.346	26100
826.485	26005
826.625	25868
826.765	26225
826.904	26050
827.044	25837
827.183	25727
827.323	25818
827.462	25674
827.601	25674
827.741	25655
827.88	25746
828.02	25658
828.159	25719
828.298	25693
828.437	25780
828.577	25651
828.716	25788
828.855	25578
828.994	25339
829.134	25396
829.273	25575
829.412	25373
829.551	25327
829.69	25521
829.829	25373
829.968	25518
830.107	25479
830.246	25396
830.385	25479
830.524	25350
830.663	25346
830.802	25057
830.941	25050
831.08	25042
831.219	25072
831.357	24985
831.496	25285
831.635	25072
831.774	24947
831.913	24856
832.051	24802
832.19	24696
832.329	24757
832.467	24730
832.606	24719
832.744	24559
832.883	24817
833.022	24692
833.16	24601
833.299	24601
833.437	24681
833.576	24878
833.714	24726
833.852	24894
833.991	24795
834.129	24764
834.267	24703
834.406	24688
834.544	24734
834.682	24768
834.821	24734
834.959	24913
835.097	24673
835.235	24909
835.373	24696
835.511	24654
835.65	24540
835.788	24593
835.926	24410
836.064	24338
836.202	24498
836.34	24494
836.478	24620
836.615	24483
836.753	24471
836.891	24623
837.029	24582
837.167	24490
837.305	24521
837.443	24498
837.58	24384
837.718	24391
837.856	24490
837.993	24228
838.131	24334
838.269	24350
838.406	24239
838.544	24273
838.681	24194
838.819	24038
838.956	23908
839.094	23836
839.231	23908
839.369	24095
839.506	24266
839.643	24129
839.781	23851
839.918	23817
840.055	23901
840.193	23885
840.33	23866
840.467	23790
840.604	23817
840.742	24034
840.879	23722
841.016	23741
841.153	23604
841.29	23794
841.427	23794
841.564	23832
841.701	23756
841.838	23676
841.975	23687
842.112	23703
842.249	23604
842.385	23436
842.522	23771
842.659	23691
842.796	23524
842.933	23478
843.069	23463
843.206	23410
843.343	23535
843.479	23547
843.616	23604
843.752	23254
843.889	23277
844.025	23570
844.162	23204
844.298	23417
844.435	23307
844.571	23334
844.708	23292
844.844	23368
844.98	23474
845.117	23391
845.253	23292
845.389	23140
845.525	23174
845.661	23086
845.798	22995
845.934	22961
846.07	23029
846.206	23102
846.342	23117
846.478	22965
846.614	22900
846.75	22713
846.886	22828
847.022	22729
847.158	22771
847.294	22805
847.429	22862
847.565	22755
847.701	22991
847.837	22481
847.972	22432
848.108	22500
848.244	22474
848.379	22421
848.515	22375
848.65	22295
848.786	22230
848.921	22386
849.057	22580
849.192	22421
849.328	22367
849.463	22314
849.598	22192
849.734	22207
849.869	22371
850.004	22063
850.14	22329
850.275	22185
850.41	22013
850.545	21991
850.68	22097
850.815	22246
850.95	22105
851.085	22325
851.22	22204
851.355	22158
851.49	22082
851.625	22177
851.76	22051
851.895	22013
852.03	21994
852.165	22204
852.299	22109
852.434	22261
852.569	22101
852.703	22188
852.838	22112
852.973	22253
853.107	22219
853.242	21968
853.376	21975
853.511	21759
853.645	21937
853.78	22032
853.914	21926
854.048	21888
854.183	21907
854.317	21918
854.451	22219
854.585	21941
854.72	22002
854.854	21994
854.988	21808
855.122	21831
855.256	21827
855.39	22036
855.524	21987
855.658	22010
855.792	21915
855.926	21888
856.06	21953
856.194	22044
856.327	21941
856.461	22044
856.595	21903
856.729	21850
856.862	21953
856.996	21987
857.13	22097
857.263	22002
857.397	22036
857.53	21911
857.664	22063
857.797	21998
857.931	22074
858.064	21846
858.197	21945
858.331	21865
858.464	21884
858.597	21800
858.731	21857
858.864	21907
858.997	21960
859.13	21926
859.263	21994
859.396	22063
859.529	21941
859.662	21922
859.795	21728
859.928	21903
860.061	21998
860.194	22105
860.327	21968
860.46	22017
860.592	21991
860.725	21991
860.858	22169
860.99	21949
861.123	21937
861.256	21930
861.388	21949
861.521	22634
861.653	21778
861.786	21705
861.918	21781
862.05	21816
862.183	21888
862.315	21857
862.447	21884
862.58	21930
862.712	21701
862.844	21675
862.976	21679
863.108	21720
863.24	22154
863.372	21515
863.504	21576
863.636	21751
863.768	21633
863.9	21648
864.032	21572
864.164	21564
864.296	21671
864.428	21857
864.559	21709
864.691	21751
864.823	21606
864.954	21610
865.086	21663
865.217	21652
865.349	21355
865.48	21523
865.612	21519
865.743	21633
865.875	21679
866.006	21519
866.137	21591
866.269	21587
866.4	21462
866.531	21389
866.662	21386
866.793	21504
866.924	21564
867.055	21431
867.186	21511
867.317	21359
867.448	21287
867.579	21549
867.71	21351
867.841	21325
867.972	21511
868.103	21496
868.233	21545
868.364	21485
868.495	21622
868.625	21747
868.756	21660
868.886	21724
869.017	21781
869.147	21774
869.278	21823
869.408	21751
869.539	21736
869.669	21781
869.799	21675
869.929	21800
870.06	21838
870.19	21930
870.32	21968
870.45	22055
870.58	22059
870.71	22177
870.84	22143
870.97	22093
871.1	22082
871.23	22238
871.36	22276
871.489	22177
871.619	22386
871.749	22230
871.879	22265
872.008	22371
872.138	22257
872.267	22306
872.397	22276
872.526	22261
872.656	22284
872.785	22135
872.915	22344
873.044	22432
873.173	22344
873.303	22303
873.432	22390
873.561	22440
873.69	22310
873.819	22386
873.948	22398
874.077	22295
874.206	22276
874.335	22295
874.464	22497
874.593	22611
874.722	22432
874.851	22523
874.979	22512
875.108	22637
875.237	22607
875.365	22451
875.494	22694
875.623	22592
875.751	22478
875.88	22626
876.008	22653
876.136	22668
876.265	22949
876.393	23083
876.521	23029
876.65	23022
876.778	22942
876.906	22847
877.034	22866
877.162	22976
877.29	22850
877.418	22904
877.546	22755
877.674	22805
877.802	22885
877.93	22949
878.058	22881
878.185	22790
878.313	22801
878.441	22961
878.568	22771
878.696	22824
878.824	22908
878.951	22976
879.079	23071
879.206	23246
879.333	23025
879.461	22972
879.588	22999
879.715	22930
879.842	23162
879.97	22946
880.097	22771
880.224	22710
880.351	22812
880.478	22717
880.605	22653
880.732	22630
880.859	22972
880.986	22774
881.112	22877
881.239	22493
881.366	22470
881.493	22489
881.619	22185
881.746	22303
881.872	22299
881.999	22226
882.125	22143
882.252	22333
882.378	22120
882.505	22455
882.631	22017
882.757	22112
882.883	22143
883.01	21892
883.136	21895
883.262	21934
883.388	21816
883.514	21964
883.64	21964
883.766	21797
883.892	21564
884.018	21800
884.143	21907
884.269	21979
884.395	21720
884.52	21488
884.646	21583
884.772	21564
884.897	21408
885.023	21618
885.148	21770
885.274	21819
885.399	21724
885.524	21549
885.65	21606
885.775	21542
885.9	21511
886.025	21759
886.15	21686
886.275	21610
886.4	21572
886.525	21466
886.65	21580
886.775	21530
886.9	21622
887.025	21751
887.149	21538
887.274	21439
887.399	21420
887.523	21408
887.648	21310
887.773	21298
887.897	21511
888.021	21443
888.146	21252
888.27	21443
888.395	21477
888.519	21454
888.643	21431
888.767	21420
888.891	21374
889.015	21176
889.139	21359
889.263	21135
889.387	21283
889.511	21344
889.635	21298
889.759	21062
889.883	21085
890.006	21264
890.13	21207
890.254	21047
890.377	21093
890.501	20857
890.624	20876
890.748	21043
890.871	20834
890.995	20655
891.118	20762
891.241	20686
891.364	20819
891.488	20906
891.611	20785
891.734	20750
891.857	20739
891.98	20716
892.103	20636
892.226	20716
892.349	20754
892.471	20503
892.594	20644
892.717	20705
892.839	20701
892.962	20602
893.085	20682
893.207	20629
893.33	20518
893.452	20522
893.575	20598
893.697	20556
893.819	20720
893.941	20758
894.064	20674
894.186	20598
894.308	20617
894.43	20750
894.552	20864
894.674	20785
894.796	20514
894.918	20667
895.04	20507
895.161	20617
895.283	20606
895.405	20533
895.526	20560
895.648	20579
895.769	20560
895.891	20720
896.012	20788
896.134	20598
896.255	20606
896.376	20507
896.498	20674
896.619	20549
896.74	20556
896.861	20499
896.982	20918
897.103	21024
897.224	20826
897.345	20765
897.466	20682
897.587	20769
897.708	20925
897.828	20853
897.949	20788
898.07	20674
898.19	20731
898.311	20906
898.431	20693
898.552	20785
898.672	20876
898.792	20872
898.913	20804
899.033	20686
899.153	20648
899.273	20522
899.393	20442
899.513	20617
899.633	20465
899.753	20530
899.873	20434
899.993	20571
900.113	20457
900.232	20484
900.352	20461
900.472	20412
900.591	20259
900.711	20400
900.83	20275
900.95	20579
901.069	20473
901.189	20275
901.308	20058
901.427	19902
901.546	19925
901.665	19894
901.784	19982
901.904	19814
902.023	19742
902.141	19438
902.26	19476
902.379	19563
902.498	19430
902.617	19312
902.735	19339
902.854	19369
902.973	19324
903.091	19110
903.21	19133
903.328	19103
903.446	18920
903.565	18928
903.683	18871
903.801	18802
903.919	18833
904.038	18722
904.156	18745
904.274	18741
904.392	18711
904.51	18642
904.627	18563
904.745	18608
904.863	18677
904.981	18578
905.098	18308
905.216	18365
905.334	18334
905.451	18213
905.569	18300
905.686	18380
905.803	18243
905.921	18110
906.038	18194
906.155	18102
906.272	18068
906.389	18049
906.506	17863
906.623	17912
906.74	17836
906.857	17680
906.974	17748
907.091	17939
907.208	17969
907.324	17775
907.441	17748
907.557	17551
907.674	17543
907.79	17493
907.907	17528
908.023	17672
908.139	17589
908.256	17433
908.372	17402
908.488	17425
908.604	17254
908.72	17117
908.836	17307
908.952	17239
909.068	17326
909.184	17337
909.3	17277
909.415	17231
909.531	17254
909.647	17045
909.762	17006
909.878	16976
909.993	16862
910.108	16896
910.224	16847
910.339	16961
910.454	16782
910.57	16729
910.685	16694
910.8	17025
910.915	16896
911.03	16691
911.145	16493
911.259	16519
911.374	16497
911.489	16512
911.604	16440
911.718	16219
911.833	16295
911.947	16211
912.062	16188
912.176	16234
912.291	16287
912.405	16344
912.519	16527
912.633	16497
912.748	16363
912.862	16268
912.976	16147
913.09	16029
913.204	16074
913.318	16051
913.431	16188
913.545	16116
913.659	16207
913.772	16082
913.886	15861
914	15941
914.113	15964
914.226	16006
914.34	15979
914.453	15819
914.566	15983
914.68	15705
914.793	15686
914.906	15591
915.019	15542
915.132	15424
915.245	15428
915.358	15500
915.47	15530
915.583	15477
915.696	15553
915.809	15504
915.921	15553
916.034	15443
916.146	15306
916.259	15363
916.371	15382
916.483	15412
916.595	15359
916.708	15378
916.82	15264
916.932	15207
917.044	15302
917.156	15207
917.268	15188
917.38	15135
917.491	15135
917.603	15142
917.715	15275
917.826	15203
917.938	15165
918.049	14921
918.161	15070
918.272	15218
918.384	15184
918.495	14963
918.606	14975
918.717	14807
918.828	14979
918.939	14830
919.05	14804
919.161	14937
919.272	14693
919.383	14731
919.494	14952
919.604	15047
919.715	14819
919.826	14777
919.936	14891
920.047	14845
920.157	14845
920.267	15032
920.378	14895
920.488	14811
920.598	14948
920.708	15157
920.818	15093
920.928	15036
921.038	15157
921.148	15093
921.258	14823
921.368	14655
921.477	14568
921.587	14594
921.697	14533
921.806	14522
921.916	14396
922.025	14225
922.134	14225
922.244	14214
922.353	14244
922.462	14157
922.571	14084
922.68	13936
922.789	13883
922.898	13951
923.007	13890
923.116	13902
923.224	13868
923.333	13879
923.442	13712
923.55	13723
923.659	13746
923.767	13791
923.876	13715
923.984	13780
924.092	13597
924.201	13655
924.309	13636
924.417	13666
924.525	13559
924.633	13563
924.741	14317
924.849	13430
924.956	13571
925.064	13331
925.172	13152
925.279	13194
925.387	13266
925.494	13419
925.602	13426
925.709	13430
925.816	13206
925.924	13232
926.031	13266
926.138	13171
926.245	13206
926.352	13122
926.459	13350
926.566	13244
926.673	13084
926.779	13015
926.886	12882
926.993	12920
927.099	12871
927.206	12757
927.312	12669
927.419	12848
927.525	12779
927.631	12848
927.737	12753
927.843	12692
927.95	12559
928.056	12582
928.162	12662
928.267	12642
928.373	13411
928.479	12806
928.585	12521
928.69	12669
928.796	12616
928.901	12498
929.007	12395
929.112	12517
929.218	12448
929.323	12445
929.428	12456
929.533	12563
929.638	12300
929.743	12296
929.848	12350
929.953	12334
930.058	12270
930.163	12003
930.267	12079
930.372	12186
930.477	11988
930.581	12338
930.685	12019
930.79	11923
930.894	11984
930.998	11923
931.103	12045
931.207	11699
931.311	11608
931.415	11482
931.519	11326
931.623	11311
