Data from test_V78500241_2945.txt Node
Date: Fri Mar 25 16:02:12 CST 2022
User: usil
Spectrometer: V785-0024
Trigger mode: 0
Integration Time (sec): 4.000000E-1
Scans to average: 1
Nonlinearity correction enabled: false
Boxcar width: 0
Storing dark spectrum: false
XAxis mode: Wavelengths
Number of Pixels in Spectrum: 1024
>>>>>Begin Spectral Data<<<<<
801.071	28809
801.214	28740
801.356	28550
801.499	28485
801.641	28447
801.783	28405
801.926	28546
802.068	28284
802.211	28287
802.353	28226
802.496	28124
802.638	28150
802.78	27865
802.923	28006
803.065	27941
803.208	28017
803.35	28074
803.492	28192
803.635	28325
803.777	28276
803.919	28215
804.061	28599
804.204	28371
804.346	28272
804.488	28322
804.63	28303
804.773	28276
804.915	28405
805.057	28360
805.199	28284
805.341	28284
805.483	28580
805.626	28535
805.768	28466
805.91	28337
806.052	28546
806.194	28474
806.336	28683
806.478	28493
806.62	28459
806.762	28622
806.904	28782
807.046	29102
807.188	28919
807.33	28888
807.472	29052
807.614	28904
807.756	28953
807.898	28702
808.04	28771
808.182	28752
808.324	28782
808.465	28892
808.607	29060
808.749	29151
808.891	29197
809.033	29455
809.174	29269
809.316	29189
809.458	29181
809.6	29033
809.741	29250
809.883	29414
810.025	29543
810.166	29463
810.308	29425
810.45	29395
810.591	29353
810.733	29250
810.875	29326
811.016	29083
811.158	29155
811.299	29258
811.441	29368
811.582	29311
811.724	29239
811.865	29159
812.007	29265
812.148	29246
812.29	29155
812.431	29273
812.573	29410
812.714	29718
812.855	29729
812.997	30011
813.138	30030
813.279	29737
813.421	29642
813.562	29653
813.703	29547
813.845	29398
813.986	29094
814.127	28934
814.268	28927
814.41	28847
814.551	28972
814.692	28873
814.833	28786
814.974	28854
815.115	28923
815.256	28786
815.397	28763
815.539	28850
815.68	28812
815.821	28561
815.962	28839
816.103	28656
816.244	28637
816.385	28504
816.526	28569
816.666	28371
816.807	28230
816.948	28238
817.089	28318
817.23	28211
817.371	28192
817.512	28185
817.653	28299
817.793	28246
817.934	28257
818.075	28280
818.216	28265
818.356	28200
818.497	28078
818.638	28074
818.778	28040
818.919	27964
819.06	28063
819.2	28112
819.341	28318
819.481	28295
819.622	28466
819.762	28596
819.903	28455
820.043	28443
820.184	28360
820.324	28322
820.465	28367
820.605	28341
820.746	28348
820.886	28303
821.026	28295
821.167	28211
821.307	28257
821.447	28200
821.588	28188
821.728	28002
821.868	27857
822.008	27838
822.149	27557
822.289	27641
822.429	27492
822.569	27462
822.709	27321
822.849	27412
822.99	27310
823.13	27199
823.27	27112
823.41	27077
823.55	27036
823.69	27093
823.83	26967
823.97	27154
824.11	26887
824.25	26933
824.389	26940
824.529	26906
824.669	26864
824.809	26906
824.949	26876
825.089	26986
825.228	26830
825.368	26609
825.508	26758
825.648	26891
825.787	26918
825.927	26887
826.067	26823
826.206	26693
826.346	26754
826.485	26629
826.625	26769
826.765	26773
826.904	26849
827.044	26579
827.183	26629
827.323	26530
827.462	26480
827.601	26434
827.741	26457
827.88	26499
828.02	26396
828.159	26412
828.298	26587
828.437	26716
828.577	26358
828.716	26499
828.855	26347
828.994	26164
829.134	26134
829.273	26206
829.412	26187
829.551	26054
829.69	26187
829.829	26115
829.968	26237
830.107	26294
830.246	26172
830.385	26092
830.524	26054
830.663	25909
830.802	25830
830.941	25822
831.08	25860
831.219	25807
831.357	25715
831.496	25959
831.635	25734
831.774	25643
831.913	25529
832.051	25571
832.19	25441
832.329	25578
832.467	25468
832.606	25320
832.744	25396
832.883	25483
833.022	25377
833.16	25415
833.299	25479
833.437	25483
833.576	25373
833.714	25495
833.852	25559
833.991	25624
834.129	25609
834.267	25655
834.406	25529
834.544	25556
834.682	25521
834.821	25525
834.959	25738
835.097	25419
835.235	25624
835.373	25537
835.511	25426
835.65	25373
835.788	25419
835.926	25175
836.064	25152
836.202	25069
836.34	25278
836.478	25506
836.615	25327
836.753	25282
836.891	25240
837.029	25358
837.167	25339
837.305	25160
837.443	25400
837.58	25084
837.718	25217
837.856	25285
837.993	25080
838.131	25137
838.269	25015
838.406	24951
838.544	24882
838.681	24783
838.819	24703
838.956	24684
839.094	24601
839.231	24627
839.369	24802
839.506	25084
839.643	24821
839.781	24764
839.918	24620
840.055	24525
840.193	24631
840.33	24528
840.467	24505
840.604	24551
840.742	24722
840.879	24376
841.016	24407
841.153	24479
841.29	24532
841.427	24502
841.564	24722
841.701	24456
841.838	24308
841.975	24483
842.112	24388
842.249	24251
842.385	24228
842.522	24445
842.659	24399
842.796	24152
842.933	24235
843.069	24251
843.206	24247
843.343	24285
843.479	24292
843.616	24239
843.752	24098
843.889	24125
844.025	24117
844.162	23942
844.298	24182
844.435	24110
844.571	24041
844.708	24083
844.844	24110
844.98	24144
845.117	24136
845.253	24022
845.389	23817
845.525	24003
845.661	23817
845.798	23733
845.934	23866
846.07	23748
846.206	23767
846.342	23954
846.478	23783
846.614	23611
846.75	23539
846.886	23486
847.022	23402
847.158	23619
847.294	23490
847.429	23547
847.565	23490
847.701	23729
847.837	23174
847.972	23235
848.108	23345
848.244	23315
848.379	23273
848.515	23041
848.65	23124
848.786	23117
848.921	23090
849.057	23113
849.192	23151
849.328	23094
849.463	23075
849.598	23094
849.734	23033
849.869	22995
850.004	22824
850.14	22885
850.275	22850
850.41	22713
850.545	22877
850.68	22740
850.815	22797
850.95	22873
851.085	22942
851.22	23006
851.355	22843
851.49	22831
851.625	22835
851.76	22820
851.895	22744
852.03	22839
852.165	22873
852.299	22828
852.434	22923
852.569	22923
852.703	22946
852.838	22889
852.973	22999
853.107	22984
853.242	22820
853.376	22645
853.511	22626
853.645	22637
853.78	22729
853.914	22710
854.048	22820
854.183	22672
854.317	22729
854.451	22820
854.585	22835
854.72	22618
854.854	22805
854.988	22630
855.122	22740
855.256	22478
855.39	22694
855.524	22801
855.658	22755
855.792	22626
855.926	22668
856.06	22710
856.194	22774
856.327	22721
856.461	22713
856.595	22596
856.729	22649
856.862	22850
856.996	22763
857.13	22733
857.263	22881
857.397	22820
857.53	22706
857.664	22736
857.797	22877
857.931	22752
858.064	22809
858.197	22793
858.331	22710
858.464	22565
858.597	22611
858.731	22698
858.864	22519
858.997	22615
859.13	22649
859.263	22744
859.396	22843
859.529	22675
859.662	22675
859.795	22596
859.928	22767
860.061	22873
860.194	22862
860.327	22710
860.46	22675
860.592	22687
860.725	22889
860.858	22904
860.99	22683
861.123	22538
861.256	22607
861.388	22744
861.521	23459
861.653	22577
861.786	22508
861.918	22459
862.05	22497
862.183	22687
862.315	22645
862.447	22664
862.58	22508
862.712	22447
862.844	22398
862.976	22584
863.108	22421
863.24	22934
863.372	22318
863.504	22287
863.636	22306
863.768	22421
863.9	22417
864.032	22272
864.164	22398
864.296	22398
864.428	22443
864.559	22455
864.691	22455
864.823	22485
864.954	22226
865.086	22348
865.217	22299
865.349	22105
865.48	22242
865.612	22200
865.743	22394
865.875	22310
866.006	22181
866.137	22211
866.269	22242
866.4	22287
866.531	22261
866.662	22105
866.793	22139
866.924	22226
867.055	22067
867.186	22310
867.317	22131
867.448	22268
867.579	22226
867.71	22242
867.841	22207
867.972	22158
868.103	22158
868.233	22128
868.364	22192
868.495	22382
868.625	22497
868.756	22523
868.886	22360
869.017	22379
869.147	22561
869.278	22565
869.408	22356
869.539	22306
869.669	22542
869.799	22466
869.929	22538
870.06	22512
870.19	22717
870.32	22740
870.45	22767
870.58	22835
870.71	22790
870.84	22896
870.97	22850
871.1	22816
871.23	22968
871.36	23033
871.489	22927
871.619	23003
871.749	23102
871.879	23124
872.008	23162
872.138	23052
872.267	23113
872.397	22911
872.526	22961
872.656	22923
872.785	22923
872.915	22984
873.044	23178
873.173	22965
873.303	23060
873.432	23098
873.561	23170
873.69	23060
873.819	23025
873.948	23132
874.077	23056
874.206	23064
874.335	23041
874.464	23113
874.593	23311
874.722	23189
874.851	23318
874.979	23258
875.108	23395
875.237	23181
875.365	23132
875.494	23360
875.623	23269
875.751	23216
875.88	23284
876.008	23512
876.136	23493
876.265	23634
876.393	23764
876.521	23695
876.65	23668
876.778	23585
876.906	23638
877.034	23589
877.162	23630
877.29	23577
877.418	23471
877.546	23646
877.674	23474
877.802	23448
877.93	23501
878.058	23493
878.185	23493
878.313	23505
878.441	23501
878.568	23417
878.696	23512
878.824	23684
878.951	23676
879.079	23821
879.206	23946
879.333	23737
879.461	23562
879.588	23764
879.715	23691
879.842	23840
879.97	23672
880.097	23376
880.224	23387
880.351	23433
880.478	23478
880.605	23376
880.732	23543
880.859	23573
880.986	23410
881.112	23303
881.239	23250
881.366	23048
881.493	22984
881.619	22965
881.746	23056
881.872	22938
881.999	22930
882.125	22957
882.252	23105
882.378	23025
882.505	23159
882.631	22809
882.757	22748
882.883	22744
883.01	22759
883.136	22516
883.262	22508
883.388	22504
883.514	22687
883.64	22679
883.766	22561
883.892	22348
884.018	22428
884.143	22622
884.269	22774
884.395	22375
884.52	22246
884.646	22333
884.772	22253
884.897	22219
885.023	22489
885.148	22363
885.274	22500
885.399	22455
885.524	22295
885.65	22325
885.775	22348
885.9	22341
886.025	22443
886.15	22306
886.275	22318
886.4	22192
886.525	22329
886.65	22261
886.775	22325
886.9	22493
887.025	22413
887.149	22177
887.274	22131
887.399	22078
887.523	22105
887.648	21991
887.773	22048
887.897	22150
888.021	21994
888.146	21930
888.27	22177
888.395	22044
888.519	22090
888.643	22021
888.767	22013
888.891	21930
889.015	21823
889.139	21827
889.263	21724
889.387	21968
889.511	22150
889.635	22032
889.759	21778
889.883	21865
890.006	21869
890.13	21899
890.254	21781
890.377	21705
890.501	21599
890.624	21610
890.748	21709
890.871	21538
890.995	21420
891.118	21268
891.241	21454
891.364	21405
891.488	21500
891.611	21420
891.734	21435
891.857	21447
891.98	21450
892.103	21401
892.226	21469
892.349	21367
892.471	21138
892.594	21363
892.717	21378
892.839	21325
892.962	21317
893.085	21332
893.207	21321
893.33	21096
893.452	21249
893.575	21279
893.697	21317
893.819	21481
893.941	21504
894.064	21374
894.186	21214
894.308	21245
894.43	21401
894.552	21332
894.674	21279
894.796	21161
894.918	21241
895.04	21199
895.161	21344
895.283	21294
895.405	21184
895.526	21077
895.648	21241
895.769	21298
895.891	21310
896.012	21351
896.134	21351
896.255	21275
896.376	21127
896.498	21226
896.619	21279
896.74	21275
896.861	21408
896.982	21500
897.103	21732
897.224	21515
897.345	21412
897.466	21378
897.587	21420
897.708	21625
897.828	21473
897.949	21386
898.07	21393
898.19	21359
898.311	21428
898.431	21370
898.552	21416
898.672	21599
898.792	21545
898.913	21496
899.033	21332
899.153	21245
899.273	21070
899.393	21062
899.513	21142
899.633	21119
899.753	21241
899.873	20982
899.993	21131
900.113	21093
900.232	21207
900.352	20998
900.472	21047
900.591	20819
900.711	20971
900.83	20861
900.95	21074
901.069	20982
901.189	20838
901.308	20594
901.427	20461
901.546	20590
901.665	20556
901.784	20602
901.904	20286
902.023	20142
902.141	20058
902.26	20065
902.379	20031
902.498	19841
902.617	19917
902.735	19951
902.854	20065
902.973	19940
903.091	19693
903.21	19681
903.328	19586
903.446	19521
903.565	19533
903.683	19460
903.801	19384
903.919	19457
904.038	19392
904.156	19316
904.274	19377
904.392	19324
904.51	19179
904.627	19285
904.745	19221
904.863	19213
904.981	19012
905.098	18932
905.216	18985
905.334	18920
905.451	18951
905.569	18749
905.686	18951
905.803	18859
905.921	18692
906.038	18825
906.155	18681
906.272	18722
906.389	18620
906.506	18418
906.623	18460
906.74	18399
906.857	18357
906.974	18475
907.091	18365
907.208	18540
907.324	18479
907.441	18224
907.557	18155
907.674	18243
907.79	18030
907.907	18133
908.023	18140
908.139	18125
908.256	18049
908.372	17973
908.488	17946
908.604	17927
908.72	17783
908.836	17908
908.952	17843
909.068	17870
909.184	17908
909.3	17786
909.415	17828
909.531	17783
909.647	17627
909.762	17634
909.878	17493
909.993	17577
910.108	17490
910.224	17585
910.339	17497
910.454	17318
910.57	17345
910.685	17254
910.8	17551
910.915	17410
911.03	17330
911.145	17060
911.259	17132
911.374	17128
911.489	17041
911.604	16953
911.718	16927
911.833	16835
911.947	16733
912.062	16679
912.176	16881
912.291	16946
912.405	16797
912.519	17045
912.633	16934
912.748	16755
912.862	16771
912.976	16630
913.09	16432
913.204	16611
913.318	16736
913.431	16744
913.545	16774
913.659	16736
913.772	16615
913.886	16398
914	16470
914.113	16558
914.226	16641
914.34	16599
914.453	16333
914.566	16432
914.68	16337
914.793	16299
914.906	16120
915.019	16017
915.132	16025
915.245	16010
915.358	15979
915.47	16059
915.583	15937
915.696	16082
915.809	16090
915.921	16162
916.034	15953
916.146	15880
916.259	15846
916.371	15956
916.483	15899
916.595	15724
916.708	15895
916.82	15823
916.932	15857
917.044	15732
917.156	15694
917.268	15671
917.38	15709
917.491	15656
917.603	15553
917.715	15584
917.826	15732
917.938	15587
918.049	15496
918.161	15641
918.272	15793
918.384	15739
918.495	15603
918.606	15458
918.717	15233
918.828	15435
918.939	15325
919.05	15279
919.161	15401
919.272	15131
919.383	15192
919.494	15435
919.604	15469
919.715	15344
919.826	15230
919.936	15298
920.047	15279
920.157	15332
920.267	15492
920.378	15336
920.488	15272
920.598	15511
920.708	15648
920.818	15458
920.928	15408
921.038	15660
921.148	15458
921.258	15275
921.368	15165
921.477	15024
921.587	15005
921.697	14864
921.806	15089
921.916	14853
922.025	14765
922.134	14697
922.244	14701
922.353	14750
922.462	14613
922.571	14503
922.68	14286
922.789	14343
922.898	14423
923.007	14286
923.116	14313
923.224	14240
923.333	14240
923.442	14180
923.55	14123
923.659	14084
923.767	14134
923.876	14130
923.984	14073
924.092	14008
924.201	13986
924.309	14039
924.417	14084
924.525	13936
924.633	13940
924.741	14925
924.849	13765
924.956	13887
925.064	13658
925.172	13616
925.279	13578
925.387	13655
925.494	13731
925.602	13742
925.709	13708
925.816	13540
925.924	13575
926.031	13746
926.138	13723
926.245	13647
926.352	13590
926.459	13590
926.566	13708
926.673	13510
926.779	13392
926.886	13381
926.993	13289
927.099	13175
927.206	13114
927.312	13091
927.419	13168
927.525	13118
927.631	13194
927.737	13057
927.843	13175
927.95	12913
928.056	13046
928.162	13046
928.267	13057
928.373	13746
928.479	13206
928.585	12932
928.69	12977
928.796	13061
928.901	12878
929.007	12719
929.112	12867
929.218	12882
929.323	12688
929.428	12711
929.533	12802
929.638	12604
929.743	12589
929.848	12772
929.953	12684
930.058	12566
930.163	12369
930.267	12399
930.372	12593
930.477	12391
930.581	12589
930.685	12460
930.79	12285
930.894	12273
930.998	12235
931.103	12407
931.207	12045
931.311	12026
931.415	11908
931.519	11649
931.623	11592
