Data from test_V78500241_2069.txt Node
Date: Fri Mar 25 15:56:08 CST 2022
User: usil
Spectrometer: V785-0024
Trigger mode: 0
Integration Time (sec): 4.000000E-1
Scans to average: 1
Nonlinearity correction enabled: false
Boxcar width: 0
Storing dark spectrum: false
XAxis mode: Wavelengths
Number of Pixels in Spectrum: 1024
>>>>>Begin Spectral Data<<<<<
801.071	28908
801.214	28831
801.356	28801
801.499	28679
801.641	28375
801.783	28462
801.926	28485
802.068	28607
802.211	28428
802.353	28390
802.496	28200
802.638	28154
802.78	28181
802.923	28116
803.065	28090
803.208	28188
803.35	28268
803.492	28371
803.635	28466
803.777	28379
803.919	28455
804.061	28599
804.204	28455
804.346	28314
804.488	28325
804.63	28409
804.773	28440
804.915	28443
805.057	28596
805.199	28466
805.341	28462
805.483	28645
805.626	28622
805.768	28493
805.91	28634
806.052	28653
806.194	28641
806.336	28706
806.478	28489
806.62	28596
806.762	28664
806.904	28972
807.046	29067
807.188	29132
807.33	28995
807.472	28987
807.614	29056
807.756	29117
807.898	28980
808.04	28702
808.182	28995
808.324	28835
808.465	28930
808.607	29022
808.749	29299
808.891	29383
809.033	29471
809.174	29315
809.316	29143
809.458	29166
809.6	29246
809.741	29246
809.883	29471
810.025	29505
810.166	29570
810.308	29547
810.45	29490
810.591	29379
810.733	29421
810.875	29277
811.016	29223
811.158	29200
811.299	29425
811.441	29459
811.582	29520
811.724	29383
811.865	29193
812.007	29254
812.148	29296
812.29	29349
812.431	29516
812.573	29661
812.714	29745
812.855	29935
812.997	29950
813.138	29977
813.279	29893
813.421	29904
813.562	29855
813.703	29748
813.845	29657
813.986	29193
814.127	29079
814.268	28987
814.41	28904
814.551	28987
814.692	28972
814.833	28908
814.974	29048
815.115	28900
815.256	28805
815.397	28900
815.539	29022
815.68	28835
815.821	28702
815.962	28748
816.103	28793
816.244	28748
816.385	28618
816.526	28527
816.666	28417
816.807	28306
816.948	28363
817.089	28573
817.23	28360
817.371	28230
817.512	28185
817.653	28318
817.793	28265
817.934	28185
818.075	28337
818.216	28474
818.356	28287
818.497	28211
818.638	28135
818.778	27983
818.919	28105
819.06	28150
819.2	28238
819.341	28226
819.481	28333
819.622	28413
819.762	28618
819.903	28675
820.043	28554
820.184	28466
820.324	28379
820.465	28577
820.605	28497
820.746	28485
820.886	28356
821.026	28360
821.167	28303
821.307	28485
821.447	28512
821.588	28230
821.728	28185
821.868	28006
822.008	27838
822.149	27823
822.289	27747
822.429	27561
822.569	27450
822.709	27557
822.849	27340
822.99	27275
823.13	27302
823.27	27313
823.41	27218
823.55	27066
823.69	27100
823.83	27135
823.97	27157
824.11	26918
824.25	26773
824.389	27017
824.529	26982
824.669	26956
824.809	27112
824.949	27036
825.089	27058
825.228	27100
825.368	26929
825.508	26830
825.648	26826
825.787	26952
825.927	27024
826.067	26819
826.206	26845
826.346	26910
826.485	26940
826.625	26807
826.765	26864
826.904	27028
827.044	26651
827.183	26598
827.323	26488
827.462	26705
827.601	26579
827.741	26419
827.88	26594
828.02	26575
828.159	26545
828.298	26469
828.437	26507
828.577	26457
828.716	26552
828.855	26389
828.994	26229
829.134	26180
829.273	26290
829.412	26248
829.551	26119
829.69	26298
829.829	26221
829.968	26400
830.107	26305
830.246	26157
830.385	26240
830.524	26081
830.663	26199
830.802	25940
830.941	25807
831.08	25757
831.219	25906
831.357	25936
831.496	26058
831.635	25978
831.774	25791
831.913	25537
832.051	25693
832.19	25556
832.329	25704
832.467	25464
832.606	25514
832.744	25510
832.883	25563
833.022	25426
833.16	25502
833.299	25658
833.437	25571
833.576	25624
833.714	25514
833.852	25628
833.991	25651
834.129	25605
834.267	25540
834.406	25647
834.544	25624
834.682	25624
834.821	25487
834.959	25746
835.097	25563
835.235	25559
835.373	25529
835.511	25605
835.65	25537
835.788	25373
835.926	25369
836.064	25145
836.202	25274
836.34	25343
836.478	25559
836.615	25411
836.753	25369
836.891	25449
837.029	25369
837.167	25289
837.305	25263
837.443	25263
837.58	25103
837.718	25278
837.856	25282
837.993	25145
838.131	25251
838.269	25084
838.406	25247
838.544	25145
838.681	24829
838.819	24916
838.956	24692
839.094	24722
839.231	24741
839.369	24859
839.506	24992
839.643	24943
839.781	24635
839.918	24734
840.055	24654
840.193	24700
840.33	24604
840.467	24646
840.604	24612
840.742	24829
840.879	24490
841.016	24502
841.153	24494
841.29	24677
841.427	24483
841.564	24677
841.701	24559
841.838	24513
841.975	24422
842.112	24585
842.249	24384
842.385	24258
842.522	24563
842.659	24532
842.796	24239
842.933	24361
843.069	24414
843.206	24357
843.343	24342
843.479	24414
843.616	24311
843.752	24121
843.889	24136
844.025	24186
844.162	24121
844.298	24182
844.435	24038
844.571	24007
844.708	24087
844.844	24228
844.98	24311
845.117	24220
845.253	24060
845.389	23977
845.525	23973
845.661	23958
845.798	23821
845.934	23897
846.07	23809
846.206	23745
846.342	24045
846.478	23794
846.614	23638
846.75	23391
846.886	23501
847.022	23600
847.158	23661
847.294	23535
847.429	23570
847.565	23535
847.701	23764
847.837	23212
847.972	23235
848.108	23414
848.244	23379
848.379	23189
848.515	23140
848.65	23113
848.786	23124
848.921	23181
849.057	23334
849.192	23231
849.328	23242
849.463	23265
849.598	23105
849.734	23041
849.869	23025
850.004	22889
850.14	22786
850.275	22953
850.41	22934
850.545	22801
850.68	22828
850.815	22904
850.95	22877
851.085	23064
851.22	23003
851.355	22771
851.49	22987
851.625	22900
851.76	23003
851.895	22816
852.03	22828
852.165	22980
852.299	23090
852.434	22980
852.569	23003
852.703	22892
852.838	22949
852.973	23044
853.107	23022
853.242	22862
853.376	22812
853.511	22626
853.645	22816
853.78	22866
853.914	22820
854.048	22736
854.183	22656
854.317	22717
854.451	22953
854.585	22717
854.72	22877
854.854	22957
854.988	22653
855.122	22774
855.256	22637
855.39	22721
855.524	22710
855.658	22812
855.792	22774
855.926	22790
856.06	22774
856.194	22831
856.327	22759
856.461	22672
856.595	22679
856.729	22664
856.862	22843
856.996	22763
857.13	22812
857.263	22805
857.397	22904
857.53	22649
857.664	22710
857.797	22797
857.931	22869
858.064	22729
858.197	22778
858.331	22736
858.464	22630
858.597	22584
858.731	22596
858.864	22653
858.997	22698
859.13	22713
859.263	22618
859.396	22854
859.529	22759
859.662	22565
859.795	22694
859.928	22828
860.061	22839
860.194	22911
860.327	22759
860.46	22687
860.592	22866
860.725	22934
860.858	22801
860.99	22820
861.123	22759
861.256	22713
861.388	22797
861.521	23486
861.653	22481
861.786	22546
861.918	22504
862.05	22554
862.183	22626
862.315	22550
862.447	22805
862.58	22618
862.712	22348
862.844	22398
862.976	22405
863.108	22489
863.24	22923
863.372	22367
863.504	22523
863.636	22337
863.768	22455
863.9	22485
864.032	22402
864.164	22356
864.296	22497
864.428	22462
864.559	22519
864.691	22371
864.823	22542
864.954	22405
865.086	22402
865.217	22421
865.349	22280
865.48	22348
865.612	22280
865.743	22542
865.875	22341
866.006	22242
866.137	22333
866.269	22246
866.4	22337
866.531	22261
866.662	22207
866.793	22188
866.924	22257
867.055	22348
867.186	22215
867.317	22249
867.448	22169
867.579	22188
867.71	22010
867.841	22238
867.972	22192
868.103	22234
868.233	22154
868.364	22238
868.495	22382
868.625	22588
868.756	22489
868.886	22375
869.017	22402
869.147	22542
869.278	22622
869.408	22428
869.539	22466
869.669	22474
869.799	22561
869.929	22649
870.06	22603
870.19	22790
870.32	22634
870.45	22782
870.58	22847
870.71	22957
870.84	23033
870.97	22919
871.1	22908
871.23	22911
871.36	23048
871.489	23128
871.619	22930
871.749	22976
871.879	22877
872.008	23284
872.138	23136
872.267	23090
872.397	22923
872.526	22980
872.656	22908
872.785	22927
872.915	23113
873.044	23200
873.173	23060
873.303	23220
873.432	23185
873.561	23208
873.69	23200
873.819	23071
873.948	23124
874.077	23098
874.206	23041
874.335	23102
874.464	23227
874.593	23239
874.722	23261
874.851	23299
874.979	23307
875.108	23326
875.237	23277
875.365	23315
875.494	23265
875.623	23345
875.751	23227
875.88	23208
876.008	23444
876.136	23440
876.265	23646
876.393	23752
876.521	23786
876.65	23649
876.778	23680
876.906	23554
877.034	23649
877.162	23634
877.29	23592
877.418	23672
877.546	23642
877.674	23600
877.802	23627
877.93	23570
878.058	23448
878.185	23570
878.313	23478
878.441	23608
878.568	23482
878.696	23646
878.824	23649
878.951	23771
879.079	23794
879.206	23889
879.333	23771
879.461	23642
879.588	23741
879.715	23748
879.842	23885
879.97	23592
880.097	23512
880.224	23490
880.351	23547
880.478	23391
880.605	23474
880.732	23524
880.859	23745
880.986	23433
881.112	23402
881.239	23452
881.366	23254
881.493	23136
881.619	22968
881.746	23083
881.872	22991
881.999	22930
882.125	23052
882.252	23006
882.378	23006
882.505	23117
882.631	22885
882.757	22710
882.883	22752
883.01	22717
883.136	22641
883.262	22489
883.388	22500
883.514	22691
883.64	22729
883.766	22546
883.892	22424
884.018	22470
884.143	22660
884.269	22706
884.395	22409
884.52	22265
884.646	22375
884.772	22306
884.897	22306
885.023	22291
885.148	22424
885.274	22493
885.399	22344
885.524	22367
885.65	22390
885.775	22276
885.9	22242
886.025	22325
886.15	22268
886.275	22363
886.4	22261
886.525	22253
886.65	22162
886.775	22276
886.9	22466
887.025	22622
887.149	22219
887.274	22135
887.399	21975
887.523	22029
887.648	21964
887.773	21983
887.897	22192
888.021	22116
888.146	21968
888.27	22192
888.395	22036
888.519	22055
888.643	22090
888.767	22055
888.891	22032
889.015	21728
889.139	21915
889.263	21934
889.387	22006
889.511	22124
889.635	21964
889.759	21857
889.883	21797
890.006	21770
890.13	21895
890.254	21682
890.377	21854
890.501	21526
890.624	21614
890.748	21599
890.871	21473
890.995	21374
891.118	21389
891.241	21412
891.364	21393
891.488	21496
891.611	21336
891.734	21397
891.857	21530
891.98	21367
892.103	21504
892.226	21359
892.349	21233
892.471	21192
892.594	21279
892.717	21302
892.839	21348
892.962	21378
893.085	21344
893.207	21241
893.33	21119
893.452	21283
893.575	21245
893.697	21310
893.819	21519
893.941	21428
894.064	21389
894.186	21157
894.308	21188
894.43	21370
894.552	21393
894.674	21279
894.796	21138
894.918	21199
895.04	21116
895.161	21294
895.283	21397
895.405	21096
895.526	21310
895.648	21260
895.769	21272
895.891	21222
896.012	21340
896.134	21344
896.255	21302
896.376	21154
896.498	21241
896.619	21207
896.74	21321
896.861	21336
896.982	21625
897.103	21736
897.224	21538
897.345	21549
897.466	21374
897.587	21523
897.708	21564
897.828	21416
897.949	21420
898.07	21313
898.19	21397
898.311	21530
898.431	21416
898.552	21485
898.672	21374
898.792	21549
898.913	21439
899.033	21275
899.153	21169
899.273	21055
899.393	21230
899.513	21252
899.633	21142
899.753	21119
899.873	21154
899.993	21157
900.113	21173
900.232	21157
900.352	21100
900.472	20929
900.591	21020
900.711	20944
900.83	20887
900.95	21066
901.069	20925
901.189	20765
901.308	20651
901.427	20537
901.546	20480
901.665	20537
901.784	20450
901.904	20488
902.023	20332
902.141	20103
902.26	20005
902.379	20130
902.498	19986
902.617	20012
902.735	20043
902.854	20046
902.973	19898
903.091	19738
903.21	19624
903.328	19624
903.446	19548
903.565	19400
903.683	19502
903.801	19411
903.919	19354
904.038	19381
904.156	19244
904.274	19327
904.392	19213
904.51	19202
904.627	19213
904.745	19270
904.863	19137
904.981	19050
905.098	18943
905.216	18924
905.334	18890
905.451	18935
905.569	18859
905.686	18939
905.803	18848
905.921	18604
906.038	18810
906.155	18753
906.272	18612
906.389	18623
906.506	18445
906.623	18353
906.74	18426
906.857	18273
906.974	18342
907.091	18418
907.208	18528
907.324	18346
907.441	18361
907.557	18281
907.674	18110
907.79	18041
907.907	18110
908.023	18228
908.139	18155
908.256	18068
908.372	17950
908.488	18011
908.604	17741
908.72	17828
908.836	17901
908.952	17733
909.068	17843
909.184	18003
909.3	17870
909.415	17939
909.531	17756
909.647	17566
909.762	17516
909.878	17421
909.993	17497
910.108	17532
910.224	17512
910.339	17433
910.454	17398
910.57	17356
910.685	17239
910.8	17543
910.915	17452
911.03	17258
911.145	17136
911.259	17098
911.374	17105
911.489	17003
911.604	16873
911.718	16786
911.833	16904
911.947	16778
912.062	16748
912.176	16919
912.291	16786
912.405	16778
912.519	16915
912.633	17010
912.748	16892
912.862	16892
912.976	16683
913.09	16645
913.204	16599
913.318	16713
913.431	16687
913.545	16653
913.659	16831
913.772	16584
913.886	16500
914	16386
914.113	16523
914.226	16497
914.34	16558
914.453	16322
914.566	16440
914.68	16344
914.793	16253
914.906	16078
915.019	16063
915.132	15911
915.245	15998
915.358	16021
915.47	16032
915.583	15994
915.696	15991
915.809	16128
915.921	16059
916.034	15873
916.146	15903
916.259	15892
916.371	15979
916.483	15876
916.595	15781
916.708	15778
916.82	15808
916.932	15831
917.044	15831
917.156	15800
917.268	15667
917.38	15629
917.491	15606
917.603	15614
917.715	15736
917.826	15774
917.938	15614
918.049	15401
918.161	15515
918.272	15629
918.384	15656
918.495	15637
918.606	15420
918.717	15340
918.828	15458
918.939	15420
919.05	15275
919.161	15348
919.272	15116
919.383	15188
919.494	15439
919.604	15515
919.715	15294
919.826	15260
919.936	15268
920.047	15306
920.157	15294
920.267	15542
920.378	15302
920.488	15298
920.598	15492
920.708	15690
920.818	15439
920.928	15420
921.038	15519
921.148	15545
921.258	15264
921.368	15108
921.477	15207
921.587	15036
921.697	14963
921.806	15047
921.916	14910
922.025	14743
922.134	14651
922.244	14648
922.353	14762
922.462	14579
922.571	14465
922.68	14461
922.789	14358
922.898	14313
923.007	14328
923.116	14404
923.224	14339
923.333	14229
923.442	14092
923.55	14123
923.659	14134
923.767	14252
923.876	14153
923.984	14062
924.092	14077
924.201	14077
924.309	14054
924.417	14180
924.525	13833
924.633	13936
924.741	14982
924.849	13734
924.956	13852
925.064	13727
925.172	13552
925.279	13704
925.387	13693
925.494	13540
925.602	13757
925.709	13719
925.816	13487
925.924	13594
926.031	13826
926.138	13559
926.245	13616
926.352	13514
926.459	13628
926.566	13700
926.673	13658
926.779	13415
926.886	13324
926.993	13335
927.099	13289
927.206	13168
927.312	13221
927.419	13244
927.525	13228
927.631	13206
927.737	13008
927.843	13145
927.95	12909
928.056	12970
928.162	13046
928.267	13019
928.373	13647
928.479	13088
928.585	12905
928.69	12958
928.796	13038
928.901	12844
929.007	12760
929.112	12848
929.218	12741
929.323	12722
929.428	12760
929.533	12863
929.638	12677
929.743	12673
929.848	12776
929.953	12688
930.058	12612
930.163	12357
930.267	12479
930.372	12578
930.477	12319
930.581	12582
930.685	12448
930.79	12186
930.894	12388
930.998	12247
931.103	12479
931.207	12041
931.311	12007
931.415	11824
931.519	11680
931.623	11608
