Data from test_V78500241_3409.txt Node
Date: Fri Mar 25 16:05:25 CST 2022
User: usil
Spectrometer: V785-0024
Trigger mode: 0
Integration Time (sec): 4.000000E-1
Scans to average: 1
Nonlinearity correction enabled: false
Boxcar width: 0
Storing dark spectrum: false
XAxis mode: Wavelengths
Number of Pixels in Spectrum: 1024
>>>>>Begin Spectral Data<<<<<
801.071	28763
801.214	28588
801.356	28379
801.499	28401
801.641	28188
801.783	28318
801.926	28287
802.068	28188
802.211	28215
802.353	28253
802.496	28040
802.638	27975
802.78	27949
802.923	27918
803.065	27816
803.208	27876
803.35	27759
803.492	28078
803.635	28128
803.777	28101
803.919	28272
804.061	28440
804.204	28238
804.346	28200
804.488	28116
804.63	28318
804.773	28116
804.915	28257
805.057	28375
805.199	28253
805.341	28322
805.483	28375
805.626	28386
805.768	28341
805.91	28318
806.052	28409
806.194	28105
806.336	28489
806.478	28386
806.62	28421
806.762	28428
806.904	28592
807.046	28900
807.188	28786
807.33	28816
807.472	28877
807.614	28843
807.756	28805
807.898	28691
808.04	28531
808.182	28557
808.324	28839
808.465	28797
808.607	28915
808.749	28972
808.891	29143
809.033	29174
809.174	29128
809.316	29018
809.458	29003
809.6	28934
809.741	29060
809.883	29261
810.025	29307
810.166	29216
810.308	29284
810.45	29368
810.591	29277
810.733	29094
810.875	29014
811.016	29033
811.158	28858
811.299	29033
811.441	29037
811.582	29254
811.724	29083
811.865	29029
812.007	29124
812.148	29037
812.29	29162
812.431	29284
812.573	29349
812.714	29341
812.855	29589
812.997	29699
813.138	29912
813.279	29745
813.421	29570
813.562	29421
813.703	29459
813.845	29166
813.986	28896
814.127	28946
814.268	28774
814.41	28968
814.551	28683
814.692	28896
814.833	28904
814.974	28687
815.115	28729
815.256	28516
815.397	28592
815.539	28694
815.68	28702
815.821	28485
815.962	28542
816.103	28546
816.244	28386
816.385	28322
816.526	28310
816.666	28101
816.807	28006
816.948	28112
817.089	28196
817.23	28116
817.371	28078
817.512	28059
817.653	28044
817.793	28063
817.934	27960
818.075	28040
818.216	28006
818.356	28002
818.497	27895
818.638	27774
818.778	27789
818.919	27728
819.06	27842
819.2	27930
819.341	28223
819.481	28086
819.622	28188
819.762	28428
819.903	28314
820.043	28234
820.184	28207
820.324	28306
820.465	28272
820.605	28276
820.746	28162
820.886	28070
821.026	28185
821.167	28223
821.307	28272
821.447	28029
821.588	28025
821.728	27838
821.868	27622
822.008	27450
822.149	27618
822.289	27606
822.429	27264
822.569	27154
822.709	27230
822.849	26990
822.99	27047
823.13	27005
823.27	27127
823.41	26804
823.55	26644
823.69	26872
823.83	26899
823.97	26883
824.11	26549
824.25	26625
824.389	26636
824.529	26712
824.669	26693
824.809	26716
824.949	26845
825.089	26724
825.228	26735
825.368	26590
825.508	26545
825.648	26579
825.787	26560
825.927	26564
826.067	26594
826.206	26545
826.346	26739
826.485	26716
826.625	26701
826.765	26697
826.904	26549
827.044	26396
827.183	26275
827.323	26347
827.462	26370
827.601	26244
827.741	26290
827.88	26259
828.02	26221
828.159	26202
828.298	26301
828.437	26305
828.577	26172
828.716	26294
828.855	26244
828.994	26043
829.134	26020
829.273	26012
829.412	25902
829.551	25982
829.69	25989
829.829	25989
829.968	26054
830.107	25974
830.246	26031
830.385	25951
830.524	25856
830.663	25890
830.802	25693
830.941	25605
831.08	25575
831.219	25750
831.357	25529
831.496	25826
831.635	25533
831.774	25582
831.913	25495
832.051	25339
832.19	25365
832.329	25407
832.467	25297
832.606	25225
832.744	25255
832.883	25339
833.022	25179
833.16	25240
833.299	25350
833.437	25297
833.576	25403
833.714	25316
833.852	25346
833.991	25270
834.129	25487
834.267	25388
834.406	25301
834.544	25365
834.682	25285
834.821	25221
834.959	25514
835.097	25282
835.235	25312
835.373	25297
835.511	25407
835.65	25042
835.788	25164
835.926	25008
836.064	24916
836.202	25065
836.34	25263
836.478	25198
836.615	25225
836.753	25236
836.891	25282
837.029	25027
837.167	25076
837.305	25076
837.443	25122
837.58	24951
837.718	25000
837.856	24920
837.993	24981
838.131	24996
838.269	24890
838.406	25019
838.544	24791
838.681	24749
838.819	24551
838.956	24494
839.094	24365
839.231	24574
839.369	24616
839.506	24844
839.643	24658
839.781	24422
839.918	24353
840.055	24414
840.193	24380
840.33	24327
840.467	24330
840.604	24464
840.742	24604
840.879	24277
841.016	24334
841.153	24228
841.29	24505
841.427	24330
841.564	24414
841.701	24319
841.838	24369
841.975	24315
842.112	24209
842.249	24095
842.385	24152
842.522	24285
842.659	24182
842.796	24015
842.933	24182
843.069	24053
843.206	24148
843.343	24091
843.479	24258
843.616	24136
843.752	24015
843.889	23855
844.025	24011
844.162	23817
844.298	23958
844.435	23779
844.571	23745
844.708	23851
844.844	24136
844.98	24045
845.117	23882
845.253	23878
845.389	23756
845.525	23695
845.661	23729
845.798	23577
845.934	23726
846.07	23642
846.206	23707
846.342	23726
846.478	23486
846.614	23531
846.75	23322
846.886	23284
847.022	23421
847.158	23414
847.294	23410
847.429	23433
847.565	23368
847.701	23509
847.837	23025
847.972	23113
848.108	23056
848.244	23086
848.379	22991
848.515	22908
848.65	22873
848.786	22809
848.921	22938
849.057	23033
849.192	22999
849.328	22930
849.463	22946
849.598	22763
849.734	22862
849.869	22691
850.004	22725
850.14	22767
850.275	22854
850.41	22607
850.545	22565
850.68	22679
850.815	22771
850.95	22736
851.085	22763
851.22	22767
851.355	22675
851.49	22752
851.625	22668
851.76	22641
851.895	22519
852.03	22668
852.165	22683
852.299	22649
852.434	22782
852.569	22592
852.703	22706
852.838	22755
852.973	22771
853.107	22611
853.242	22569
853.376	22542
853.511	22455
853.645	22512
853.78	22725
853.914	22481
854.048	22622
854.183	22489
854.317	22493
854.451	22694
854.585	22542
854.72	22557
854.854	22592
854.988	22523
855.122	22478
855.256	22329
855.39	22447
855.524	22611
855.658	22592
855.792	22607
855.926	22531
856.06	22626
856.194	22546
856.327	22485
856.461	22440
856.595	22379
856.729	22462
856.862	22588
856.996	22489
857.13	22538
857.263	22573
857.397	22531
857.53	22440
857.664	22611
857.797	22474
857.931	22546
858.064	22538
858.197	22675
858.331	22535
858.464	22584
858.597	22447
858.731	22508
858.864	22455
858.997	22565
859.13	22459
859.263	22584
859.396	22599
859.529	22508
859.662	22375
859.795	22519
859.928	22554
860.061	22622
860.194	22744
860.327	22752
860.46	22599
860.592	22592
860.725	22607
860.858	22653
860.99	22527
861.123	22538
861.256	22417
861.388	22459
861.521	23254
861.653	22379
861.786	22356
861.918	22417
862.05	22443
862.183	22459
862.315	22489
862.447	22523
862.58	22485
862.712	22211
862.844	22154
862.976	22242
863.108	22261
863.24	22710
863.372	22310
863.504	22143
863.636	22177
863.768	22166
863.9	22246
864.032	22177
864.164	22181
864.296	22158
864.428	22306
864.559	22284
864.691	22204
864.823	22162
864.954	22048
865.086	22131
865.217	22128
865.349	22059
865.48	22002
865.612	22097
865.743	22223
865.875	22150
866.006	22059
866.137	22150
866.269	22147
866.4	22013
866.531	21998
866.662	22040
866.793	22029
866.924	22067
867.055	22074
867.186	22059
867.317	22013
867.448	21857
867.579	21865
867.71	21895
867.841	21854
867.972	22029
868.103	22063
868.233	21983
868.364	22002
868.495	22207
868.625	22211
868.756	22440
868.886	22051
869.017	22166
869.147	22398
869.278	22344
869.408	22352
869.539	22310
869.669	22333
869.799	22405
869.929	22382
870.06	22436
870.19	22611
870.32	22588
870.45	22550
870.58	22634
870.71	22740
870.84	22660
870.97	22736
871.1	22687
871.23	22927
871.36	22824
871.489	22717
871.619	22809
871.749	22961
871.879	22946
872.008	22980
872.138	22953
872.267	22862
872.397	22649
872.526	22721
872.656	22736
872.785	22672
872.915	22908
873.044	22896
873.173	22942
873.303	22968
873.432	22946
873.561	23003
873.69	22919
873.819	22904
873.948	22946
874.077	22892
874.206	22953
874.335	22748
874.464	23075
874.593	23155
874.722	23105
874.851	23033
874.979	23136
875.108	23124
875.237	23052
875.365	23025
875.494	23098
875.623	23212
875.751	23124
875.88	23140
876.008	23231
876.136	23303
876.265	23505
876.393	23566
876.521	23570
876.65	23531
876.778	23471
876.906	23364
877.034	23364
877.162	23512
877.29	23334
877.418	23383
877.546	23414
877.674	23459
877.802	23372
877.93	23493
878.058	23376
878.185	23337
878.313	23433
878.441	23406
878.568	23121
878.696	23261
878.824	23429
878.951	23478
879.079	23638
879.206	23809
879.333	23600
879.461	23531
879.588	23592
879.715	23722
879.842	23733
879.97	23444
880.097	23231
880.224	23250
880.351	23326
880.478	23220
880.605	23273
880.732	23379
880.859	23467
880.986	23303
881.112	23349
881.239	23197
881.366	23079
881.493	22896
881.619	22869
881.746	22820
881.872	22771
881.999	22801
882.125	22683
882.252	22816
882.378	22793
882.505	22850
882.631	22618
882.757	22550
882.883	22626
883.01	22546
883.136	22535
883.262	22344
883.388	22390
883.514	22554
883.64	22512
883.766	22447
883.892	22314
884.018	22272
884.143	22371
884.269	22546
884.395	22185
884.52	22013
884.646	22128
884.772	22021
884.897	22044
885.023	22128
885.148	22249
885.274	22261
885.399	22177
885.524	22177
885.65	22173
885.775	22109
885.9	22101
886.025	22128
886.15	22181
886.275	22063
886.4	22032
886.525	22010
886.65	21975
886.775	22010
886.9	22230
887.025	22276
887.149	22078
887.274	21884
887.399	21876
887.523	21884
887.648	21793
887.773	21869
887.897	21884
888.021	21846
888.146	21850
888.27	21907
888.395	21930
888.519	21899
888.643	21987
888.767	22036
888.891	21850
889.015	21736
889.139	21751
889.263	21660
889.387	21732
889.511	21850
889.635	21739
889.759	21656
889.883	21606
890.006	21644
890.13	21861
890.254	21705
890.377	21660
890.501	21439
890.624	21447
890.748	21454
890.871	21298
890.995	21203
891.118	21241
891.241	21203
891.364	21203
891.488	21359
891.611	21370
891.734	21070
891.857	21367
891.98	21131
892.103	21313
892.226	21279
892.349	21157
892.471	21024
892.594	21252
892.717	21188
892.839	21123
892.962	21112
893.085	21104
893.207	21237
893.33	21017
893.452	21112
893.575	21070
893.697	21157
893.819	21302
893.941	21264
894.064	21351
894.186	21119
894.308	21089
894.43	21058
894.552	21325
894.674	21169
894.796	21077
894.918	21184
895.04	21119
895.161	21256
895.283	21119
895.405	21051
895.526	21047
895.648	21055
895.769	21024
895.891	21150
896.012	21180
896.134	21161
896.255	21127
896.376	20982
896.498	21176
896.619	21218
896.74	21017
896.861	21108
896.982	21412
897.103	21534
897.224	21306
897.345	21245
897.466	21252
897.587	21169
897.708	21386
897.828	21260
897.949	21287
898.07	21116
898.19	21176
898.311	21382
898.431	21180
898.552	21294
898.672	21447
898.792	21351
898.913	21374
899.033	21085
899.153	21032
899.273	21036
899.393	21024
899.513	20982
899.633	21108
899.753	20990
899.873	20952
899.993	21013
900.113	20963
900.232	20971
900.352	20906
900.472	20781
900.591	20788
900.711	20941
900.83	20720
900.95	20937
901.069	20883
901.189	20697
901.308	20442
901.427	20233
901.546	20332
901.665	20309
901.784	20404
901.904	20240
902.023	20252
902.141	19928
902.26	19932
902.379	19879
902.498	19860
902.617	19890
902.735	19799
902.854	19841
902.973	19791
903.091	19548
903.21	19609
903.328	19567
903.446	19400
903.565	19293
903.683	19331
903.801	19251
903.919	19312
904.038	19251
904.156	19114
904.274	19114
904.392	19053
904.51	19012
904.627	19069
904.745	19088
904.863	19118
904.981	18901
905.098	18738
905.216	18696
905.334	18856
905.451	18730
905.569	18760
905.686	18806
905.803	18707
905.921	18532
906.038	18650
906.155	18582
906.272	18433
906.389	18380
906.506	18285
906.623	18323
906.74	18361
906.857	18213
906.974	18243
907.091	18330
907.208	18323
907.324	18277
907.441	18140
907.557	17897
907.674	18102
907.79	17958
907.907	17851
908.023	17973
908.139	17988
908.256	17961
908.372	17889
908.488	17832
908.604	17847
908.72	17562
908.836	17691
908.952	17585
909.068	17805
909.184	17828
909.3	17680
909.415	17653
909.531	17745
909.647	17421
909.762	17410
909.878	17452
909.993	17440
910.108	17364
910.224	17258
910.339	17349
910.454	17178
910.57	17147
910.685	16991
910.8	17349
910.915	17372
911.03	17105
911.145	17067
911.259	17037
911.374	16995
911.489	16892
911.604	16847
911.718	16634
911.833	16687
911.947	16615
912.062	16436
912.176	16752
912.291	16675
912.405	16710
912.519	16881
912.633	16869
912.748	16862
912.862	16561
912.976	16481
913.09	16382
913.204	16432
913.318	16542
913.431	16721
913.545	16550
913.659	16634
913.772	16440
913.886	16363
914	16337
914.113	16371
914.226	16371
914.34	16382
914.453	16150
914.566	16333
914.68	16147
914.793	16207
914.906	15964
915.019	15838
915.132	15911
915.245	15884
915.358	15835
915.47	15865
915.583	15850
915.696	15926
915.809	15979
915.921	15972
916.034	15778
916.146	15728
916.259	15755
916.371	15819
916.483	15850
916.595	15675
916.708	15728
916.82	15648
916.932	15614
917.044	15622
917.156	15606
917.268	15496
917.38	15496
917.491	15466
917.603	15576
917.715	15538
917.826	15458
917.938	15367
918.049	15298
918.161	15435
918.272	15534
918.384	15622
918.495	15447
918.606	15272
918.717	15176
918.828	15313
918.939	15294
919.05	15146
919.161	15173
919.272	15074
919.383	15150
919.494	15252
919.604	15393
919.715	15230
919.826	15294
919.936	15009
920.047	15329
920.157	15154
920.267	15447
920.378	15169
920.488	15081
920.598	15454
920.708	15603
920.818	15359
920.928	15287
921.038	15469
921.148	15443
921.258	15161
921.368	15005
921.477	14944
921.587	14868
921.697	14800
921.806	14952
921.916	14743
922.025	14632
922.134	14556
922.244	14507
922.353	14556
922.462	14457
922.571	14339
922.68	14256
922.789	14240
922.898	14248
923.007	14199
923.116	14164
923.224	14172
923.333	14221
923.442	14039
923.55	14012
923.659	14115
923.767	14107
923.876	13909
923.984	14008
924.092	13765
924.201	13925
924.309	13932
924.417	13879
924.525	13814
924.633	13864
924.741	14731
924.849	13632
924.956	13811
925.064	13639
925.172	13544
925.279	13586
925.387	13544
925.494	13586
925.602	13639
925.709	13521
925.816	13540
925.924	13491
926.031	13518
926.138	13502
926.245	13540
926.352	13445
926.459	13434
926.566	13529
926.673	13384
926.779	13312
926.886	13247
926.993	13126
927.099	13057
927.206	12973
927.312	13034
927.419	13126
927.525	13091
927.631	13042
927.737	13034
927.843	12901
927.95	12833
928.056	13004
928.162	12977
928.267	12977
928.373	13480
928.479	13015
928.585	12688
928.69	12821
928.796	12932
928.901	12745
929.007	12623
929.112	12772
929.218	12776
929.323	12684
929.428	12673
929.533	12772
929.638	12517
929.743	12566
929.848	12677
929.953	12612
930.058	12540
930.163	12155
930.267	12304
930.372	12471
930.477	12232
930.581	12483
930.685	12311
930.79	12159
930.894	12304
930.998	12133
931.103	12266
931.207	11999
931.311	11931
931.415	11767
931.519	11551
931.623	11619
