Data from test_V78500241_3545.txt Node
Date: Fri Mar 25 16:06:21 CST 2022
User: usil
Spectrometer: V785-0024
Trigger mode: 0
Integration Time (sec): 4.000000E-1
Scans to average: 1
Nonlinearity correction enabled: false
Boxcar width: 0
Storing dark spectrum: false
XAxis mode: Wavelengths
Number of Pixels in Spectrum: 1024
>>>>>Begin Spectral Data<<<<<
801.071	29155
801.214	28911
801.356	28664
801.499	28569
801.641	28466
801.783	28542
801.926	28561
802.068	28504
802.211	28474
802.353	28409
802.496	28390
802.638	28188
802.78	28055
802.923	28082
803.065	28173
803.208	28196
803.35	28291
803.492	28447
803.635	28306
803.777	28246
803.919	28310
804.061	28736
804.204	28516
804.346	28356
804.488	28424
804.63	28432
804.773	28542
804.915	28637
805.057	28550
805.199	28538
805.341	28569
805.483	28759
805.626	28550
805.768	28615
805.91	28611
806.052	28645
806.194	28557
806.336	28850
806.478	28630
806.62	28565
806.762	28672
806.904	28854
807.046	29151
807.188	29014
807.33	29212
807.472	29102
807.614	29083
807.756	29132
807.898	29067
808.04	28915
808.182	28987
808.324	29117
808.465	29006
808.607	29124
808.749	29334
808.891	29444
809.033	29395
809.174	29417
809.316	29223
809.458	29425
809.6	29181
809.741	29402
809.883	29493
810.025	29596
810.166	29684
810.308	29528
810.45	29615
810.591	29596
810.733	29387
810.875	29444
811.016	29117
811.158	29147
811.299	29345
811.441	29444
811.582	29497
811.724	29296
811.865	29395
812.007	29258
812.148	29360
812.29	29539
812.431	29600
812.573	29642
812.714	29703
812.855	29908
812.997	30091
813.138	30106
813.279	29927
813.421	29912
813.562	29855
813.703	29463
813.845	29383
813.986	29315
814.127	29033
814.268	29200
814.41	29124
814.551	28942
814.692	29121
814.833	28919
814.974	28991
815.115	29018
815.256	28972
815.397	29003
815.539	28980
815.68	28698
815.821	28786
815.962	28831
816.103	28908
816.244	28801
816.385	28801
816.526	28725
816.666	28459
816.807	28329
816.948	28459
817.089	28401
817.23	28322
817.371	28424
817.512	28337
817.653	28306
817.793	28409
817.934	28341
818.075	28451
818.216	28398
818.356	28390
818.497	28143
818.638	28166
818.778	28348
818.919	28112
819.06	28329
819.2	28287
819.341	28295
819.481	28462
819.622	28561
819.762	28839
819.903	28588
820.043	28733
820.184	28497
820.324	28519
820.465	28694
820.605	28641
820.746	28523
820.886	28310
821.026	28516
821.167	28504
821.307	28531
821.447	28470
821.588	28356
821.728	28169
821.868	28105
822.008	27857
822.149	27816
822.289	27907
822.429	27622
822.569	27568
822.709	27614
822.849	27488
822.99	27427
823.13	27287
823.27	27275
823.41	27104
823.55	27127
823.69	27230
823.83	27165
823.97	27176
824.11	26982
824.25	26982
824.389	27005
824.529	27222
824.669	27036
824.809	27123
824.949	27150
825.089	27020
825.228	27066
825.368	26933
825.508	26845
825.648	26944
825.787	26986
825.927	26921
826.067	26895
826.206	26944
826.346	27020
826.485	27036
826.625	26868
826.765	27077
826.904	26971
827.044	26762
827.183	26678
827.323	26571
827.462	26693
827.601	26651
827.741	26648
827.88	26686
828.02	26552
828.159	26655
828.298	26648
828.437	26743
828.577	26648
828.716	26720
828.855	26431
828.994	26286
829.134	26404
829.273	26374
829.412	26415
829.551	26210
829.69	26271
829.829	26450
829.968	26427
830.107	26442
830.246	26446
830.385	26377
830.524	26301
830.663	26062
830.802	25989
830.941	25799
831.08	25925
831.219	25887
831.357	25913
831.496	26138
831.635	26069
831.774	25731
831.913	25788
832.051	25662
832.19	25639
832.329	25795
832.467	25613
832.606	25624
832.744	25594
832.883	25571
833.022	25556
833.16	25544
833.299	25712
833.437	25594
833.576	25715
833.714	25689
833.852	25647
833.991	25788
834.129	25624
834.267	25822
834.406	25712
834.544	25647
834.682	25693
834.821	25685
834.959	25837
835.097	25616
835.235	25883
835.373	25582
835.511	25643
835.65	25651
835.788	25601
835.926	25495
836.064	25346
836.202	25362
836.34	25525
836.478	25677
836.615	25487
836.753	25403
836.891	25544
837.029	25506
837.167	25472
837.305	25400
837.443	25278
837.58	25312
837.718	25438
837.856	25236
837.993	25236
838.131	25362
838.269	25255
838.406	25221
838.544	25091
838.681	25122
838.819	24882
838.956	24783
839.094	24837
839.231	24753
839.369	24981
839.506	25050
839.643	24920
839.781	24650
839.918	24776
840.055	24726
840.193	24734
840.33	24760
840.467	24703
840.604	24677
840.742	25034
840.879	24585
841.016	24620
841.153	24429
841.29	24688
841.427	24612
841.564	24631
841.701	24582
841.838	24544
841.975	24665
842.112	24604
842.249	24517
842.385	24414
842.522	24665
842.659	24376
842.796	24490
842.933	24471
843.069	24418
843.206	24464
843.343	24505
843.479	24467
843.616	24448
843.752	24311
843.889	24140
844.025	24418
844.162	24254
844.298	24182
844.435	24136
844.571	24167
844.708	24334
844.844	24388
844.98	24399
845.117	24258
845.253	24247
845.389	24053
845.525	24125
845.661	24095
845.798	23973
845.934	23965
846.07	23969
846.206	23950
846.342	24152
846.478	23961
846.614	23661
846.75	23592
846.886	23642
847.022	23760
847.158	23634
847.294	23642
847.429	23775
847.565	23764
847.701	23866
847.837	23509
847.972	23406
848.108	23505
848.244	23547
848.379	23223
848.515	23284
848.65	23277
848.786	23231
848.921	23208
849.057	23353
849.192	23315
849.328	23277
849.463	23235
849.598	23109
849.734	23220
849.869	23083
850.004	23121
850.14	23090
850.275	22984
850.41	22839
850.545	22934
850.68	22938
850.815	23117
850.95	23094
851.085	23223
851.22	23064
851.355	23090
851.49	22938
851.625	23041
851.76	22881
851.895	23006
852.03	22896
852.165	22995
852.299	23090
852.434	23048
852.569	22984
852.703	22961
852.838	22919
852.973	22976
853.107	23044
853.242	23033
853.376	22854
853.511	22691
853.645	22805
853.78	22927
853.914	22999
854.048	22873
854.183	22831
854.317	22942
854.451	22999
854.585	22793
854.72	22854
854.854	22938
854.988	22828
855.122	22858
855.256	22771
855.39	22702
855.524	22847
855.658	23006
855.792	22641
855.926	22828
856.06	22866
856.194	22797
856.327	22763
856.461	22725
856.595	22812
856.729	22869
856.862	22995
856.996	22755
857.13	22968
857.263	22919
857.397	22881
857.53	22862
857.664	22835
857.797	22957
857.931	22900
858.064	22957
858.197	22946
858.331	22778
858.464	22809
858.597	22752
858.731	22812
858.864	22664
858.997	22797
859.13	22793
859.263	22904
859.396	22923
859.529	22839
859.662	22683
859.795	22729
859.928	22782
860.061	22972
860.194	23006
860.327	22953
860.46	22858
860.592	23048
860.725	22927
860.858	22972
860.99	22919
861.123	22816
861.256	22812
861.388	22835
861.521	23482
861.653	22641
861.786	22637
861.918	22660
862.05	22694
862.183	22733
862.315	22752
862.447	22812
862.58	22797
862.712	22512
862.844	22626
862.976	22752
863.108	22577
863.24	23117
863.372	22542
863.504	22607
863.636	22413
863.768	22546
863.9	22542
864.032	22428
864.164	22375
864.296	22535
864.428	22687
864.559	22508
864.691	22615
864.823	22569
864.954	22424
865.086	22402
865.217	22519
865.349	22356
865.48	22379
865.612	22478
865.743	22577
865.875	22512
866.006	22386
866.137	22443
866.269	22352
866.4	22371
866.531	22329
866.662	22363
866.793	22360
866.924	22325
867.055	22306
867.186	22219
867.317	22318
867.448	22325
867.579	22322
867.71	22306
867.841	22230
867.972	22424
868.103	22253
868.233	22360
868.364	22162
868.495	22375
868.625	22588
868.756	22664
868.886	22535
869.017	22588
869.147	22626
869.278	22698
869.408	22710
869.539	22546
869.669	22618
869.799	22546
869.929	22729
870.06	22710
870.19	22881
870.32	22828
870.45	22915
870.58	22858
870.71	23102
870.84	22942
870.97	22938
871.1	22934
871.23	23166
871.36	23223
871.489	23098
871.619	23079
871.749	23083
871.879	23140
872.008	23372
872.138	23166
872.267	23220
872.397	23052
872.526	23064
872.656	23029
872.785	22980
872.915	23166
873.044	23277
873.173	23208
873.303	23235
873.432	23341
873.561	23216
873.69	23220
873.819	23235
873.948	23277
874.077	23178
874.206	23178
874.335	23254
874.464	23098
874.593	23478
874.722	23478
874.851	23410
874.979	23345
875.108	23353
875.237	23398
875.365	23360
875.494	23242
875.623	23497
875.751	23368
875.88	23414
876.008	23478
876.136	23471
876.265	23756
876.393	24015
876.521	23927
876.65	23851
876.778	23821
876.906	23665
877.034	23756
877.162	23714
877.29	23745
877.418	23745
877.546	23798
877.674	23718
877.802	23638
877.93	23722
878.058	23703
878.185	23707
878.313	23680
878.441	23691
878.568	23604
878.696	23748
878.824	23821
878.951	23863
879.079	23859
879.206	24197
879.333	23946
879.461	23809
879.588	23775
879.715	23874
879.842	24083
879.97	23851
880.097	23661
880.224	23520
880.351	23551
880.478	23558
880.605	23509
880.732	23573
880.859	23904
880.986	23478
881.112	23657
881.239	23531
881.366	23337
881.493	23117
881.619	23200
881.746	23174
881.872	23178
881.999	23181
882.125	23037
882.252	23117
882.378	23048
882.505	23117
882.631	22908
882.757	22752
882.883	22869
883.01	22831
883.136	22656
883.262	22694
883.388	22675
883.514	22816
883.64	22793
883.766	22713
883.892	22565
884.018	22577
884.143	22694
884.269	22835
884.395	22489
884.52	22386
884.646	22481
884.772	22310
884.897	22295
885.023	22489
885.148	22565
885.274	22557
885.399	22622
885.524	22386
885.65	22440
885.775	22470
885.9	22352
886.025	22527
886.15	22512
886.275	22322
886.4	22169
886.525	22291
886.65	22398
886.775	22234
886.9	22519
887.025	22607
887.149	22371
887.274	22234
887.399	22215
887.523	22154
887.648	22204
887.773	22082
887.897	22306
888.021	22188
888.146	22131
888.27	22310
888.395	22211
888.519	22192
888.643	22086
888.767	22223
888.891	21979
889.015	22040
889.139	22036
889.263	21934
889.387	21975
889.511	22188
889.635	22025
889.759	21918
889.883	21937
890.006	22074
890.13	22074
890.254	21888
890.377	21846
890.501	21701
890.624	21599
890.748	21766
890.871	21511
890.995	21477
891.118	21568
891.241	21496
891.364	21553
891.488	21648
891.611	21534
891.734	21458
891.857	21587
891.98	21450
892.103	21603
892.226	21542
892.349	21397
892.471	21351
892.594	21294
892.717	21462
892.839	21397
892.962	21534
893.085	21485
893.207	21325
893.33	21237
893.452	21298
893.575	21443
893.697	21283
893.819	21485
893.941	21603
894.064	21485
894.186	21386
894.308	21268
894.43	21462
894.552	21553
894.674	21348
894.796	21161
894.918	21401
895.04	21317
895.161	21477
895.283	21363
895.405	21298
895.526	21291
895.648	21428
895.769	21291
895.891	21321
896.012	21454
896.134	21572
896.255	21321
896.376	21359
896.498	21344
896.619	21397
896.74	21294
896.861	21340
896.982	21739
897.103	21876
897.224	21595
897.345	21473
897.466	21519
897.587	21629
897.708	21800
897.828	21583
897.949	21504
898.07	21443
898.19	21408
898.311	21595
898.431	21416
898.552	21416
898.672	21580
898.792	21538
898.913	21458
899.033	21431
899.153	21291
899.273	21245
899.393	21214
899.513	21298
899.633	21184
899.753	21279
899.873	21222
899.993	21279
900.113	21199
900.232	21226
900.352	21180
900.472	21077
900.591	21062
900.711	20910
900.83	20944
900.95	20979
901.069	21051
901.189	20899
901.308	20811
901.427	20617
901.546	20552
901.665	20625
901.784	20648
901.904	20488
902.023	20343
902.141	20233
902.26	20191
902.379	20168
902.498	20058
902.617	20210
902.735	20107
902.854	20122
902.973	20088
903.091	19784
903.21	19674
903.328	19761
903.446	19719
903.565	19533
903.683	19415
903.801	19377
903.919	19468
904.038	19495
904.156	19381
904.274	19434
904.392	19221
904.51	19278
904.627	19350
904.745	19403
904.863	19312
904.981	19091
905.098	18985
905.216	18935
905.334	19053
905.451	18947
905.569	19046
905.686	18989
905.803	19004
905.921	18779
906.038	18837
906.155	18817
906.272	18681
906.389	18650
906.506	18589
906.623	18570
906.74	18532
906.857	18399
906.974	18372
907.091	18521
907.208	18703
907.324	18540
907.441	18452
907.557	18254
907.674	18270
907.79	18072
907.907	18102
908.023	18216
908.139	18190
908.256	18034
908.372	18064
908.488	18110
908.604	17965
908.72	17958
908.836	17931
908.952	17912
909.068	17946
909.184	17965
909.3	18015
909.415	17950
909.531	17889
909.647	17737
909.762	17543
909.878	17627
909.993	17653
910.108	17539
910.224	17581
910.339	17562
910.454	17429
910.57	17455
910.685	17376
910.8	17619
910.915	17509
911.03	17478
911.145	17197
911.259	17200
911.374	17185
911.489	17132
911.604	17014
911.718	16877
911.833	16976
911.947	16919
912.062	16774
912.176	16946
912.291	16858
912.405	16968
912.519	17140
912.633	17128
912.748	17022
912.862	16896
912.976	16839
913.09	16580
913.204	16733
913.318	16763
913.431	16866
913.545	16892
913.659	16839
913.772	16634
913.886	16645
914	16592
914.113	16618
914.226	16637
914.34	16565
914.453	16341
914.566	16497
914.68	16348
914.793	16303
914.906	16177
915.019	16173
915.132	16078
915.245	16044
915.358	16013
915.47	16086
915.583	16147
915.696	16124
915.809	16185
915.921	16238
916.034	16067
916.146	15945
916.259	15975
916.371	16071
916.483	16002
916.595	15812
916.708	15937
916.82	15827
916.932	15861
917.044	15880
917.156	15846
917.268	15823
917.38	15743
917.491	15663
917.603	15728
917.715	15751
917.826	15804
917.938	15667
918.049	15568
918.161	15736
918.272	15907
918.384	15720
918.495	15648
918.606	15542
918.717	15367
918.828	15500
918.939	15530
919.05	15325
919.161	15450
919.272	15199
919.383	15329
919.494	15431
919.604	15625
919.715	15443
919.826	15351
919.936	15393
920.047	15435
920.157	15477
920.267	15606
920.378	15370
920.488	15401
920.598	15580
920.708	15675
920.818	15473
920.928	15488
921.038	15720
921.148	15648
921.258	15340
921.368	15165
921.477	15104
921.587	15123
921.697	14967
921.806	15135
921.916	14937
922.025	14727
922.134	14750
922.244	14674
922.353	14773
922.462	14621
922.571	14537
922.68	14454
922.789	14381
922.898	14396
923.007	14358
923.116	14377
923.224	14309
923.333	14351
923.442	14309
923.55	14313
923.659	14214
923.767	14233
923.876	14153
923.984	14195
924.092	14073
924.201	14088
924.309	14043
924.417	14111
924.525	13970
924.633	13989
924.741	15009
924.849	13715
924.956	13986
925.064	13807
925.172	13738
925.279	13658
925.387	13830
925.494	13689
925.602	13837
925.709	13830
925.816	13734
925.924	13700
926.031	13837
926.138	13708
926.245	13655
926.352	13586
926.459	13647
926.566	13746
926.673	13594
926.779	13514
926.886	13453
926.993	13350
927.099	13304
927.206	13255
927.312	13183
927.419	13354
927.525	13293
927.631	13282
927.737	13171
927.843	13118
927.95	13088
928.056	12993
928.162	13149
928.267	13164
928.373	13753
928.479	13145
928.585	12825
928.69	12970
928.796	13031
928.901	12901
929.007	12886
929.112	12935
929.218	12840
929.323	12806
929.428	12726
929.533	12913
929.638	12707
929.743	12703
929.848	12795
929.953	12722
930.058	12654
930.163	12429
930.267	12464
930.372	12551
930.477	12502
930.581	12722
930.685	12441
930.79	12289
930.894	12426
930.998	12334
931.103	12380
931.207	12114
931.311	12007
931.415	11923
931.519	11775
931.623	11714
