Data from test_V78500241_3382.txt Node
Date: Fri Mar 25 16:05:13 CST 2022
User: usil
Spectrometer: V785-0024
Trigger mode: 0
Integration Time (sec): 4.000000E-1
Scans to average: 1
Nonlinearity correction enabled: false
Boxcar width: 0
Storing dark spectrum: false
XAxis mode: Wavelengths
Number of Pixels in Spectrum: 1024
>>>>>Begin Spectral Data<<<<<
801.071	28497
801.214	28401
801.356	28219
801.499	28147
801.641	28032
801.783	27968
801.926	28131
802.068	28021
802.211	27888
802.353	27865
802.496	27854
802.638	27797
802.78	27667
802.923	27603
803.065	27416
803.208	27545
803.35	27644
803.492	27861
803.635	27953
803.777	27747
803.919	27994
804.061	28287
804.204	27979
804.346	27884
804.488	27793
804.63	27827
804.773	27705
804.915	27964
805.057	28032
805.199	27949
805.341	27911
805.483	28124
805.626	27994
805.768	27854
805.91	27987
806.052	27892
806.194	27914
806.336	28211
806.478	28063
806.62	28070
806.762	28131
806.904	28325
807.046	28634
807.188	28497
807.33	28379
807.472	28538
807.614	28497
807.756	28531
807.898	28348
808.04	28223
808.182	28352
808.324	28371
808.465	28478
808.607	28630
808.749	28694
808.891	28831
809.033	28946
809.174	28793
809.316	28778
809.458	28672
809.6	28622
809.741	28904
809.883	29018
810.025	29086
810.166	28991
810.308	29033
810.45	28881
810.591	28976
810.733	28763
810.875	28641
811.016	28759
811.158	28687
811.299	28850
811.441	28797
811.582	28927
811.724	28790
811.865	28801
812.007	28828
812.148	28744
812.29	28786
812.431	28908
812.573	29109
812.714	29204
812.855	29181
812.997	29284
813.138	29467
813.279	29383
813.421	29185
813.562	29136
813.703	28957
813.845	28938
813.986	28615
814.127	28615
814.268	28500
814.41	28500
814.551	28440
814.692	28493
814.833	28303
814.974	28394
815.115	28481
815.256	28143
815.397	28352
815.539	28314
815.68	28219
815.821	28261
815.962	28200
816.103	28173
816.244	28109
816.385	28055
816.526	27953
816.666	27774
816.807	27660
816.948	27774
817.089	27861
817.23	27694
817.371	27770
817.512	27816
817.653	27785
817.793	27671
817.934	27720
818.075	27641
818.216	27694
818.356	27663
818.497	27610
818.638	27443
818.778	27606
818.919	27420
819.06	27526
819.2	27488
819.341	27739
819.481	27755
819.622	27823
819.762	28116
819.903	28002
820.043	28036
820.184	27953
820.324	27892
820.465	27899
820.605	27819
820.746	27690
820.886	27675
821.026	27892
821.167	27808
821.307	27880
821.447	27774
821.588	27648
821.728	27523
821.868	27386
822.008	27192
822.149	27192
822.289	27089
822.429	27058
822.569	26918
822.709	26906
822.849	26895
822.99	26697
823.13	26629
823.27	26800
823.41	26621
823.55	26465
823.69	26693
823.83	26625
823.97	26503
824.11	26476
824.25	26332
824.389	26408
824.529	26480
824.669	26309
824.809	26511
824.949	26571
825.089	26408
825.228	26339
825.368	26256
825.508	26259
825.648	26294
825.787	26309
825.927	26237
826.067	26301
826.206	26221
826.346	26423
826.485	26248
826.625	26278
826.765	26370
826.904	26377
827.044	26084
827.183	25963
827.323	25993
827.462	26024
827.601	25986
827.741	25940
827.88	25989
828.02	25966
828.159	25795
828.298	25917
828.437	25852
828.577	25833
828.716	26005
828.855	25875
828.994	25757
829.134	25632
829.273	25830
829.412	25586
829.551	25693
829.69	25818
829.829	25738
829.968	25731
830.107	25624
830.246	25639
830.385	25670
830.524	25483
830.663	25434
830.802	25491
830.941	25369
831.08	25228
831.219	25445
831.357	25343
831.496	25586
831.635	25240
831.774	25122
831.913	25171
832.051	25137
832.19	25152
832.329	25080
832.467	24977
832.606	24920
832.744	24867
832.883	24905
833.022	24878
833.16	24924
833.299	24932
833.437	24901
833.576	24958
833.714	25076
833.852	25088
833.991	25031
834.129	25004
834.267	25099
834.406	25069
834.544	25038
834.682	25084
834.821	24939
834.959	25156
835.097	24943
835.235	25076
835.373	25000
835.511	24992
835.65	24875
835.788	24935
835.926	24779
836.064	24654
836.202	24722
836.34	24856
836.478	24878
836.615	24817
836.753	24905
836.891	25027
837.029	24856
837.167	24833
837.305	24673
837.443	24673
837.58	24612
837.718	24768
837.856	24642
837.993	24650
838.131	24616
838.269	24483
838.406	24677
838.544	24540
838.681	24327
838.819	24338
838.956	24129
839.094	24079
839.231	24174
839.369	24251
839.506	24532
839.643	24437
839.781	24186
839.918	24045
840.055	24159
840.193	24095
840.33	24125
840.467	24136
840.604	24057
840.742	24311
840.879	23821
841.016	24015
841.153	23840
841.29	24076
841.427	24034
841.564	24030
841.701	24049
841.838	23927
841.975	23969
842.112	23965
842.249	23980
842.385	23752
842.522	24030
842.659	23809
842.796	23676
842.933	23832
843.069	23741
843.206	23863
843.343	23866
843.479	23718
843.616	23786
843.752	23600
843.889	23592
844.025	23775
844.162	23577
844.298	23551
844.435	23581
844.571	23562
844.708	23604
844.844	23680
844.98	23836
845.117	23722
845.253	23577
845.389	23391
845.525	23383
845.661	23334
845.798	23288
845.934	23433
846.07	23181
846.206	23353
846.342	23387
846.478	23330
846.614	23071
846.75	23060
846.886	22991
847.022	23018
847.158	23136
847.294	23132
847.429	23029
847.565	23098
847.701	23341
847.837	22721
847.972	22908
848.108	22828
848.244	22828
848.379	22698
848.515	22637
848.65	22592
848.786	22649
848.921	22641
849.057	22679
849.192	22702
849.328	22622
849.463	22618
849.598	22538
849.734	22497
849.869	22352
850.004	22557
850.14	22459
850.275	22565
850.41	22409
850.545	22417
850.68	22246
850.815	22508
850.95	22375
851.085	22493
851.22	22519
851.355	22356
851.49	22314
851.625	22310
851.76	22356
851.895	22363
852.03	22261
852.165	22402
852.299	22417
852.434	22386
852.569	22489
852.703	22379
852.838	22409
852.973	22527
853.107	22459
853.242	22375
853.376	22257
853.511	22143
853.645	22162
853.78	22295
853.914	22341
854.048	22097
854.183	22109
854.317	22314
854.451	22440
854.585	22257
854.72	22177
854.854	22306
854.988	22135
855.122	22192
855.256	22105
855.39	22131
855.524	22223
855.658	22344
855.792	22226
855.926	22257
856.06	22234
856.194	22352
856.327	22169
856.461	22246
856.595	22169
856.729	22200
856.862	22158
856.996	22299
857.13	22226
857.263	22356
857.397	22409
857.53	22181
857.664	22287
857.797	22295
857.931	22360
858.064	22261
858.197	22344
858.331	22223
858.464	22219
858.597	22173
858.731	22109
858.864	22177
858.997	22257
859.13	22215
859.263	22226
859.396	22318
859.529	22219
859.662	22086
859.795	22181
859.928	22276
860.061	22333
860.194	22462
860.327	22303
860.46	22181
860.592	22337
860.725	22428
860.858	22352
860.99	22272
861.123	22036
861.256	22143
861.388	22261
861.521	22919
861.653	22051
861.786	21937
861.918	22048
862.05	22082
862.183	22150
862.315	22093
862.447	22211
862.58	22055
862.712	21915
862.844	21968
862.976	22032
863.108	21915
863.24	22356
863.372	21838
863.504	21930
863.636	21899
863.768	21926
863.9	21903
864.032	21884
864.164	21793
864.296	21918
864.428	22055
864.559	21987
864.691	22067
864.823	21869
864.954	21781
865.086	21827
865.217	21854
865.349	21747
865.48	21717
865.612	21743
865.743	21941
865.875	21907
866.006	21762
866.137	21785
866.269	21846
866.4	21701
866.531	21831
866.662	21739
866.793	21770
866.924	21720
867.055	21854
867.186	21743
867.317	21675
867.448	21641
867.579	21743
867.71	21648
867.841	21675
867.972	21759
868.103	21739
868.233	21652
868.364	21720
868.495	21789
868.625	22051
868.756	22074
868.886	21937
869.017	22006
869.147	22105
869.278	22021
869.408	21956
869.539	21945
869.669	22112
869.799	21998
869.929	22200
870.06	22090
870.19	22303
870.32	22219
870.45	22310
870.58	22413
870.71	22478
870.84	22592
870.97	22459
871.1	22493
871.23	22497
871.36	22569
871.489	22466
871.619	22523
871.749	22470
871.879	22512
872.008	22596
872.138	22596
872.267	22611
872.397	22580
872.526	22386
872.656	22436
872.785	22348
872.915	22660
873.044	22577
873.173	22645
873.303	22691
873.432	22664
873.561	22641
873.69	22618
873.819	22656
873.948	22790
874.077	22596
874.206	22474
874.335	22599
874.464	22771
874.593	22816
874.722	22793
874.851	22908
874.979	22900
875.108	22866
875.237	22687
875.365	22816
875.494	22820
875.623	22904
875.751	22915
875.88	22797
876.008	22927
876.136	22923
876.265	23299
876.393	23315
876.521	23482
876.65	23307
876.778	23258
876.906	23174
877.034	23265
877.162	23178
877.29	23086
877.418	23174
877.546	23185
877.674	23064
877.802	23052
877.93	23170
878.058	23151
878.185	23109
878.313	23170
878.441	23136
878.568	23022
878.696	23143
878.824	23261
878.951	23368
879.079	23318
879.206	23395
879.333	23311
879.461	23216
879.588	23307
879.715	23307
879.842	23421
879.97	23246
880.097	22987
880.224	23037
880.351	23048
880.478	23064
880.605	23018
880.732	22987
880.859	23292
880.986	22942
881.112	23109
881.239	22748
881.366	22850
881.493	22702
881.619	22615
881.746	22615
881.872	22500
881.999	22474
882.125	22550
882.252	22584
882.378	22440
882.505	22592
882.631	22432
882.757	22284
882.883	22337
883.01	22192
883.136	22185
883.262	22101
883.388	21960
883.514	22234
883.64	22249
883.766	22226
883.892	21937
884.018	22188
884.143	22200
884.269	22166
884.395	21941
884.52	21755
884.646	21842
884.772	21846
884.897	21705
885.023	21812
885.148	21873
885.274	22006
885.399	21972
885.524	21846
885.65	21873
885.775	21907
885.9	21793
886.025	21937
886.15	21983
886.275	21873
886.4	21762
886.525	21800
886.65	21774
886.775	21736
886.9	22086
887.025	22063
887.149	21762
887.274	21789
887.399	21568
887.523	21641
887.648	21610
887.773	21572
887.897	21823
888.021	21778
888.146	21614
888.27	21739
888.395	21785
888.519	21713
888.643	21667
888.767	21652
888.891	21500
889.015	21435
889.139	21542
889.263	21424
889.387	21561
889.511	21599
889.635	21603
889.759	21428
889.883	21416
890.006	21359
890.13	21481
890.254	21272
890.377	21447
890.501	21150
890.624	21199
890.748	21203
890.871	21081
890.995	21070
891.118	20811
891.241	21055
891.364	20990
891.488	21138
891.611	21032
891.734	20982
891.857	21036
891.98	20925
892.103	21074
892.226	20986
892.349	20906
892.471	20838
892.594	20887
892.717	20838
892.839	20842
892.962	20880
893.085	20952
893.207	20891
893.33	20750
893.452	20857
893.575	20765
893.697	20826
893.819	20998
893.941	21020
894.064	21001
894.186	20769
894.308	20788
894.43	20880
894.552	21001
894.674	20925
894.796	20743
894.918	20883
895.04	20838
895.161	20842
895.283	21017
895.405	20724
895.526	20895
895.648	20830
895.769	20883
895.891	20948
896.012	20853
896.134	20967
896.255	20872
896.376	20773
896.498	20800
896.619	20887
896.74	20849
896.861	20792
896.982	21047
897.103	21313
897.224	21020
897.345	21081
897.466	20921
897.587	21062
897.708	21218
897.828	20990
897.949	20910
898.07	20944
898.19	20921
898.311	21077
898.431	20921
898.552	21077
898.672	21142
898.792	21112
898.913	20979
899.033	20990
899.153	20815
899.273	20712
899.393	20826
899.513	20838
899.633	20750
899.753	20864
899.873	20659
899.993	20754
900.113	20651
900.232	20834
900.352	20788
900.472	20602
900.591	20465
900.711	20644
900.83	20613
900.95	20655
901.069	20617
901.189	20431
901.308	20301
901.427	20088
901.546	20199
901.665	20103
901.784	20138
901.904	20084
902.023	19890
902.141	19704
902.26	19685
902.379	19670
902.498	19689
902.617	19647
902.735	19658
902.854	19704
902.973	19518
903.091	19476
903.21	19419
903.328	19217
903.446	19107
903.565	19133
903.683	19171
903.801	19015
903.919	19088
904.038	18966
904.156	18947
904.274	18871
904.392	18947
904.51	18859
904.627	18973
904.745	18852
904.863	18863
904.981	18707
905.098	18532
905.216	18513
905.334	18623
905.451	18566
905.569	18582
905.686	18517
905.803	18486
905.921	18247
906.038	18399
906.155	18304
906.272	18213
906.389	18224
906.506	18102
906.623	18155
906.74	18087
906.857	17813
906.974	17923
907.091	18083
907.208	18289
907.324	18064
907.441	17935
907.557	17805
907.674	17726
907.79	17843
907.907	17805
908.023	17745
908.139	17764
908.256	17608
908.372	17619
908.488	17589
908.604	17482
908.72	17440
908.836	17478
908.952	17497
909.068	17448
909.184	17566
909.3	17436
909.415	17596
909.531	17421
909.647	17242
909.762	17204
909.878	17170
909.993	17212
910.108	17216
910.224	17132
910.339	17056
910.454	16934
910.57	16999
910.685	16778
910.8	17277
910.915	17071
911.03	16900
911.145	16740
911.259	16809
911.374	16729
911.489	16733
911.604	16611
911.718	16512
911.833	16519
911.947	16436
912.062	16363
912.176	16432
912.291	16523
912.405	16535
912.519	16687
912.633	16672
912.748	16451
912.862	16565
912.976	16352
913.09	16249
913.204	16257
913.318	16230
913.431	16451
913.545	16337
913.659	16348
913.772	16314
913.886	16188
914	16112
914.113	16284
914.226	16154
914.34	16078
914.453	16048
914.566	16166
914.68	15998
914.793	15876
914.906	15766
915.019	15667
915.132	15595
915.245	15713
915.358	15717
915.47	15743
915.583	15728
915.696	15633
915.809	15766
915.921	15804
916.034	15610
916.146	15500
916.259	15526
916.371	15679
916.483	15648
916.595	15530
916.708	15633
916.82	15515
916.932	15545
917.044	15416
917.156	15473
917.268	15310
917.38	15336
917.491	15275
917.603	15378
917.715	15393
917.826	15439
917.938	15249
918.049	15116
918.161	15184
918.272	15306
918.384	15405
918.495	15291
918.606	15077
918.717	14975
918.828	15123
918.939	15135
919.05	14956
919.161	15154
919.272	14963
919.383	14887
919.494	15062
919.604	15222
919.715	14979
919.826	14921
919.936	14998
920.047	15032
920.157	15093
920.267	15218
920.378	14990
920.488	14963
920.598	15146
920.708	15287
920.818	15199
920.928	15214
921.038	15241
921.148	15218
921.258	14998
921.368	14887
921.477	14670
921.587	14834
921.697	14575
921.806	14750
921.916	14590
922.025	14400
922.134	14438
922.244	14259
922.353	14377
922.462	14240
922.571	14237
922.68	14058
922.789	14073
922.898	14039
923.007	14054
923.116	14027
923.224	14138
923.333	13989
923.442	13860
923.55	13875
923.659	13902
923.767	13936
923.876	13719
923.984	13925
924.092	13799
924.201	13818
924.309	13807
924.417	13738
924.525	13655
924.633	13647
924.741	14560
924.849	13525
924.956	13601
925.064	13514
925.172	13362
925.279	13377
925.387	13384
925.494	13468
925.602	13472
925.709	13502
925.816	13339
925.924	13426
926.031	13472
926.138	13388
926.245	13365
926.352	13312
926.459	13388
926.566	13388
926.673	13308
926.779	13152
926.886	13133
926.993	13057
927.099	13099
927.206	13023
927.312	12977
927.419	13050
927.525	12962
927.631	13050
927.737	12829
927.843	12878
927.95	12776
928.056	12783
928.162	12867
928.267	12913
928.373	13407
928.479	12852
928.585	12681
928.69	12768
928.796	12814
928.901	12787
929.007	12513
929.112	12692
929.218	12658
929.323	12563
929.428	12570
929.533	12601
929.638	12452
929.743	12448
929.848	12475
929.953	12513
930.058	12350
930.163	12091
930.267	12167
930.372	12327
930.477	12311
930.581	12448
930.685	12258
930.79	12034
930.894	12178
930.998	12030
931.103	12178
931.207	11783
931.311	11745
931.415	11657
931.519	11490
931.623	11398
