Data from test_V78500241_2050.txt Node
Date: Fri Mar 25 15:56:00 CST 2022
User: usil
Spectrometer: V785-0024
Trigger mode: 0
Integration Time (sec): 4.000000E-1
Scans to average: 1
Nonlinearity correction enabled: false
Boxcar width: 0
Storing dark spectrum: false
XAxis mode: Wavelengths
Number of Pixels in Spectrum: 1024
>>>>>Begin Spectral Data<<<<<
801.071	29010
801.214	28869
801.356	28801
801.499	28683
801.641	28607
801.783	28432
801.926	28554
802.068	28554
802.211	28508
802.353	28363
802.496	28348
802.638	28299
802.78	28223
802.923	28147
803.065	28116
803.208	28135
803.35	28268
803.492	28443
803.635	28542
803.777	28394
803.919	28382
804.061	28816
804.204	28577
804.346	28409
804.488	28405
804.63	28459
804.773	28512
804.915	28649
805.057	28710
805.199	28409
805.341	28557
805.483	28599
805.626	28744
805.768	28675
805.91	28660
806.052	28615
806.194	28588
806.336	28748
806.478	28702
806.62	28702
806.762	28843
806.904	29029
807.046	29284
807.188	29140
807.33	29121
807.472	29181
807.614	28972
807.756	29124
807.898	29018
808.04	28949
808.182	28839
808.324	29048
808.465	29128
808.607	29204
808.749	29288
808.891	29459
809.033	29474
809.174	29531
809.316	29425
809.458	29265
809.6	29417
809.741	29482
809.883	29433
810.025	29676
810.166	29535
810.308	29589
810.45	29638
810.591	29562
810.733	29299
810.875	29452
811.016	29269
811.158	29299
811.299	29570
811.441	29623
811.582	29356
811.724	29398
811.865	29387
812.007	29425
812.148	29486
812.29	29391
812.431	29535
812.573	29581
812.714	29745
812.855	29923
812.997	29813
813.138	30178
813.279	30015
813.421	29901
813.562	29950
813.703	29680
813.845	29726
813.986	29326
814.127	29220
814.268	29052
814.41	29231
814.551	29006
814.692	29140
814.833	29064
814.974	29056
815.115	29193
815.256	29044
815.397	29060
815.539	29075
815.68	28892
815.821	28869
815.962	28991
816.103	28934
816.244	28854
816.385	28725
816.526	28675
816.666	28577
816.807	28455
816.948	28417
817.089	28421
817.23	28542
817.371	28478
817.512	28382
817.653	28382
817.793	28329
817.934	28409
818.075	28390
818.216	28443
818.356	28428
818.497	28261
818.638	28177
818.778	28169
818.919	28234
819.06	28337
819.2	28150
819.341	28489
819.481	28440
819.622	28588
819.762	28782
819.903	28645
820.043	28717
820.184	28710
820.324	28550
820.465	28535
820.605	28588
820.746	28470
820.886	28333
821.026	28557
821.167	28516
821.307	28527
821.447	28440
821.588	28436
821.728	28135
821.868	28059
822.008	28059
822.149	28006
822.289	27842
822.429	27561
822.569	27679
822.709	27583
822.849	27500
822.99	27492
823.13	27473
823.27	27359
823.41	27332
823.55	26963
823.69	27302
823.83	27241
823.97	27089
824.11	27089
824.25	27131
824.389	26979
824.529	26986
824.669	27199
824.809	27047
824.949	27161
825.089	27188
825.228	27218
825.368	27013
825.508	26868
825.648	26971
825.787	27001
825.927	26990
826.067	26887
826.206	27062
826.346	27058
826.485	27081
826.625	26788
826.765	27062
826.904	26986
827.044	26792
827.183	26804
827.323	26716
827.462	26655
827.601	26724
827.741	26530
827.88	26644
828.02	26598
828.159	26579
828.298	26659
828.437	26712
828.577	26632
828.716	26716
828.855	26526
828.994	26286
829.134	26423
829.273	26461
829.412	26457
829.551	26347
829.69	26362
829.829	26271
829.968	26324
830.107	26480
830.246	26377
830.385	26320
830.524	26278
830.663	26210
830.802	26130
830.941	26001
831.08	25906
831.219	26111
831.357	25898
831.496	26142
831.635	25959
831.774	25928
831.913	25738
832.051	25807
832.19	25811
832.329	25746
832.467	25662
832.606	25700
832.744	25605
832.883	25540
833.022	25655
833.16	25548
833.299	25624
833.437	25704
833.576	25734
833.714	25544
833.852	25632
833.991	25704
834.129	25715
834.267	25837
834.406	25753
834.544	25704
834.682	25620
834.821	25685
834.959	25769
835.097	25670
835.235	25624
835.373	25681
835.511	25670
835.65	25533
835.788	25510
835.926	25373
836.064	25316
836.202	25407
836.34	25544
836.478	25556
836.615	25487
836.753	25540
836.891	25502
837.029	25472
837.167	25415
837.305	25457
837.443	25396
837.58	25373
837.718	25365
837.856	25377
837.993	25240
838.131	25304
838.269	25145
838.406	25129
838.544	25107
838.681	25046
838.819	24947
838.956	24764
839.094	24825
839.231	24677
839.369	24989
839.506	25236
839.643	25133
839.781	24776
839.918	24821
840.055	24916
840.193	24688
840.33	24730
840.467	24639
840.604	24669
840.742	25038
840.879	24623
841.016	24681
841.153	24528
841.29	24764
841.427	24673
841.564	24696
841.701	24696
841.838	24566
841.975	24509
842.112	24616
842.249	24372
842.385	24505
842.522	24700
842.659	24582
842.796	24296
842.933	24388
843.069	24513
843.206	24422
843.343	24388
843.479	24471
843.616	24452
843.752	24209
843.889	24133
844.025	24388
844.162	24072
844.298	24311
844.435	24171
844.571	24095
844.708	24247
844.844	24426
844.98	24429
845.117	24407
845.253	24095
845.389	24072
845.525	24125
845.661	23889
845.798	23954
845.934	24022
846.07	23843
846.206	23866
846.342	24003
846.478	23882
846.614	23855
846.75	23642
846.886	23729
847.022	23733
847.158	23722
847.294	23756
847.429	23646
847.565	23642
847.701	23927
847.837	23421
847.972	23379
848.108	23547
848.244	23493
848.379	23318
848.515	23212
848.65	23231
848.786	23341
848.921	23307
849.057	23368
849.192	23425
849.328	23337
849.463	23292
849.598	23349
849.734	23178
849.869	23052
850.004	23090
850.14	23071
850.275	23140
850.41	22953
850.545	23083
850.68	22965
850.815	23162
850.95	23052
851.085	23235
851.22	23098
851.355	23071
851.49	23121
851.625	23003
851.76	23140
851.895	22927
852.03	22904
852.165	23102
852.299	23102
852.434	23296
852.569	23117
852.703	22987
852.838	23121
852.973	23185
853.107	23086
853.242	23003
853.376	22923
853.511	22854
853.645	22828
853.78	23056
853.914	22877
854.048	22961
854.183	22957
854.317	22957
854.451	22999
854.585	22885
854.72	22782
854.854	22999
854.988	22801
855.122	22850
855.256	22767
855.39	22866
855.524	22934
855.658	22984
855.792	22965
855.926	22976
856.06	22904
856.194	22877
856.327	22869
856.461	22892
856.595	22816
856.729	22824
856.862	23033
856.996	22961
857.13	22816
857.263	22911
857.397	22881
857.53	22869
857.664	22991
857.797	22957
857.931	23147
858.064	22866
858.197	22957
858.331	22915
858.464	22824
858.597	22824
858.731	22801
858.864	22889
858.997	22873
859.13	22900
859.263	22816
859.396	22984
859.529	22984
859.662	22805
859.795	22831
859.928	22854
860.061	22908
860.194	23048
860.327	22873
860.46	22995
860.592	22949
860.725	22968
860.858	23086
860.99	22908
861.123	22733
861.256	22866
861.388	22927
861.521	23410
861.653	22835
861.786	22649
861.918	22752
862.05	22778
862.183	22790
862.315	22824
862.447	22763
862.58	22748
862.712	22618
862.844	22474
862.976	22607
863.108	22634
863.24	23102
863.372	22565
863.504	22569
863.636	22546
863.768	22626
863.9	22554
864.032	22424
864.164	22550
864.296	22569
864.428	22637
864.559	22603
864.691	22603
864.823	22535
864.954	22489
865.086	22592
865.217	22451
865.349	22230
865.48	22447
865.612	22531
865.743	22542
865.875	22550
866.006	22379
866.137	22523
866.269	22504
866.4	22341
866.531	22405
866.662	22363
866.793	22447
866.924	22485
867.055	22428
867.186	22459
867.317	22367
867.448	22314
867.579	22306
867.71	22333
867.841	22230
867.972	22402
868.103	22341
868.233	22295
868.364	22535
868.495	22504
868.625	22698
868.756	22694
868.886	22550
869.017	22626
869.147	22733
869.278	22615
869.408	22637
869.539	22668
869.669	22687
869.799	22580
869.929	22713
870.06	22706
870.19	22869
870.32	22938
870.45	22991
870.58	23090
870.71	23029
870.84	23044
870.97	22904
871.1	23166
871.23	23193
871.36	23136
871.489	23083
871.619	23246
871.749	23048
871.879	23258
872.008	23208
872.138	23311
872.267	23162
872.397	23128
872.526	23075
872.656	23113
872.785	23052
872.915	23204
873.044	23433
873.173	23258
873.303	23258
873.432	23242
873.561	23448
873.69	23204
873.819	23284
873.948	23227
874.077	23250
874.206	23212
874.335	23128
874.464	23322
874.593	23520
874.722	23452
874.851	23486
874.979	23459
875.108	23459
875.237	23349
875.365	23277
875.494	23429
875.623	23497
875.751	23406
875.88	23524
876.008	23554
876.136	23592
876.265	23786
876.393	23912
876.521	23904
876.65	23912
876.778	23889
876.906	23798
877.034	23832
877.162	23783
877.29	23687
877.418	23794
877.546	23805
877.674	23691
877.802	23733
877.93	23817
878.058	23786
878.185	23710
878.313	23687
878.441	23608
878.568	23585
878.696	23718
878.824	23824
878.951	23832
879.079	23912
879.206	23980
879.333	23904
879.461	23676
879.588	24041
879.715	24015
879.842	24015
879.97	23893
880.097	23528
880.224	23543
880.351	23676
880.478	23646
880.605	23520
880.732	23710
880.859	23840
880.986	23608
881.112	23714
881.239	23360
881.366	23220
881.493	23185
881.619	23079
881.746	23060
881.872	23079
881.999	23109
882.125	23098
882.252	23193
882.378	23117
882.505	23147
882.631	23006
882.757	22744
882.883	22889
883.01	22885
883.136	22752
883.262	22645
883.388	22641
883.514	22877
883.64	22793
883.766	22687
883.892	22592
884.018	22664
884.143	22801
884.269	22736
884.395	22466
884.52	22447
884.646	22470
884.772	22352
884.897	22363
885.023	22379
885.148	22573
885.274	22535
885.399	22500
885.524	22356
885.65	22440
885.775	22428
885.9	22382
886.025	22592
886.15	22341
886.275	22394
886.4	22238
886.525	22379
886.65	22417
886.775	22390
886.9	22592
887.025	22664
887.149	22379
887.274	22306
887.399	22139
887.523	22280
887.648	22230
887.773	22101
887.897	22310
888.021	22268
888.146	22291
888.27	22215
888.395	22265
888.519	22291
888.643	22188
888.767	22207
888.891	22017
889.015	22010
889.139	21949
889.263	21975
889.387	22063
889.511	22154
889.635	22093
889.759	22029
889.883	21975
890.006	21922
890.13	22070
890.254	21941
890.377	21850
890.501	21728
890.624	21819
890.748	21724
890.871	21485
890.995	21515
891.118	21454
891.241	21473
891.364	21648
891.488	21572
891.611	21576
891.734	21564
891.857	21492
891.98	21591
892.103	21542
892.226	21523
892.349	21401
892.471	21214
892.594	21435
892.717	21481
892.839	21298
892.962	21481
893.085	21519
893.207	21374
893.33	21389
893.452	21249
893.575	21420
893.697	21416
893.819	21545
893.941	21538
894.064	21568
894.186	21211
894.308	21329
894.43	21454
894.552	21622
894.674	21481
894.796	21272
894.918	21367
895.04	21401
895.161	21378
895.283	21500
895.405	21226
895.526	21351
895.648	21359
895.769	21416
895.891	21443
896.012	21431
896.134	21370
896.255	21336
896.376	21351
896.498	21302
896.619	21431
896.74	21420
896.861	21428
896.982	21629
897.103	21861
897.224	21576
897.345	21587
897.466	21583
897.587	21568
897.708	21675
897.828	21610
897.949	21606
898.07	21370
898.19	21610
898.311	21572
898.431	21458
898.552	21656
898.672	21667
898.792	21580
898.913	21538
899.033	21477
899.153	21477
899.273	21306
899.393	21348
899.513	21466
899.633	21321
899.753	21374
899.873	21241
899.993	21279
900.113	21275
900.232	21291
900.352	21150
900.472	21081
900.591	21017
900.711	21051
900.83	21017
900.95	21093
901.069	21199
901.189	20952
901.308	20743
901.427	20621
901.546	20625
901.665	20674
901.784	20594
901.904	20461
902.023	20438
902.141	20202
902.26	20153
902.379	20199
902.498	20187
902.617	20065
902.735	20149
902.854	20088
902.973	19898
903.091	19803
903.21	19799
903.328	19700
903.446	19746
903.565	19540
903.683	19533
903.801	19430
903.919	19499
904.038	19533
904.156	19255
904.274	19369
904.392	19327
904.51	19312
904.627	19225
904.745	19392
904.863	19384
904.981	19168
905.098	18989
905.216	18970
905.334	18954
905.451	19046
905.569	18996
905.686	18951
905.803	19019
905.921	18810
906.038	18829
906.155	18798
906.272	18665
906.389	18703
906.506	18441
906.623	18547
906.74	18483
906.857	18433
906.974	18384
907.091	18506
907.208	18585
907.324	18502
907.441	18471
907.557	18254
907.674	18239
907.79	18133
907.907	18171
908.023	18319
908.139	18178
908.256	18079
908.372	18254
908.488	18041
908.604	18003
908.72	17920
908.836	17999
908.952	17901
909.068	17973
909.184	18053
909.3	17893
909.415	17950
909.531	17893
909.647	17680
909.762	17630
909.878	17627
909.993	17619
910.108	17570
910.224	17592
910.339	17600
910.454	17425
910.57	17395
910.685	17391
910.8	17592
910.915	17528
911.03	17356
911.145	17174
911.259	17261
911.374	17136
911.489	17079
911.604	17060
911.718	16923
911.833	16972
911.947	16835
912.062	16763
912.176	16972
912.291	16889
912.405	16965
912.519	17098
912.633	17155
912.748	16927
912.862	16847
912.976	16782
913.09	16626
913.204	16622
913.318	16759
913.431	16782
913.545	16759
913.659	16771
913.772	16607
913.886	16653
914	16565
914.113	16634
914.226	16653
914.34	16687
914.453	16367
914.566	16535
914.68	16363
914.793	16329
914.906	16116
915.019	16135
915.132	16166
915.245	16090
915.358	16109
915.47	16074
915.583	16071
915.696	16101
915.809	16257
915.921	16234
916.034	16109
916.146	15930
916.259	16032
916.371	16010
916.483	16112
916.595	15937
916.708	15915
916.82	15922
916.932	15949
917.044	15846
917.156	15915
917.268	15724
917.38	15660
917.491	15724
917.603	15789
917.715	15827
917.826	15800
917.938	15568
918.049	15656
918.161	15709
918.272	15724
918.384	15743
918.495	15686
918.606	15553
918.717	15439
918.828	15500
918.939	15485
919.05	15397
919.161	15393
919.272	15184
919.383	15329
919.494	15526
919.604	15705
919.715	15435
919.826	15306
919.936	15408
920.047	15481
920.157	15549
920.267	15717
920.378	15481
920.488	15367
920.598	15530
920.708	15751
920.818	15633
920.928	15587
921.038	15724
921.148	15682
921.258	15291
921.368	15203
921.477	15165
921.587	15154
921.697	14975
921.806	15199
921.916	15081
922.025	14868
922.134	14819
922.244	14697
922.353	14887
922.462	14674
922.571	14568
922.68	14450
922.789	14511
922.898	14358
923.007	14286
923.116	14461
923.224	14393
923.333	14328
923.442	14225
923.55	14271
923.659	14294
923.767	14324
923.876	14286
923.984	14290
924.092	14096
924.201	14218
924.309	14149
924.417	14119
924.525	14096
924.633	14031
924.741	14883
924.849	13830
924.956	14039
925.064	13890
925.172	13780
925.279	13693
925.387	13917
925.494	13788
925.602	13879
925.709	13795
925.816	13643
925.924	13693
926.031	13791
926.138	13742
926.245	13765
926.352	13506
926.459	13674
926.566	13734
926.673	13647
926.779	13537
926.886	13457
926.993	13381
927.099	13320
927.206	13316
927.312	13304
927.419	13316
927.525	13301
927.631	13324
927.737	13217
927.843	13122
927.95	13008
928.056	13084
928.162	13095
928.267	13160
928.373	13727
928.479	13168
928.585	12897
928.69	13084
928.796	13061
928.901	12943
929.007	12738
929.112	12913
929.218	12951
929.323	12890
929.428	12749
929.533	12951
929.638	12791
929.743	12741
929.848	12795
929.953	12764
930.058	12650
930.163	12486
930.267	12536
930.372	12669
930.477	12456
930.581	12662
930.685	12513
930.79	12399
930.894	12376
930.998	12319
931.103	12525
931.207	12117
931.311	12060
931.415	12038
931.519	11699
931.623	11729
