Data from test_V78500241_1225.txt Node
Date: Fri Mar 25 15:50:17 CST 2022
User: usil
Spectrometer: V785-0024
Trigger mode: 0
Integration Time (sec): 4.000000E-1
Scans to average: 1
Nonlinearity correction enabled: false
Boxcar width: 0
Storing dark spectrum: false
XAxis mode: Wavelengths
Number of Pixels in Spectrum: 1024
>>>>>Begin Spectral Data<<<<<
801.071	28550
801.214	28626
801.356	28318
801.499	28109
801.641	28207
801.783	28265
801.926	28196
802.068	28177
802.211	28082
802.353	28029
802.496	27800
802.638	27701
802.78	27926
802.923	27816
803.065	27736
803.208	27694
803.35	27751
803.492	27907
803.635	28074
803.777	27956
803.919	28112
804.061	28390
804.204	28044
804.346	28032
804.488	27972
804.63	27964
804.773	28048
804.915	27979
805.057	28116
805.199	28044
805.341	28188
805.483	28154
805.626	28242
805.768	28135
805.91	28230
806.052	28238
806.194	28280
806.336	28440
806.478	28234
806.62	28272
806.762	28303
806.904	28527
807.046	28752
807.188	28729
807.33	28645
807.472	28725
807.614	28622
807.756	28672
807.898	28481
808.04	28436
808.182	28428
808.324	28599
808.465	28535
808.607	28694
808.749	28850
808.891	28881
809.033	29006
809.174	29048
809.316	28938
809.458	28934
809.6	28862
809.741	28965
809.883	28961
810.025	29220
810.166	29239
810.308	29102
810.45	29208
810.591	29140
810.733	28991
810.875	28877
811.016	28881
811.158	28748
811.299	28995
811.441	29052
811.582	28938
811.724	29075
811.865	28923
812.007	29064
812.148	28999
812.29	28946
812.431	29151
812.573	29391
812.714	29383
812.855	29490
812.997	29684
813.138	29611
813.279	29528
813.421	29562
813.562	29364
813.703	29128
813.845	29280
813.986	28858
814.127	28763
814.268	28580
814.41	28748
814.551	28546
814.692	28911
814.833	28630
814.974	28702
815.115	28550
815.256	28523
815.397	28535
815.539	28580
815.68	28413
815.821	28462
815.962	28485
816.103	28413
816.244	28356
816.385	28223
816.526	28158
816.666	28128
816.807	27987
816.948	28097
817.089	28063
817.23	27941
817.371	27937
817.512	27987
817.653	27884
817.793	27953
817.934	27895
818.075	27953
818.216	27797
818.356	27945
818.497	27854
818.638	27751
818.778	27667
818.919	27660
819.06	27857
819.2	27941
819.341	27934
819.481	27880
819.622	28067
819.762	28295
819.903	28192
820.043	28143
820.184	28135
820.324	27911
820.465	28150
820.605	28082
820.746	28272
820.886	28036
821.026	28002
821.167	28029
821.307	28173
821.447	27979
821.588	27869
821.728	27759
821.868	27523
822.008	27473
822.149	27412
822.289	27492
822.429	27214
822.569	27211
822.709	27169
822.849	27032
822.99	26960
823.13	26785
823.27	26902
823.41	26834
823.55	26754
823.69	26765
823.83	26762
823.97	26830
824.11	26579
824.25	26545
824.389	26476
824.529	26606
824.669	26682
824.809	26686
824.949	26769
825.089	26629
825.228	26693
825.368	26339
825.508	26590
825.648	26545
825.787	26347
825.927	26632
826.067	26568
826.206	26473
826.346	26476
826.485	26568
826.625	26549
826.765	26655
826.904	26556
827.044	26218
827.183	26229
827.323	26161
827.462	26206
827.601	26233
827.741	26149
827.88	26206
828.02	26092
828.159	26119
828.298	26153
828.437	26172
828.577	26058
828.716	26290
828.855	26256
828.994	25925
829.134	25925
829.273	25803
829.412	25902
829.551	25772
829.69	25906
829.829	25845
829.968	25932
830.107	26027
830.246	25879
830.385	25875
830.524	25712
830.663	25685
830.802	25529
830.941	25544
831.08	25521
831.219	25655
831.357	25616
831.496	25719
831.635	25346
831.774	25460
831.913	25316
832.051	25228
832.19	25289
832.329	25236
832.467	25133
832.606	25061
832.744	25019
832.883	25088
833.022	25122
833.16	25206
833.299	25171
833.437	25244
833.576	25187
833.714	25160
833.852	25266
833.991	25194
834.129	25297
834.267	25339
834.406	25221
834.544	25240
834.682	25122
834.821	25046
834.959	25365
835.097	25263
835.235	25232
835.373	25160
835.511	25217
835.65	25057
835.788	25031
835.926	24966
836.064	24852
836.202	24996
836.34	24981
836.478	25118
836.615	24958
836.753	24977
836.891	25099
837.029	24970
837.167	25095
837.305	24966
837.443	24814
837.58	24844
837.718	24886
837.856	24966
837.993	24814
838.131	24875
838.269	24825
838.406	24719
838.544	24620
838.681	24528
838.819	24464
838.956	24277
839.094	24353
839.231	24395
839.369	24498
839.506	24749
839.643	24547
839.781	24384
839.918	24376
840.055	24372
840.193	24346
840.33	24277
840.467	24338
840.604	24209
840.742	24517
840.879	24114
841.016	24140
841.153	24053
841.29	24429
841.427	24194
841.564	24247
841.701	24292
841.838	24174
841.975	24079
842.112	24034
842.249	23977
842.385	23992
842.522	24327
842.659	23969
842.796	23836
842.933	23920
843.069	23874
843.206	23843
843.343	24110
843.479	24064
843.616	23931
843.752	23707
843.889	23726
844.025	24079
844.162	23802
844.298	23916
844.435	23809
844.571	23707
844.708	23836
844.844	23931
844.98	23798
845.117	23893
845.253	23729
845.389	23634
845.525	23600
845.661	23558
845.798	23547
845.934	23619
846.07	23531
846.206	23577
846.342	23520
846.478	23520
846.614	23254
846.75	23056
846.886	23277
847.022	23307
847.158	23254
847.294	23204
847.429	23223
847.565	23204
847.701	23566
847.837	22965
847.972	22820
848.108	22957
848.244	22957
848.379	22755
848.515	22759
848.65	22866
848.786	22885
848.921	22812
849.057	22889
849.192	22995
849.328	22759
849.463	22900
849.598	22790
849.734	22626
849.869	22702
850.004	22611
850.14	22656
850.275	22675
850.41	22398
850.545	22538
850.68	22557
850.815	22580
850.95	22577
851.085	22687
851.22	22694
851.355	22565
851.49	22405
851.625	22615
851.76	22531
851.895	22512
852.03	22470
852.165	22516
852.299	22645
852.434	22618
852.569	22645
852.703	22538
852.838	22470
852.973	22596
853.107	22634
853.242	22451
853.376	22390
853.511	22188
853.645	22367
853.78	22455
853.914	22462
854.048	22459
854.183	22344
854.317	22402
854.451	22713
854.585	22493
854.72	22417
854.854	22428
854.988	22363
855.122	22424
855.256	22211
855.39	22371
855.524	22485
855.658	22303
855.792	22409
855.926	22466
856.06	22531
856.194	22474
856.327	22272
856.461	22333
856.595	22299
856.729	22421
856.862	22462
856.996	22371
857.13	22375
857.263	22500
857.397	22485
857.53	22398
857.664	22299
857.797	22489
857.931	22443
858.064	22379
858.197	22451
858.331	22284
858.464	22265
858.597	22181
858.731	22352
858.864	22375
858.997	22344
859.13	22436
859.263	22440
859.396	22493
859.529	22261
859.662	22341
859.795	22451
859.928	22268
860.061	22531
860.194	22508
860.327	22287
860.46	22360
860.592	22504
860.725	22535
860.858	22504
860.99	22295
861.123	22318
861.256	22394
861.388	22310
861.521	23147
861.653	22207
861.786	22116
861.918	22192
862.05	22143
862.183	22375
862.315	22242
862.447	22421
862.58	22268
862.712	22105
862.844	22044
862.976	22230
863.108	22185
863.24	22363
863.372	22131
863.504	22074
863.636	22029
863.768	22242
863.9	22040
864.032	22070
864.164	22006
864.296	22105
864.428	22196
864.559	22173
864.691	22120
864.823	22177
864.954	22082
865.086	22070
865.217	22055
865.349	21968
865.48	21922
865.612	22032
865.743	22067
865.875	21918
866.006	21846
866.137	22040
866.269	21960
866.4	21934
866.531	21842
866.662	21964
866.793	21835
866.924	21911
867.055	21937
867.186	21934
867.317	21876
867.448	21964
867.579	21895
867.71	21808
867.841	21766
867.972	21888
868.103	21819
868.233	21953
868.364	21861
868.495	21964
868.625	22192
868.756	22147
868.886	22109
869.017	22147
869.147	22276
869.278	22188
869.408	22135
869.539	22150
869.669	22234
869.799	22166
869.929	22242
870.06	22280
870.19	22516
870.32	22386
870.45	22428
870.58	22580
870.71	22672
870.84	22599
870.97	22516
871.1	22459
871.23	22592
871.36	22778
871.489	22565
871.619	22717
871.749	22733
871.879	22668
872.008	22831
872.138	22759
872.267	22752
872.397	22554
872.526	22569
872.656	22565
872.785	22588
872.915	22805
873.044	22790
873.173	22626
873.303	22774
873.432	22908
873.561	22831
873.69	22820
873.819	22786
873.948	22839
874.077	22637
874.206	22687
874.335	22790
874.464	22843
874.593	23003
874.722	22965
874.851	23086
874.979	22980
875.108	23060
875.237	22835
875.365	22797
875.494	22953
875.623	23044
875.751	22938
875.88	22946
876.008	23052
876.136	23102
876.265	23535
876.393	23482
876.521	23353
876.65	23387
876.778	23379
876.906	23395
877.034	23330
877.162	23322
877.29	23143
877.418	23368
877.546	23322
877.674	23292
877.802	23140
877.93	23334
878.058	23254
878.185	23151
878.313	23239
878.441	23398
878.568	23029
878.696	23269
878.824	23280
878.951	23360
879.079	23493
879.206	23577
879.333	23417
879.461	23349
879.588	23471
879.715	23505
879.842	23505
879.97	23277
880.097	23014
880.224	23147
880.351	23208
880.478	23128
880.605	23216
880.732	22991
880.859	23284
880.986	23090
881.112	23124
881.239	22919
881.366	22843
881.493	22866
881.619	22801
881.746	22721
881.872	22759
881.999	22603
882.125	22512
882.252	22535
882.378	22622
882.505	22733
882.631	22474
882.757	22443
882.883	22478
883.01	22371
883.136	22352
883.262	22329
883.388	22162
883.514	22188
883.64	22489
883.766	22424
883.892	22032
884.018	22006
884.143	22344
884.269	22386
884.395	22040
884.52	21911
884.646	22025
884.772	21937
884.897	21762
885.023	22021
885.148	22116
885.274	22090
885.399	22021
885.524	21979
885.65	21979
885.775	22036
885.9	21945
886.025	22063
886.15	22063
886.275	21922
886.4	21842
886.525	21991
886.65	22067
886.775	21934
886.9	22162
887.025	22291
887.149	21949
887.274	21713
887.399	21743
887.523	21823
887.648	21759
887.773	21610
887.897	21781
888.021	21869
888.146	21694
888.27	21778
888.395	21747
888.519	21736
888.643	21690
888.767	21747
888.891	21698
889.015	21545
889.139	21564
889.263	21477
889.387	21648
889.511	21705
889.635	21656
889.759	21568
889.883	21595
890.006	21610
890.13	21652
890.254	21302
890.377	21435
890.501	21150
890.624	21298
890.748	21317
890.871	21199
890.995	21043
891.118	20998
891.241	21093
891.364	21062
891.488	21119
891.611	21001
891.734	21176
891.857	21264
891.98	21093
892.103	21173
892.226	21116
892.349	20998
892.471	20842
892.594	20967
892.717	21062
892.839	21024
892.962	20998
893.085	21108
893.207	20937
893.33	20792
893.452	21039
893.575	21077
893.697	20910
893.819	21116
893.941	21127
894.064	21085
894.186	21001
894.308	20876
894.43	20982
894.552	21188
894.674	21119
894.796	20807
894.918	20910
895.04	20967
895.161	21024
895.283	21009
895.405	20800
895.526	20834
895.648	20979
895.769	20941
895.891	20868
896.012	21070
896.134	20929
896.255	20948
896.376	20975
896.498	20933
896.619	21013
896.74	20960
896.861	20929
896.982	21283
897.103	21439
897.224	21207
897.345	21173
897.466	21100
897.587	21077
897.708	21256
897.828	21203
897.949	21138
898.07	20982
898.19	21112
898.311	21245
898.431	21142
898.552	21268
898.672	21306
898.792	21089
898.913	21119
899.033	21119
899.153	20910
899.273	20887
899.393	20864
899.513	20975
899.633	20990
899.753	20823
899.873	20921
899.993	20902
900.113	20750
900.232	20842
900.352	20857
900.472	20743
900.591	20606
900.711	20632
900.83	20575
900.95	20746
901.069	20731
901.189	20617
901.308	20377
901.427	20195
901.546	20286
901.665	20286
901.784	20259
901.904	20088
902.023	19970
902.141	19822
902.26	19719
902.379	19738
902.498	19780
902.617	19670
902.735	19799
902.854	19795
902.973	19704
903.091	19377
903.21	19400
903.328	19426
903.446	19331
903.565	19209
903.683	19171
903.801	19046
903.919	19065
904.038	19126
904.156	18962
904.274	19152
904.392	19057
904.51	18935
904.627	18924
904.745	19038
904.863	18954
904.981	18654
905.098	18677
905.216	18623
905.334	18673
905.451	18703
905.569	18696
905.686	18566
905.803	18578
905.921	18292
906.038	18441
906.155	18414
906.272	18277
906.389	18300
906.506	18095
906.623	18106
906.74	18064
906.857	17969
906.974	18064
907.091	18201
907.208	18262
907.324	18140
907.441	17977
907.557	17939
907.674	17923
907.79	17821
907.907	17828
908.023	17977
908.139	17828
908.256	17836
908.372	17779
908.488	17802
908.604	17661
908.72	17570
908.836	17600
908.952	17497
909.068	17638
909.184	17589
909.3	17589
909.415	17611
909.531	17577
909.647	17341
909.762	17326
909.878	17265
909.993	17254
910.108	17303
910.224	17265
910.339	17269
910.454	17079
910.57	17083
910.685	16984
910.8	17178
910.915	17140
911.03	17098
911.145	16896
911.259	16866
911.374	16782
911.489	16725
911.604	16698
911.718	16527
911.833	16554
911.947	16519
912.062	16421
912.176	16546
912.291	16592
912.405	16599
912.519	16721
912.633	16733
912.748	16649
912.862	16516
912.976	16379
913.09	16337
913.204	16325
913.318	16405
913.431	16527
913.545	16535
913.659	16485
913.772	16295
913.886	16139
914	16101
914.113	16310
914.226	16284
914.34	16185
914.453	16135
914.566	16318
914.68	16013
914.793	16021
914.906	15861
915.019	15880
915.132	15705
915.245	15857
915.358	15747
915.47	15698
915.583	15778
915.696	15800
915.809	15842
915.921	15956
916.034	15641
916.146	15648
916.259	15614
916.371	15739
916.483	15701
916.595	15561
916.708	15542
916.82	15679
916.932	15492
917.044	15515
917.156	15534
917.268	15435
917.38	15382
917.491	15488
917.603	15401
917.715	15538
917.826	15447
917.938	15378
918.049	15192
918.161	15325
918.272	15545
918.384	15492
918.495	15386
918.606	15226
918.717	15184
918.828	15184
918.939	15127
919.05	15100
919.161	15036
919.272	15001
919.383	15039
919.494	15123
919.604	15275
919.715	15085
919.826	15001
919.936	15135
920.047	15184
920.157	15097
920.267	15302
920.378	15108
920.488	15112
920.598	15157
920.708	15424
920.818	15180
920.928	15211
921.038	15348
921.148	15325
921.258	15036
921.368	14914
921.477	14811
921.587	14823
921.697	14796
921.806	14880
921.916	14617
922.025	14575
922.134	14476
922.244	14431
922.353	14385
922.462	14351
922.571	14240
922.68	14081
922.789	14103
922.898	14084
923.007	14016
923.116	14100
923.224	14039
923.333	14058
923.442	13959
923.55	13906
923.659	13925
923.767	14031
923.876	13795
923.984	13818
924.092	13776
924.201	13932
924.309	13883
924.417	13822
924.525	13719
924.633	13700
924.741	14461
924.849	13578
924.956	13723
925.064	13483
925.172	13396
925.279	13472
925.387	13578
925.494	13559
925.602	13563
925.709	13556
925.816	13331
925.924	13396
926.031	13487
926.138	13327
926.245	13472
926.352	13278
926.459	13396
926.566	13464
926.673	13304
926.779	13217
926.886	13175
926.993	13042
927.099	13042
927.206	13023
927.312	13012
927.419	13069
927.525	13023
927.631	12981
927.737	12928
927.843	12859
927.95	12779
928.056	12760
928.162	12859
928.267	12890
928.373	13434
928.479	12932
928.585	12635
928.69	12726
928.796	12715
928.901	12696
929.007	12479
929.112	12627
929.218	12612
929.323	12623
929.428	12547
929.533	12623
929.638	12540
929.743	12452
929.848	12513
929.953	12498
930.058	12414
930.163	12201
930.267	12304
930.372	12315
930.477	12102
930.581	12391
930.685	12357
930.79	12076
930.894	12140
930.998	12129
931.103	12140
931.207	11832
931.311	11783
931.415	11600
931.519	11395
931.623	11474
