Data from test_V78500241_600.txt Node
Date: Fri Mar 25 15:45:57 CST 2022
User: usil
Spectrometer: V785-0024
Trigger mode: 0
Integration Time (sec): 4.000000E-1
Scans to average: 1
Nonlinearity correction enabled: false
Boxcar width: 0
Storing dark spectrum: false
XAxis mode: Wavelengths
Number of Pixels in Spectrum: 1024
>>>>>Begin Spectral Data<<<<<
801.071	27450
801.214	27302
801.356	27089
801.499	26956
801.641	26781
801.783	26899
801.926	26982
802.068	26815
802.211	26750
802.353	26621
802.496	26621
802.638	26556
802.78	26427
802.923	26457
803.065	26343
803.208	26442
803.35	26480
803.492	26503
803.635	26670
803.777	26667
803.919	26507
804.061	26933
804.204	26682
804.346	26689
804.488	26526
804.63	26629
804.773	26431
804.915	26724
805.057	26788
805.199	26636
805.341	26739
805.483	26800
805.626	26857
805.768	26773
805.91	26887
806.052	26739
806.194	26644
806.336	26990
806.478	26883
806.62	26765
806.762	26929
806.904	27047
807.046	27466
807.188	27287
807.33	27199
807.472	27116
807.614	27116
807.756	27028
807.898	27043
808.04	26914
808.182	26921
808.324	26933
808.465	26967
808.607	27203
808.749	27367
808.891	27447
809.033	27496
809.174	27332
809.316	27507
809.458	27332
809.6	27420
809.741	27469
809.883	27542
810.025	27686
810.166	27641
810.308	27698
810.45	27542
810.591	27492
810.733	27450
810.875	27291
811.016	27325
811.158	27344
811.299	27553
811.441	27629
811.582	27447
811.724	27351
811.865	27245
812.007	27344
812.148	27397
812.29	27408
812.431	27568
812.573	27656
812.714	27854
812.855	27850
812.997	27994
813.138	28021
813.279	28017
813.421	27930
813.562	27975
813.703	27713
813.845	27610
813.986	27180
814.127	27066
814.268	27032
814.41	27116
814.551	26971
814.692	27184
814.833	27043
814.974	27062
815.115	27055
815.256	26990
815.397	26861
815.539	26902
815.68	26781
815.821	26636
815.962	26758
816.103	26762
816.244	26632
816.385	26613
816.526	26629
816.666	26476
816.807	26286
816.948	26469
817.089	26336
817.23	26442
817.371	26271
817.512	26320
817.653	26271
817.793	26355
817.934	26351
818.075	26351
818.216	26240
818.356	26396
818.497	26248
818.638	26069
818.778	26218
818.919	26111
819.06	26138
819.2	26282
819.341	26282
819.481	26263
819.622	26408
819.762	26526
819.903	26469
820.043	26434
820.184	26434
820.324	26381
820.465	26503
820.605	26389
820.746	26305
820.886	26309
821.026	26442
821.167	26275
821.307	26404
821.447	26343
821.588	26301
821.728	26012
821.868	26016
822.008	25784
822.149	25814
822.289	25624
822.429	25499
822.569	25518
822.709	25419
822.849	25331
822.99	25381
823.13	25369
823.27	25202
823.41	25069
823.55	25000
823.69	25114
823.83	25088
823.97	25107
824.11	24882
824.25	24951
824.389	24943
824.529	24935
824.669	24913
824.809	25019
824.949	25072
825.089	24996
825.228	25084
825.368	24772
825.508	24722
825.648	24859
825.787	24833
825.927	24840
826.067	24776
826.206	24806
826.346	24890
826.485	24817
826.625	24760
826.765	24901
826.904	24753
827.044	24540
827.183	24483
827.323	24608
827.462	24452
827.601	24445
827.741	24410
827.88	24517
828.02	24327
828.159	24494
828.298	24536
828.437	24551
828.577	24323
828.716	24452
828.855	24513
828.994	24243
829.134	24262
829.273	24289
829.412	24277
829.551	24133
829.69	24186
829.829	24228
829.968	24357
830.107	24064
830.246	24254
830.385	24273
830.524	24087
830.663	24045
830.802	23961
830.941	23748
831.08	23802
831.219	23916
831.357	23813
831.496	24064
831.635	23786
831.774	23649
831.913	23748
832.051	23634
832.19	23516
832.329	23684
832.467	23474
832.606	23471
832.744	23379
832.883	23493
833.022	23505
833.16	23429
833.299	23478
833.437	23433
833.576	23619
833.714	23547
833.852	23528
833.991	23604
834.129	23687
834.267	23490
834.406	23516
834.544	23570
834.682	23490
834.821	23535
834.959	23714
835.097	23589
835.235	23684
835.373	23520
835.511	23421
835.65	23379
835.788	23299
835.926	23181
836.064	23136
836.202	23269
836.34	23402
836.478	23452
836.615	23353
836.753	23322
836.891	23486
837.029	23307
837.167	23383
837.305	23299
837.443	23303
837.58	23193
837.718	23376
837.856	23273
837.993	23140
838.131	23151
838.269	23136
838.406	23132
838.544	23052
838.681	22972
838.819	22824
838.956	22664
839.094	22729
839.231	22771
839.369	22805
839.506	23018
839.643	22908
839.781	22733
839.918	22592
840.055	22668
840.193	22653
840.33	22535
840.467	22618
840.604	22641
840.742	22801
840.879	22481
841.016	22622
841.153	22379
841.29	22599
841.427	22603
841.564	22664
841.701	22637
841.838	22573
841.975	22538
842.112	22577
842.249	22432
842.385	22382
842.522	22516
842.659	22421
842.796	22363
842.933	22284
843.069	22329
843.206	22318
843.343	22356
843.479	22398
843.616	22382
843.752	22090
843.889	22154
844.025	22223
844.162	22021
844.298	22223
844.435	22055
844.571	22097
844.708	22067
844.844	22322
844.98	22207
845.117	22200
845.253	22177
845.389	21968
845.525	22074
845.661	22154
845.798	21884
845.934	22101
846.07	21846
846.206	21907
846.342	22017
846.478	21846
846.614	21595
846.75	21618
846.886	21523
847.022	21667
847.158	21568
847.294	21545
847.429	21690
847.565	21485
847.701	21850
847.837	21389
847.972	21321
848.108	21424
848.244	21382
848.379	21332
848.515	21142
848.65	21241
848.786	21173
848.921	21218
849.057	21310
849.192	21329
849.328	21241
849.463	21176
849.598	21104
849.734	21138
849.869	21047
850.004	21058
850.14	21043
850.275	20990
850.41	20967
850.545	20876
850.68	20944
850.815	21001
850.95	20994
851.085	21157
851.22	20982
851.355	20948
851.49	20811
851.625	20868
851.76	20998
851.895	20781
852.03	20880
852.165	20902
852.299	20963
852.434	20982
852.569	21085
852.703	20975
852.838	20944
852.973	21058
853.107	21047
853.242	20853
853.376	20800
853.511	20712
853.645	20785
853.78	20792
853.914	20838
854.048	20842
854.183	20689
854.317	20876
854.451	20872
854.585	20765
854.72	20785
854.854	20902
854.988	20849
855.122	20670
855.256	20682
855.39	20777
855.524	20834
855.658	20876
855.792	20739
855.926	20788
856.06	20815
856.194	20750
856.327	20758
856.461	20617
856.595	20731
856.729	20796
856.862	20743
856.996	20857
857.13	20815
857.263	20967
857.397	20853
857.53	20785
857.664	20921
857.797	20883
857.931	20910
858.064	20792
858.197	20933
858.331	20773
858.464	20785
858.597	20606
858.731	20845
858.864	20697
858.997	20773
859.13	20773
859.263	20758
859.396	20838
859.529	20712
859.662	20895
859.795	20693
859.928	20781
860.061	20963
860.194	21009
860.327	20864
860.46	20724
860.592	20811
860.725	21013
860.858	20910
860.99	20800
861.123	20727
861.256	20727
861.388	20849
861.521	21370
861.653	20598
861.786	20575
861.918	20587
862.05	20613
862.183	20659
862.315	20785
862.447	20826
862.58	20674
862.712	20499
862.844	20594
862.976	20587
863.108	20689
863.24	20979
863.372	20389
863.504	20476
863.636	20564
863.768	20556
863.9	20469
864.032	20454
864.164	20476
864.296	20503
864.428	20602
864.559	20541
864.691	20541
864.823	20454
864.954	20450
865.086	20590
865.217	20503
865.349	20267
865.48	20514
865.612	20480
865.743	20617
865.875	20427
866.006	20298
866.137	20408
866.269	20385
866.4	20385
866.531	20313
866.662	20366
866.793	20271
866.924	20324
867.055	20336
867.186	20290
867.317	20282
867.448	20168
867.579	20317
867.71	20225
867.841	20298
867.972	20320
868.103	20427
868.233	20412
868.364	20419
868.495	20476
868.625	20598
868.756	20743
868.886	20670
869.017	20549
869.147	20655
869.278	20686
869.408	20678
869.539	20537
869.669	20632
869.799	20583
869.929	20636
870.06	20537
870.19	20872
870.32	20746
870.45	21020
870.58	20864
870.71	21051
870.84	21096
870.97	20986
871.1	20921
871.23	21184
871.36	21192
871.489	21085
871.619	21252
871.749	21127
871.879	21112
872.008	21207
872.138	21218
872.267	21340
872.397	21074
872.526	20956
872.656	20998
872.785	20982
872.915	21146
873.044	21298
873.173	21226
873.303	21249
873.432	21291
873.561	21306
873.69	21218
873.819	21180
873.948	21233
874.077	21306
874.206	21188
874.335	21245
874.464	21325
874.593	21378
874.722	21393
874.851	21481
874.979	21466
875.108	21481
875.237	21412
875.365	21363
875.494	21325
875.623	21576
875.751	21447
875.88	21519
876.008	21496
876.136	21671
876.265	21781
876.393	21915
876.521	21850
876.65	21937
876.778	21835
876.906	21762
877.034	21835
877.162	21865
877.29	21827
877.418	21762
877.546	21743
877.674	21842
877.802	21762
877.93	21869
878.058	21804
878.185	21637
878.313	21747
878.441	21846
878.568	21652
878.696	21690
878.824	21717
878.951	22006
879.079	22029
879.206	22097
879.333	21918
879.461	21766
879.588	21861
879.715	21876
879.842	22105
879.97	21915
880.097	21686
880.224	21599
880.351	21709
880.478	21572
880.605	21526
880.732	21572
880.859	21762
880.986	21637
881.112	21603
881.239	21454
881.366	21256
881.493	21291
881.619	21176
881.746	21119
881.872	21310
881.999	21203
882.125	21230
882.252	21256
882.378	21119
882.505	21325
882.631	21108
882.757	20979
882.883	21085
883.01	20876
883.136	20921
883.262	20712
883.388	20727
883.514	20910
883.64	20868
883.766	20986
883.892	20716
884.018	20743
884.143	20876
884.269	20975
884.395	20609
884.52	20598
884.646	20511
884.772	20469
884.897	20461
885.023	20556
885.148	20575
885.274	20655
885.399	20655
885.524	20613
885.65	20594
885.775	20518
885.9	20476
886.025	20613
886.15	20522
886.275	20442
886.4	20469
886.525	20526
886.65	20568
886.775	20522
886.9	20693
887.025	20682
887.149	20495
887.274	20294
887.399	20370
887.523	20343
887.648	20358
887.773	20119
887.897	20343
888.021	20252
888.146	20275
888.27	20476
888.395	20381
888.519	20351
888.643	20362
888.767	20438
888.891	20180
889.015	20119
889.139	20176
889.263	20130
889.387	20244
889.511	20309
889.635	20134
889.759	20081
889.883	20088
890.006	20206
890.13	20168
890.254	19833
890.377	20073
890.501	19925
890.624	19875
890.748	19845
890.871	19689
890.995	19677
891.118	19655
891.241	19742
891.364	19780
891.488	19788
891.611	19715
891.734	19674
891.857	19651
891.98	19772
892.103	19723
892.226	19704
892.349	19616
892.471	19495
892.594	19696
892.717	19632
892.839	19597
892.962	19704
893.085	19696
893.207	19765
893.33	19453
893.452	19521
893.575	19655
893.697	19597
893.819	19837
893.941	19708
894.064	19696
894.186	19540
894.308	19605
894.43	19605
894.552	19753
894.674	19761
894.796	19537
894.918	19655
895.04	19533
895.161	19750
895.283	19620
895.405	19556
895.526	19715
895.648	19529
895.769	19696
895.891	19651
896.012	19795
896.134	19674
896.255	19750
896.376	19597
896.498	19727
896.619	19674
896.74	19689
896.861	19772
896.982	20043
897.103	20210
897.224	19871
897.345	19883
897.466	19856
897.587	19913
897.708	19982
897.828	19868
897.949	19677
898.07	19635
898.19	19822
898.311	19982
898.431	19731
898.552	19887
898.672	19955
898.792	20005
898.913	19936
899.033	19845
899.153	19708
899.273	19677
899.393	19670
899.513	19578
899.633	19700
899.753	19658
899.873	19559
899.993	19605
900.113	19620
900.232	19700
900.352	19529
900.472	19460
900.591	19426
900.711	19586
900.83	19377
900.95	19426
901.069	19559
901.189	19282
901.308	18981
901.427	19050
901.546	19004
901.665	19129
901.784	18951
901.904	18916
902.023	18840
902.141	18597
902.26	18475
902.379	18730
902.498	18353
902.617	18540
902.735	18506
902.854	18460
902.973	18327
903.091	18190
903.21	18163
903.328	18228
903.446	18125
903.565	17965
903.683	17958
903.801	17977
903.919	17954
904.038	17931
904.156	17832
904.274	17836
904.392	17771
904.51	17794
904.627	17775
904.745	17836
904.863	17817
904.981	17524
905.098	17410
905.216	17421
905.334	17528
905.451	17509
905.569	17501
905.686	17471
905.803	17463
905.921	17280
906.038	17307
906.155	17231
906.272	17098
906.389	17162
906.506	16999
906.623	17018
906.74	16987
906.857	16828
906.974	16881
907.091	16953
907.208	17052
907.324	16984
907.441	16824
907.557	16679
907.674	16664
907.79	16694
907.907	16683
908.023	16725
908.139	16729
908.256	16584
908.372	16706
908.488	16527
908.604	16417
908.72	16337
908.836	16466
908.952	16455
909.068	16455
909.184	16527
909.3	16451
909.415	16405
909.531	16466
909.647	16067
909.762	16093
909.878	16078
909.993	16192
910.108	16166
910.224	16143
910.339	16112
910.454	16013
910.57	15915
910.685	15827
910.8	16166
910.915	16158
911.03	15907
911.145	15778
911.259	15709
911.374	15720
911.489	15637
911.604	15591
911.718	15500
911.833	15454
911.947	15447
912.062	15332
912.176	15523
912.291	15526
912.405	15485
912.519	15663
912.633	15736
912.748	15523
912.862	15408
912.976	15397
913.09	15127
913.204	15306
913.318	15237
913.431	15378
913.545	15420
913.659	15291
913.772	15188
913.886	15260
914	15123
914.113	15252
914.226	15211
914.34	15169
914.453	14967
914.566	15188
914.68	15062
914.793	14941
914.906	14758
915.019	14708
915.132	14667
915.245	14610
915.358	14819
915.47	14743
915.583	14739
915.696	14686
915.809	14921
915.921	14914
916.034	14575
916.146	14590
916.259	14556
916.371	14746
916.483	14526
916.595	14571
916.708	14655
916.82	14541
916.932	14556
917.044	14514
917.156	14457
917.268	14374
917.38	14495
917.491	14252
917.603	14450
917.715	14457
917.826	14419
917.938	14305
918.049	14164
918.161	14404
918.272	14336
918.384	14419
918.495	14370
918.606	14240
918.717	14119
918.828	14263
918.939	14206
919.05	14001
919.161	14065
919.272	14012
919.383	14016
919.494	14138
919.604	14381
919.715	14187
919.826	14161
919.936	14145
920.047	14214
920.157	14134
920.267	14415
920.378	14077
920.488	14195
920.598	14271
920.708	14484
920.818	14290
920.928	14199
921.038	14507
921.148	14377
921.258	14134
921.368	14020
921.477	13928
921.587	13909
921.697	13742
921.806	13879
921.916	13704
922.025	13563
922.134	13605
922.244	13483
922.353	13457
922.462	13422
922.571	13377
922.68	13183
922.789	13232
922.898	13247
923.007	13126
923.116	13209
923.224	13099
923.333	13190
923.442	13072
923.55	13053
923.659	13034
923.767	13053
923.876	13034
923.984	13042
924.092	12939
924.201	13004
924.309	12890
924.417	12943
924.525	12859
924.633	12852
924.741	13734
924.849	12654
924.956	12913
925.064	12642
925.172	12589
925.279	12601
925.387	12639
925.494	12608
925.602	12757
925.709	12730
925.816	12547
925.924	12547
926.031	12589
926.138	12585
926.245	12665
926.352	12437
926.459	12570
926.566	12616
926.673	12407
926.779	12388
926.886	12448
926.993	12251
927.099	12121
927.206	12178
927.312	12194
927.419	12285
927.525	12220
927.631	12235
927.737	12083
927.843	12072
927.95	11870
928.056	11977
928.162	12022
928.267	12068
928.373	12703
928.479	12140
928.585	11836
928.69	11961
928.796	12011
928.901	11927
929.007	11764
929.112	11794
929.218	11889
929.323	11824
929.428	11684
929.533	11874
929.638	11699
929.743	11729
929.848	11771
929.953	11729
930.058	11562
930.163	11425
930.267	11459
930.372	11619
930.477	11463
930.581	11615
930.685	11509
930.79	11360
930.894	11379
930.998	11345
931.103	11455
931.207	11083
931.311	11064
931.415	10946
931.519	10721
931.623	10752
