Data from test_V78500241_1163.txt Node
Date: Fri Mar 25 15:49:51 CST 2022
User: usil
Spectrometer: V785-0024
Trigger mode: 0
Integration Time (sec): 4.000000E-1
Scans to average: 1
Nonlinearity correction enabled: false
Boxcar width: 0
Storing dark spectrum: false
XAxis mode: Wavelengths
Number of Pixels in Spectrum: 1024
>>>>>Begin Spectral Data<<<<<
801.071	28782
801.214	28603
801.356	28481
801.499	28299
801.641	28185
801.783	28143
801.926	28295
802.068	28139
802.211	28158
802.353	28010
802.496	27907
802.638	28006
802.78	27873
802.923	27842
803.065	27778
803.208	27747
803.35	27991
803.492	27930
803.635	27987
803.777	27945
803.919	28211
804.061	28455
804.204	28177
804.346	28093
804.488	28032
804.63	28090
804.773	28131
804.915	28177
805.057	28192
805.199	28150
805.341	28185
805.483	28131
805.626	28306
805.768	28204
805.91	28386
806.052	28417
806.194	28291
806.336	28535
806.478	28280
806.62	28211
806.762	28481
806.904	28675
807.046	28904
807.188	28816
807.33	28862
807.472	28984
807.614	28645
807.756	28615
807.898	28641
808.04	28546
808.182	28679
808.324	28744
808.465	28573
808.607	28892
808.749	29067
808.891	29086
809.033	29189
809.174	29079
809.316	28934
809.458	28862
809.6	28923
809.741	29147
809.883	29307
810.025	29220
810.166	29353
810.308	29429
810.45	29303
810.591	29124
810.733	29140
810.875	28942
811.016	28957
811.158	28938
811.299	29143
811.441	29178
811.582	29185
811.724	29071
811.865	28892
812.007	28968
812.148	29052
812.29	29098
812.431	29193
812.573	29414
812.714	29547
812.855	29501
812.997	29748
813.138	29722
813.279	29741
813.421	29589
813.562	29668
813.703	29391
813.845	29197
813.986	29003
814.127	28854
814.268	28797
814.41	28767
814.551	28664
814.692	28786
814.833	28702
814.974	28843
815.115	28778
815.256	28580
815.397	28599
815.539	28584
815.68	28557
815.821	28546
815.962	28573
816.103	28493
816.244	28462
816.385	28390
816.526	28284
816.666	28185
816.807	28131
816.948	28105
817.089	28246
817.23	28215
817.371	27975
817.512	28124
817.653	28074
817.793	28006
817.934	28135
818.075	27987
818.216	28086
818.356	28013
818.497	27949
818.638	27979
818.778	27873
818.919	27816
819.06	27736
819.2	27934
819.341	27949
819.481	27937
819.622	28177
819.762	28421
819.903	28188
820.043	28261
820.184	28131
820.324	28124
820.465	28310
820.605	28128
820.746	28116
820.886	27991
821.026	28200
821.167	28097
821.307	28265
821.447	28112
821.588	28044
821.728	27755
821.868	27755
822.008	27526
822.149	27580
822.289	27587
822.429	27351
822.569	27325
822.709	27264
822.849	27108
822.99	27089
823.13	26948
823.27	27005
823.41	26845
823.55	26777
823.69	26845
823.83	27005
823.97	26765
824.11	26682
824.25	26686
824.389	26708
824.529	26792
824.669	26796
824.809	26891
824.949	26811
825.089	26902
825.228	26807
825.368	26579
825.508	26621
825.648	26575
825.787	26617
825.927	26598
826.067	26613
826.206	26545
826.346	26560
826.485	26594
826.625	26697
826.765	26590
826.904	26636
827.044	26385
827.183	26332
827.323	26298
827.462	26427
827.601	26336
827.741	26377
827.88	26298
828.02	26164
828.159	26252
828.298	26362
828.437	26324
828.577	26301
828.716	26415
828.855	26183
828.994	25974
829.134	26001
829.273	26084
829.412	26043
829.551	25947
829.69	25982
829.829	26172
829.968	26134
830.107	26001
830.246	25959
830.385	25845
830.524	25898
830.663	25940
830.802	25753
830.941	25563
831.08	25567
831.219	25696
831.357	25712
831.496	25932
831.635	25651
831.774	25548
831.913	25506
832.051	25479
832.19	25464
832.329	25453
832.467	25198
832.606	25255
832.744	25118
832.883	25282
833.022	25247
833.16	25354
833.299	25316
833.437	25422
833.576	25445
833.714	25240
833.852	25377
833.991	25476
834.129	25358
834.267	25384
834.406	25331
834.544	25358
834.682	25316
834.821	25354
834.959	25468
835.097	25354
835.235	25407
835.373	25426
835.511	25377
835.65	25202
835.788	25091
835.926	25076
836.064	24996
836.202	24962
836.34	25126
836.478	25152
836.615	25171
836.753	25156
836.891	25266
837.029	25160
837.167	25122
837.305	25099
837.443	25050
837.58	24981
837.718	24992
837.856	24977
837.993	24954
838.131	25053
838.269	24837
838.406	24943
838.544	24856
838.681	24669
838.819	24566
838.956	24410
839.094	24334
839.231	24494
839.369	24563
839.506	24837
839.643	24715
839.781	24585
839.918	24418
840.055	24464
840.193	24258
840.33	24380
840.467	24498
840.604	24334
840.742	24646
840.879	24201
841.016	24285
841.153	24171
841.29	24448
841.427	24388
841.564	24353
841.701	24342
841.838	24254
841.975	24182
842.112	24209
842.249	24174
842.385	24091
842.522	24220
842.659	24182
842.796	24083
842.933	24148
843.069	24064
843.206	24003
843.343	24209
843.479	24049
843.616	24133
843.752	23950
843.889	23866
844.025	23992
844.162	23885
844.298	23935
844.435	23893
844.571	23786
844.708	24072
844.844	24057
844.98	23885
845.117	23923
845.253	23790
845.389	23687
845.525	23836
845.661	23642
845.798	23600
845.934	23630
846.07	23589
846.206	23695
846.342	23710
846.478	23535
846.614	23406
846.75	23178
846.886	23330
847.022	23436
847.158	23337
847.294	23330
847.429	23414
847.565	23296
847.701	23653
847.837	23079
847.972	23079
848.108	23246
848.244	23105
848.379	23010
848.515	22984
848.65	22881
848.786	22877
848.921	22934
849.057	22946
849.192	23041
849.328	22850
849.463	22984
849.598	22809
849.734	22923
849.869	22809
850.004	22805
850.14	22687
850.275	22824
850.41	22596
850.545	22615
850.68	22611
850.815	22645
850.95	22660
851.085	22854
851.22	22748
851.355	22736
851.49	22740
851.625	22519
851.76	22653
851.895	22603
852.03	22683
852.165	22706
852.299	22786
852.434	22767
852.569	22603
852.703	22615
852.838	22733
852.973	22752
853.107	22824
853.242	22603
853.376	22451
853.511	22455
853.645	22516
853.78	22713
853.914	22478
854.048	22527
854.183	22535
854.317	22584
854.451	22679
854.585	22493
854.72	22432
854.854	22500
854.988	22470
855.122	22478
855.256	22508
855.39	22489
855.524	22516
855.658	22512
855.792	22508
855.926	22462
856.06	22550
856.194	22527
856.327	22443
856.461	22432
856.595	22409
856.729	22554
856.862	22706
856.996	22451
857.13	22580
857.263	22634
857.397	22584
857.53	22485
857.664	22542
857.797	22569
857.931	22717
858.064	22489
858.197	22535
858.331	22455
858.464	22459
858.597	22466
858.731	22428
858.864	22360
858.997	22443
859.13	22466
859.263	22470
859.396	22618
859.529	22455
859.662	22474
859.795	22371
859.928	22382
860.061	22615
860.194	22710
860.327	22519
860.46	22402
860.592	22584
860.725	22793
860.858	22653
860.99	22516
861.123	22356
861.256	22440
861.388	22546
861.521	23208
861.653	22424
861.786	22242
861.918	22390
862.05	22371
862.183	22462
862.315	22432
862.447	22481
862.58	22363
862.712	22226
862.844	22246
862.976	22299
863.108	22295
863.24	22630
863.372	22143
863.504	22074
863.636	22207
863.768	22154
863.9	22158
864.032	22105
864.164	22196
864.296	22162
864.428	22272
864.559	22249
864.691	22287
864.823	22154
864.954	22109
865.086	22253
865.217	22204
865.349	22063
865.48	22040
865.612	22090
865.743	22124
865.875	22070
866.006	22059
866.137	22128
866.269	22029
866.4	22032
866.531	22040
866.662	21915
866.793	22044
866.924	21983
867.055	21956
867.186	22002
867.317	22051
867.448	21941
867.579	22070
867.71	22059
867.841	21854
867.972	21979
868.103	21972
868.233	22044
868.364	21892
868.495	22135
868.625	22158
868.756	22318
868.886	22318
869.017	22219
869.147	22261
869.278	22356
869.408	22329
869.539	22242
869.669	22242
869.799	22261
869.929	22318
870.06	22280
870.19	22557
870.32	22451
870.45	22523
870.58	22694
870.71	22733
870.84	22809
870.97	22531
871.1	22672
871.23	22759
871.36	22740
871.489	22653
871.619	22847
871.749	22805
871.879	22957
872.008	22999
872.138	22812
872.267	22839
872.397	22793
872.526	22702
872.656	22721
872.785	22675
872.915	22858
873.044	22858
873.173	22824
873.303	22919
873.432	22938
873.561	22972
873.69	22904
873.819	22839
873.948	22942
874.077	22755
874.206	22904
874.335	22858
874.464	23006
874.593	23083
874.722	22915
874.851	23246
874.979	23132
875.108	23121
875.237	23098
875.365	22953
875.494	23003
875.623	23162
875.751	23056
875.88	23136
876.008	23170
876.136	23280
876.265	23482
876.393	23577
876.521	23448
876.65	23577
876.778	23448
876.906	23315
877.034	23421
877.162	23273
877.29	23326
877.418	23406
877.546	23421
877.674	23349
877.802	23425
877.93	23398
878.058	23311
878.185	23322
878.313	23250
878.441	23372
878.568	23159
878.696	23315
878.824	23429
878.951	23455
879.079	23535
879.206	23627
879.333	23535
879.461	23322
879.588	23570
879.715	23539
879.842	23558
879.97	23520
880.097	23223
880.224	23197
880.351	23315
880.478	23231
880.605	23178
880.732	23212
880.859	23341
880.986	23204
881.112	23162
881.239	23124
881.366	22847
881.493	22961
881.619	22854
881.746	22908
881.872	22752
881.999	22675
882.125	22740
882.252	22752
882.378	22717
882.505	22824
882.631	22588
882.757	22409
882.883	22527
883.01	22493
883.136	22394
883.262	22375
883.388	22242
883.514	22398
883.64	22580
883.766	22375
883.892	22246
884.018	22303
884.143	22485
884.269	22569
884.395	22169
884.52	22029
884.646	22074
884.772	21964
884.897	21991
885.023	22044
885.148	22204
885.274	22078
885.399	22162
885.524	22173
885.65	22128
885.775	22093
885.9	22040
886.025	22303
886.15	22109
886.275	22116
886.4	21956
886.525	22097
886.65	22032
886.775	21975
886.9	22109
887.025	22257
887.149	22017
887.274	21922
887.399	21759
887.523	21903
887.648	21766
887.773	21641
887.897	21975
888.021	21842
888.146	21759
888.27	21953
888.395	21956
888.519	21888
888.643	21903
888.767	21812
888.891	21816
889.015	21583
889.139	21747
889.263	21576
889.387	21736
889.511	21865
889.635	21835
889.759	21682
889.883	21603
890.006	21587
890.13	21679
890.254	21583
890.377	21507
890.501	21332
890.624	21416
890.748	21397
890.871	21329
890.995	21108
891.118	21085
891.241	21104
891.364	21188
891.488	21264
891.611	21279
891.734	21279
891.857	21169
891.98	21252
892.103	21188
892.226	21131
892.349	21123
892.471	21043
892.594	21146
892.717	21077
892.839	20895
892.962	21116
893.085	21104
893.207	21119
893.33	20921
893.452	21070
893.575	21112
893.697	20929
893.819	21252
893.941	21192
894.064	21233
894.186	20994
894.308	21055
894.43	21100
894.552	21222
894.674	21294
894.796	20872
894.918	21028
895.04	20998
895.161	21157
895.283	21085
895.405	21074
895.526	21100
895.648	21142
895.769	21066
895.891	21017
896.012	21119
896.134	21233
896.255	20956
896.376	21024
896.498	21036
896.619	21074
896.74	21096
896.861	21055
896.982	21378
897.103	21530
897.224	21332
897.345	21313
897.466	21214
897.587	21180
897.708	21458
897.828	21302
897.949	21195
898.07	21161
898.19	21180
898.311	21310
898.431	21214
898.552	21211
898.672	21237
898.792	21420
898.913	21306
899.033	21127
899.153	21058
899.273	20880
899.393	21138
899.513	21039
899.633	20994
899.753	21005
899.873	20975
899.993	20982
900.113	20910
900.232	20979
900.352	20899
900.472	20796
900.591	20861
900.711	20887
900.83	20537
900.95	20826
901.069	20834
901.189	20606
901.308	20385
901.427	20282
901.546	20400
901.665	20408
901.784	20317
901.904	20069
902.023	20161
902.141	19883
902.26	19868
902.379	19928
902.498	19837
902.617	19761
902.735	19799
902.854	19734
902.973	19750
903.091	19605
903.21	19430
903.328	19567
903.446	19457
903.565	19270
903.683	19312
903.801	19126
903.919	19301
904.038	19221
904.156	19084
904.274	19126
904.392	19095
904.51	19084
904.627	19008
904.745	19091
904.863	19114
904.981	18871
905.098	18715
905.216	18745
905.334	18825
905.451	18692
905.569	18635
905.686	18715
905.803	18726
905.921	18578
906.038	18547
906.155	18483
906.272	18483
906.389	18292
906.506	18201
906.623	18350
906.74	18281
906.857	18247
906.974	18201
907.091	18270
907.208	18353
907.324	18388
907.441	18209
907.557	18057
907.674	17973
907.79	17908
907.907	17977
908.023	17980
908.139	17859
908.256	17843
908.372	17786
908.488	17752
908.604	17657
908.72	17676
908.836	17741
908.952	17623
909.068	17794
909.184	17767
909.3	17710
909.415	17638
909.531	17752
909.647	17543
909.762	17402
909.878	17387
909.993	17379
910.108	17379
910.224	17417
910.339	17501
910.454	17239
910.57	17178
910.685	17113
910.8	17376
910.915	17292
911.03	17162
911.145	16930
911.259	16927
911.374	16987
911.489	16946
911.604	16797
911.718	16637
911.833	16691
911.947	16672
912.062	16527
912.176	16763
912.291	16713
912.405	16702
912.519	16896
912.633	16919
912.748	16744
912.862	16687
912.976	16664
913.09	16493
913.204	16527
913.318	16516
913.431	16725
913.545	16630
913.659	16561
913.772	16421
913.886	16436
914	16215
914.113	16390
914.226	16443
914.34	16512
914.453	16234
914.566	16390
914.68	16112
914.793	16177
914.906	15975
915.019	15949
915.132	15865
915.245	15899
915.358	15964
915.47	15823
915.583	15827
915.696	15895
915.809	15975
915.921	15994
916.034	15759
916.146	15895
916.259	15694
916.371	15804
916.483	15937
916.595	15667
916.708	15618
916.82	15686
916.932	15698
917.044	15584
917.156	15698
917.268	15485
917.38	15561
917.491	15549
917.603	15557
917.715	15545
917.826	15629
917.938	15447
918.049	15351
918.161	15447
918.272	15580
918.384	15534
918.495	15416
918.606	15340
918.717	15154
918.828	15325
918.939	15283
919.05	15294
919.161	15272
919.272	15047
919.383	15180
919.494	15241
919.604	15538
919.715	15180
919.826	15097
919.936	15226
920.047	15351
920.157	15135
920.267	15317
920.378	15154
920.488	15119
920.598	15363
920.708	15500
920.818	15443
920.928	15351
921.038	15424
921.148	15447
921.258	15230
921.368	15055
921.477	14914
921.587	14887
921.697	14762
921.806	14864
921.916	14697
922.025	14579
922.134	14590
922.244	14526
922.353	14598
922.462	14454
922.571	14499
922.68	14263
922.789	14267
922.898	14233
923.007	14138
923.116	14107
923.224	14210
923.333	14187
923.442	14065
923.55	14069
923.659	14073
923.767	14084
923.876	13940
923.984	14058
924.092	13841
924.201	13932
924.309	13928
924.417	13894
924.525	13852
924.633	13913
924.741	14575
924.849	13731
924.956	13795
925.064	13658
925.172	13529
925.279	13518
925.387	13677
925.494	13544
925.602	13731
925.709	13590
925.816	13426
925.924	13537
926.031	13586
926.138	13464
926.245	13434
926.352	13373
926.459	13556
926.566	13620
926.673	13415
926.779	13301
926.886	13213
926.993	13084
927.099	13217
927.206	13103
927.312	13080
927.419	13122
927.525	13183
927.631	13149
927.737	13012
927.843	13000
927.95	12859
928.056	12924
928.162	13012
928.267	12939
928.373	13578
928.479	12943
928.585	12783
928.69	12886
928.796	12859
928.901	12753
929.007	12570
929.112	12817
929.218	12764
929.323	12798
929.428	12612
929.533	12806
929.638	12544
929.743	12608
929.848	12662
929.953	12589
930.058	12426
930.163	12228
930.267	12369
930.372	12403
930.477	12258
930.581	12452
930.685	12334
930.79	12110
930.894	12194
930.998	12178
931.103	12319
931.207	11863
931.311	11817
931.415	11779
931.519	11570
931.623	11562
