Data from test_V78500241_3210.txt Node
Date: Fri Mar 25 16:04:02 CST 2022
User: usil
Spectrometer: V785-0024
Trigger mode: 0
Integration Time (sec): 4.000000E-1
Scans to average: 1
Nonlinearity correction enabled: false
Boxcar width: 0
Storing dark spectrum: false
XAxis mode: Wavelengths
Number of Pixels in Spectrum: 1024
>>>>>Begin Spectral Data<<<<<
801.071	28900
801.214	28710
801.356	28443
801.499	28379
801.641	28371
801.783	28291
801.926	28390
802.068	28287
802.211	28147
802.353	28105
802.496	28162
802.638	28078
802.78	27987
802.923	27835
803.065	27998
803.208	27838
803.35	27884
803.492	28059
803.635	28238
803.777	28109
803.919	28363
804.061	28557
804.204	28230
804.346	28116
804.488	28200
804.63	28139
804.773	28230
804.915	28284
805.057	28314
805.199	28284
805.341	28375
805.483	28367
805.626	28291
805.768	28291
805.91	28382
806.052	28356
806.194	28417
806.336	28569
806.478	28447
806.62	28401
806.762	28630
806.904	28668
807.046	28793
807.188	28866
807.33	28888
807.472	28976
807.614	28702
807.756	28850
807.898	28706
808.04	28588
808.182	28592
808.324	28797
808.465	28706
808.607	28980
808.749	29105
808.891	29109
809.033	29330
809.174	29128
809.316	29121
809.458	29079
809.6	29003
809.741	29159
809.883	29200
810.025	29425
810.166	29288
810.308	29326
810.45	29292
810.591	29204
810.733	29132
810.875	29140
811.016	29159
811.158	29098
811.299	29189
811.441	29269
811.582	29223
811.724	29178
811.865	29041
812.007	28999
812.148	29033
812.29	29143
812.431	29250
812.573	29406
812.714	29463
812.855	29767
812.997	29699
813.138	29874
813.279	29874
813.421	29608
813.562	29649
813.703	29391
813.845	29326
813.986	29044
814.127	28904
814.268	28919
814.41	28664
814.551	28744
814.692	28847
814.833	28755
814.974	28656
815.115	28816
815.256	28599
815.397	28675
815.539	28634
815.68	28508
815.821	28622
815.962	28710
816.103	28615
816.244	28382
816.385	28371
816.526	28325
816.666	28329
816.807	28090
816.948	28192
817.089	28124
817.23	28204
817.371	28128
817.512	28158
817.653	28055
817.793	27987
817.934	28238
818.075	28128
818.216	28048
818.356	28207
818.497	28002
818.638	27949
818.778	27793
818.919	27865
819.06	27994
819.2	28021
819.341	28242
819.481	28226
819.622	28284
819.762	28382
819.903	28413
820.043	28226
820.184	28421
820.324	28215
820.465	28421
820.605	28344
820.746	28063
820.886	28105
821.026	28185
821.167	28219
821.307	28280
821.447	28086
821.588	27991
821.728	27865
821.868	27743
822.008	27618
822.149	27492
822.289	27641
822.429	27408
822.569	27283
822.709	27252
822.849	26990
822.99	27146
823.13	27173
823.27	27024
823.41	26967
823.55	26807
823.69	26948
823.83	26944
823.97	26842
824.11	26754
824.25	26663
824.389	26838
824.529	26880
824.669	26762
824.809	26800
824.949	26895
825.089	26899
825.228	26807
825.368	26488
825.508	26613
825.648	26788
825.787	26785
825.927	26556
826.067	26583
826.206	26632
826.346	26815
826.485	26678
826.625	26727
826.765	26788
826.904	26712
827.044	26465
827.183	26431
827.323	26305
827.462	26507
827.601	26469
827.741	26347
827.88	26438
828.02	26370
828.159	26423
828.298	26336
828.437	26408
828.577	26347
828.716	26473
828.855	26286
828.994	26092
829.134	26115
829.273	26130
829.412	26005
829.551	25997
829.69	26027
829.829	25989
829.968	26107
830.107	26100
830.246	26092
830.385	26039
830.524	25898
830.663	25940
830.802	25750
830.941	25639
831.08	25639
831.219	25818
831.357	25628
831.496	25909
831.635	25559
831.774	25445
831.913	25674
832.051	25609
832.19	25476
832.329	25510
832.467	25365
832.606	25293
832.744	25327
832.883	25289
833.022	25202
833.16	25369
833.299	25274
833.437	25426
833.576	25312
833.714	25396
833.852	25441
833.991	25327
834.129	25502
834.267	25468
834.406	25438
834.544	25426
834.682	25419
834.821	25430
834.959	25666
835.097	25225
835.235	25445
835.373	25350
835.511	25362
835.65	25285
835.788	25232
835.926	25065
836.064	25148
836.202	25148
836.34	25099
836.478	25331
836.615	25278
836.753	25274
836.891	25244
837.029	25221
837.167	25190
837.305	25118
837.443	25008
837.58	25091
837.718	25164
837.856	25019
837.993	25038
838.131	24981
838.269	24878
838.406	24973
838.544	24848
838.681	24764
838.819	24654
838.956	24486
839.094	24399
839.231	24540
839.369	24658
839.506	24954
839.643	24726
839.781	24578
839.918	24544
840.055	24502
840.193	24467
840.33	24445
840.467	24388
840.604	24395
840.742	24703
840.879	24182
841.016	24437
841.153	24315
841.29	24422
841.427	24273
841.564	24388
841.701	24407
841.838	24308
841.975	24338
842.112	24391
842.249	24171
842.385	24174
842.522	24418
842.659	24281
842.796	24243
842.933	24167
843.069	24201
843.206	24057
843.343	24239
843.479	24254
843.616	24140
843.752	23999
843.889	23935
844.025	24007
844.162	23980
844.298	23965
844.435	23863
844.571	23935
844.708	24030
844.844	24095
844.98	24159
845.117	24133
845.253	23901
845.389	23870
845.525	23885
845.661	23760
845.798	23703
845.934	23764
846.07	23710
846.206	23646
846.342	23901
846.478	23672
846.614	23330
846.75	23334
846.886	23387
847.022	23482
847.158	23414
847.294	23421
847.429	23398
847.565	23345
847.701	23589
847.837	23037
847.972	23018
848.108	23330
848.244	23322
848.379	22934
848.515	22980
848.65	22843
848.786	23010
848.921	22968
849.057	23025
849.192	23006
849.328	23041
849.463	23041
849.598	23060
849.734	22923
849.869	22862
850.004	22862
850.14	22866
850.275	22797
850.41	22683
850.545	22702
850.68	22683
850.815	22797
850.95	22691
851.085	22881
851.22	22786
851.355	22736
851.49	22683
851.625	22797
851.76	22759
851.895	22702
852.03	22835
852.165	22721
852.299	22816
852.434	22755
852.569	22748
852.703	22675
852.838	22828
852.973	22869
853.107	22790
853.242	22717
853.376	22569
853.511	22459
853.645	22523
853.78	22710
853.914	22485
854.048	22599
854.183	22516
854.317	22497
854.451	22599
854.585	22584
854.72	22542
854.854	22675
854.988	22500
855.122	22649
855.256	22588
855.39	22557
855.524	22516
855.658	22607
855.792	22493
855.926	22706
856.06	22660
856.194	22618
856.327	22516
856.461	22573
856.595	22512
856.729	22550
856.862	22626
856.996	22584
857.13	22702
857.263	22664
857.397	22641
857.53	22580
857.664	22580
857.797	22687
857.931	22641
858.064	22569
858.197	22580
858.331	22436
858.464	22569
858.597	22500
858.731	22489
858.864	22561
858.997	22489
859.13	22618
859.263	22664
859.396	22516
859.529	22535
859.662	22508
859.795	22402
859.928	22592
860.061	22706
860.194	22828
860.327	22603
860.46	22611
860.592	22752
860.725	22729
860.858	22733
860.99	22546
861.123	22538
861.256	22466
861.388	22516
861.521	23261
861.653	22379
861.786	22428
861.918	22356
862.05	22485
862.183	22523
862.315	22466
862.447	22607
862.58	22489
862.712	22344
862.844	22276
862.976	22348
863.108	22379
863.24	22717
863.372	22295
863.504	22272
863.636	22173
863.768	22276
863.9	22390
864.032	22322
864.164	22185
864.296	22367
864.428	22341
864.559	22284
864.691	22386
864.823	22200
864.954	22162
865.086	22238
865.217	22158
865.349	22051
865.48	22143
865.612	22211
865.743	22249
865.875	22150
866.006	22017
866.137	22097
866.269	22185
866.4	22120
866.531	22086
866.662	22059
866.793	22143
866.924	22070
867.055	22097
867.186	22131
867.317	21972
867.448	22036
867.579	21972
867.71	21857
867.841	21918
867.972	22032
868.103	22090
868.233	22131
868.364	22040
868.495	22219
868.625	22329
868.756	22405
868.886	22211
869.017	22280
869.147	22497
869.278	22451
869.408	22329
869.539	22295
869.669	22367
869.799	22443
869.929	22352
870.06	22341
870.19	22573
870.32	22596
870.45	22580
870.58	22774
870.71	22755
870.84	22649
870.97	22752
871.1	22740
871.23	22835
871.36	22835
871.489	22797
871.619	22911
871.749	22824
871.879	22858
872.008	23064
872.138	22915
872.267	22968
872.397	22877
872.526	22740
872.656	22812
872.785	22736
872.915	23094
873.044	23159
873.173	22824
873.303	23067
873.432	22961
873.561	23128
873.69	22869
873.819	22965
873.948	23166
874.077	22980
874.206	22908
874.335	22961
874.464	22999
874.593	23067
874.722	23174
874.851	23212
874.979	23212
875.108	23143
875.237	23143
875.365	22946
875.494	23151
875.623	23140
875.751	23147
875.88	23174
876.008	23315
876.136	23406
876.265	23589
876.393	23748
876.521	23649
876.65	23619
876.778	23623
876.906	23433
877.034	23482
877.162	23433
877.29	23596
877.418	23471
877.546	23493
877.674	23524
877.802	23444
877.93	23410
878.058	23383
878.185	23372
878.313	23463
878.441	23425
878.568	23284
878.696	23429
878.824	23531
878.951	23547
879.079	23729
879.206	23722
879.333	23539
879.461	23581
879.588	23642
879.715	23748
879.842	23767
879.97	23592
880.097	23368
880.224	23334
880.351	23372
880.478	23269
880.605	23326
880.732	23280
880.859	23474
880.986	23235
881.112	23296
881.239	23200
881.366	23018
881.493	23022
881.619	22927
881.746	23003
881.872	22889
881.999	22801
882.125	22881
882.252	22805
882.378	22858
882.505	22854
882.631	22679
882.757	22565
882.883	22755
883.01	22649
883.136	22447
883.262	22310
883.388	22462
883.514	22592
883.64	22580
883.766	22512
883.892	22272
884.018	22367
884.143	22489
884.269	22481
884.395	22337
884.52	22063
884.646	22204
884.772	22139
884.897	22147
885.023	22044
885.148	22242
885.274	22249
885.399	22318
885.524	22192
885.65	22238
885.775	22238
885.9	22128
886.025	22337
886.15	22333
886.275	22078
886.4	22036
886.525	22150
886.65	22044
886.775	22097
886.9	22230
887.025	22348
887.149	22131
887.274	21934
887.399	21903
887.523	21964
887.648	21907
887.773	21846
887.897	22143
888.021	22032
888.146	21892
888.27	22036
888.395	22044
888.519	21964
888.643	21918
888.767	21930
888.891	21793
889.015	21800
889.139	21789
889.263	21614
889.387	21850
889.511	21956
889.635	21857
889.759	21827
889.883	21789
890.006	21732
890.13	21869
890.254	21583
890.377	21732
890.501	21431
890.624	21351
890.748	21485
890.871	21321
890.995	21268
891.118	21150
891.241	21176
891.364	21317
891.488	21477
891.611	21230
891.734	21214
891.857	21260
891.98	21348
892.103	21325
892.226	21283
892.349	21226
892.471	21112
892.594	21207
892.717	21093
892.839	21226
892.962	21199
893.085	21222
893.207	21199
893.33	21047
893.452	21024
893.575	21116
893.697	21150
893.819	21370
893.941	21386
894.064	21325
894.186	21096
894.308	21058
894.43	21382
894.552	21382
894.674	21252
894.796	21070
894.918	21173
895.04	21116
895.161	21188
895.283	21112
895.405	21157
895.526	21188
895.648	21157
895.769	21283
895.891	21272
896.012	21222
896.134	21150
896.255	21222
896.376	21119
896.498	21203
896.619	21169
896.74	21119
896.861	21264
896.982	21458
897.103	21625
897.224	21435
897.345	21298
897.466	21291
897.587	21344
897.708	21454
897.828	21351
897.949	21359
898.07	21116
898.19	21272
898.311	21325
898.431	21279
898.552	21382
898.672	21340
898.792	21302
898.913	21363
899.033	21169
899.153	21138
899.273	20902
899.393	21043
899.513	21123
899.633	21123
899.753	21051
899.873	21039
899.993	21096
900.113	20979
900.232	21096
900.352	20872
900.472	20819
900.591	20853
900.711	20815
900.83	20864
900.95	20914
901.069	20941
901.189	20743
901.308	20568
901.427	20423
901.546	20480
901.665	20393
901.784	20400
901.904	20267
902.023	20168
902.141	20065
902.26	19894
902.379	20012
902.498	19909
902.617	19723
902.735	19841
902.854	19906
902.973	19776
903.091	19651
903.21	19613
903.328	19544
903.446	19441
903.565	19331
903.683	19373
903.801	19221
903.919	19373
904.038	19240
904.156	19194
904.274	19183
904.392	19050
904.51	19145
904.627	18989
904.745	19145
904.863	19110
904.981	18848
905.098	18829
905.216	18856
905.334	18817
905.451	18795
905.569	18707
905.686	18745
905.803	18795
905.921	18601
906.038	18612
906.155	18574
906.272	18521
906.389	18448
906.506	18399
906.623	18330
906.74	18266
906.857	18232
906.974	18228
907.091	18395
907.208	18464
907.324	18327
907.441	18232
907.557	18079
907.674	18121
907.79	18003
907.907	17954
908.023	18022
908.139	18098
908.256	17927
908.372	17828
908.488	17863
908.604	17798
908.72	17680
908.836	17752
908.952	17710
909.068	17824
909.184	17790
909.3	17661
909.415	17866
909.531	17627
909.647	17486
909.762	17395
909.878	17391
909.993	17497
910.108	17376
910.224	17471
910.339	17376
910.454	17250
910.57	17159
910.685	17208
910.8	17429
910.915	17303
911.03	17079
911.145	17003
911.259	16995
911.374	17014
911.489	16919
911.604	16949
911.718	16771
911.833	16698
911.947	16706
912.062	16523
912.176	16752
912.291	16847
912.405	16790
912.519	16965
912.633	17022
912.748	16843
912.862	16645
912.976	16500
913.09	16447
913.204	16561
913.318	16569
913.431	16599
913.545	16561
913.659	16634
913.772	16462
913.886	16329
914	16280
914.113	16470
914.226	16546
914.34	16405
914.453	16166
914.566	16367
914.68	16204
914.793	16158
914.906	16025
915.019	15979
915.132	15915
915.245	15930
915.358	16013
915.47	15922
915.583	15926
915.696	15998
915.809	15945
915.921	15994
916.034	15865
916.146	15831
916.259	15774
916.371	15876
916.483	15876
916.595	15679
916.708	15797
916.82	15686
916.932	15690
917.044	15724
917.156	15641
917.268	15576
917.38	15641
917.491	15530
917.603	15625
917.715	15545
917.826	15648
917.938	15564
918.049	15462
918.161	15523
918.272	15618
918.384	15682
918.495	15473
918.606	15294
918.717	15264
918.828	15279
918.939	15260
919.05	15184
919.161	15211
919.272	15036
919.383	15089
919.494	15195
919.604	15408
919.715	15241
919.826	15272
919.936	15207
920.047	15321
920.157	15116
920.267	15412
920.378	15218
920.488	15355
920.598	15287
920.708	15564
920.818	15397
920.928	15275
921.038	15587
921.148	15420
921.258	15108
921.368	15154
921.477	14982
921.587	14967
921.697	14872
921.806	14967
921.916	14849
922.025	14651
922.134	14655
922.244	14503
922.353	14667
922.462	14404
922.571	14438
922.68	14278
922.789	14161
922.898	14134
923.007	14103
923.116	14237
923.224	14252
923.333	14130
923.442	14199
923.55	14035
923.659	14001
923.767	14073
923.876	14039
923.984	14062
924.092	13932
924.201	13978
924.309	13894
924.417	13947
924.525	13860
924.633	13849
924.741	14590
924.849	13685
924.956	13917
925.064	13586
925.172	13491
925.279	13643
925.387	13624
925.494	13670
925.602	13731
925.709	13632
925.816	13495
925.924	13510
926.031	13632
926.138	13514
926.245	13563
926.352	13426
926.459	13582
926.566	13594
926.673	13434
926.779	13270
926.886	13259
926.993	13156
927.099	13217
927.206	13069
927.312	13038
927.419	13198
927.525	13137
927.631	13244
927.737	13050
927.843	12981
927.95	12871
928.056	12966
928.162	12973
928.267	12993
928.373	13472
928.479	12966
928.585	12776
928.69	12966
928.796	12966
928.901	12882
929.007	12692
929.112	12798
929.218	12738
929.323	12772
929.428	12620
929.533	12791
929.638	12639
929.743	12597
929.848	12582
929.953	12597
930.058	12506
930.163	12376
930.267	12342
930.372	12441
930.477	12308
930.581	12513
930.685	12330
930.79	12205
930.894	12209
930.998	12277
931.103	12372
931.207	11977
931.311	11813
931.415	11824
931.519	11581
931.623	11604
