Data from test_V78500241_3724.txt Node
Date: Fri Mar 25 16:07:35 CST 2022
User: usil
Spectrometer: V785-0024
Trigger mode: 0
Integration Time (sec): 4.000000E-1
Scans to average: 1
Nonlinearity correction enabled: false
Boxcar width: 0
Storing dark spectrum: false
XAxis mode: Wavelengths
Number of Pixels in Spectrum: 1024
>>>>>Begin Spectral Data<<<<<
801.071	28219
801.214	28265
801.356	27956
801.499	28055
801.641	27956
801.783	27846
801.926	27884
802.068	27808
802.211	27797
802.353	27759
802.496	27751
802.638	27610
802.78	27515
802.923	27458
803.065	27549
803.208	27382
803.35	27538
803.492	27739
803.635	27698
803.777	27720
803.919	27732
804.061	28093
804.204	27941
804.346	27770
804.488	27652
804.63	27667
804.773	27686
804.915	27808
805.057	27774
805.199	27857
805.341	27762
805.483	27937
805.626	27914
805.768	27960
805.91	28051
806.052	28063
806.194	27869
806.336	28082
806.478	27884
806.62	27899
806.762	27956
806.904	28230
807.046	28379
807.188	28443
807.33	28512
807.472	28371
807.614	28341
807.756	28257
807.898	28249
808.04	28162
808.182	28154
808.324	28284
808.465	28226
808.607	28398
808.749	28607
808.891	28736
809.033	28755
809.174	28721
809.316	28622
809.458	28710
809.6	28474
809.741	28710
809.883	28592
810.025	28946
810.166	28767
810.308	28965
810.45	28839
810.591	28759
810.733	28668
810.875	28611
811.016	28603
811.158	28561
811.299	28630
811.441	28805
811.582	28847
811.724	28740
811.865	28584
812.007	28615
812.148	28542
812.29	28577
812.431	28805
812.573	28885
812.714	29086
812.855	29159
812.997	29299
813.138	29364
813.279	29231
813.421	29223
813.562	28953
813.703	29094
813.845	28877
813.986	28596
814.127	28421
814.268	28344
814.41	28325
814.551	28257
814.692	28265
814.833	28162
814.974	28333
815.115	28417
815.256	28242
815.397	28204
815.539	28196
815.68	28128
815.821	28021
815.962	28090
816.103	28105
816.244	27876
816.385	27770
816.526	27785
816.666	27732
816.807	27618
816.948	27675
817.089	27614
817.23	27622
817.371	27545
817.512	27591
817.653	27530
817.793	27515
817.934	27542
818.075	27637
818.216	27591
818.356	27530
818.497	27641
818.638	27332
818.778	27367
818.919	27408
819.06	27332
819.2	27523
819.341	27534
819.481	27622
819.622	27682
819.762	27914
819.903	27869
820.043	27884
820.184	27713
820.324	27690
820.465	27682
820.605	27739
820.746	27705
820.886	27720
821.026	27618
821.167	27530
821.307	27705
821.447	27443
821.588	27561
821.728	27462
821.868	27268
822.008	27058
822.149	27112
822.289	26998
822.429	26861
822.569	26773
822.709	26716
822.849	26594
822.99	26663
823.13	26568
823.27	26469
823.41	26415
823.55	26282
823.69	26408
823.83	26450
823.97	26377
824.11	26111
824.25	26122
824.389	26134
824.529	26225
824.669	26275
824.809	26366
824.949	26275
825.089	26427
825.228	26294
825.368	26107
825.508	26145
825.648	26043
825.787	26100
825.927	26202
826.067	26202
826.206	26157
826.346	26229
826.485	26187
826.625	26233
826.765	26275
826.904	26077
827.044	25947
827.183	25940
827.323	25723
827.462	25871
827.601	25696
827.741	25856
827.88	25765
828.02	25742
828.159	25765
828.298	25849
828.437	25757
828.577	25738
828.716	25765
828.855	25818
828.994	25575
829.134	25468
829.273	25582
829.412	25457
829.551	25586
829.69	25601
829.829	25502
829.968	25727
830.107	25559
830.246	25586
830.385	25445
830.524	25430
830.663	25403
830.802	25320
830.941	25088
831.08	25160
831.219	25198
831.357	25152
831.496	25362
831.635	25160
831.774	25023
831.913	25008
832.051	24951
832.19	24886
832.329	24954
832.467	24783
832.606	24707
832.744	24654
832.883	24825
833.022	24734
833.16	24677
833.299	24882
833.437	24878
833.576	24894
833.714	24810
833.852	24992
833.991	24966
834.129	25031
834.267	24856
834.406	24837
834.544	24913
834.682	24909
834.821	24779
834.959	25012
835.097	24825
835.235	24779
835.373	24821
835.511	24821
835.65	24658
835.788	24863
835.926	24692
836.064	24433
836.202	24521
836.34	24684
836.478	24776
836.615	24654
836.753	24684
836.891	24795
837.029	24684
837.167	24642
837.305	24403
837.443	24350
837.58	24528
837.718	24441
837.856	24429
837.993	24502
838.131	24460
838.269	24399
838.406	24448
838.544	24372
838.681	24190
838.819	24167
838.956	24068
839.094	23961
839.231	24022
839.369	24213
839.506	24471
839.643	24220
839.781	24038
839.918	23908
840.055	24133
840.193	23954
840.33	23863
840.467	23954
840.604	23999
840.742	24038
840.879	23737
841.016	23798
841.153	23722
841.29	23931
841.427	23874
841.564	23923
841.701	23817
841.838	23668
841.975	23775
842.112	23813
842.249	23802
842.385	23634
842.522	23927
842.659	23805
842.796	23710
842.933	23695
843.069	23608
843.206	23604
843.343	23703
843.479	23733
843.616	23653
843.752	23425
843.889	23417
844.025	23497
844.162	23395
844.298	23516
844.435	23364
844.571	23349
844.708	23512
844.844	23478
844.98	23577
845.117	23490
845.253	23455
845.389	23307
845.525	23269
845.661	23307
845.798	23227
845.934	23231
846.07	23117
846.206	23239
846.342	23227
846.478	23067
846.614	22961
846.75	22881
846.886	22877
847.022	22934
847.158	22877
847.294	22858
847.429	22896
847.565	22930
847.701	23189
847.837	22622
847.972	22626
848.108	22717
848.244	22615
848.379	22527
848.515	22344
848.65	22413
848.786	22470
848.921	22489
849.057	22675
849.192	22462
849.328	22352
849.463	22402
849.598	22363
849.734	22455
849.869	22417
850.004	22249
850.14	22337
850.275	22291
850.41	22211
850.545	22196
850.68	22306
850.815	22287
850.95	22325
851.085	22508
851.22	22421
851.355	22265
851.49	22211
851.625	22192
851.76	22162
851.895	22242
852.03	22196
852.165	22200
852.299	22128
852.434	22318
852.569	22265
852.703	22234
852.838	22268
852.973	22348
853.107	22489
853.242	22192
853.376	21987
853.511	21918
853.645	22059
853.78	22097
853.914	22063
854.048	22036
854.183	21956
854.317	22051
854.451	22219
854.585	22048
854.72	22067
854.854	22169
854.988	21918
855.122	22036
855.256	22025
855.39	22006
855.524	22082
855.658	22120
855.792	22135
855.926	22188
856.06	22185
856.194	22063
856.327	22040
856.461	21964
856.595	22017
856.729	22063
856.862	22162
856.996	22090
857.13	22181
857.263	22169
857.397	22223
857.53	22078
857.664	22086
857.797	22025
857.931	22207
858.064	22120
858.197	22207
858.331	22082
858.464	21945
858.597	21934
858.731	22032
858.864	22128
858.997	22093
859.13	22158
859.263	22116
859.396	22051
859.529	22074
859.662	21960
859.795	22048
859.928	22135
860.061	22162
860.194	22333
860.327	22204
860.46	22112
860.592	22173
860.725	22310
860.858	22204
860.99	22135
861.123	21987
861.256	22032
861.388	22120
861.521	22759
861.653	21861
861.786	21888
861.918	21873
862.05	21907
862.183	21972
862.315	22086
862.447	22051
862.58	22074
862.712	21781
862.844	21682
862.976	21899
863.108	21835
863.24	22261
863.372	21644
863.504	21747
863.636	21759
863.768	21850
863.9	21732
864.032	21644
864.164	21622
864.296	21831
864.428	21888
864.559	21785
864.691	21766
864.823	21720
864.954	21770
865.086	21720
865.217	21648
865.349	21587
865.48	21622
865.612	21728
865.743	21774
865.875	21656
866.006	21454
866.137	21667
866.269	21739
866.4	21416
866.531	21633
866.662	21526
866.793	21587
866.924	21633
867.055	21618
867.186	21618
867.317	21606
867.448	21530
867.579	21553
867.71	21408
867.841	21496
867.972	21618
868.103	21686
868.233	21583
868.364	21542
868.495	21583
868.625	21778
868.756	21949
868.886	21804
869.017	21766
869.147	22006
869.278	21964
869.408	21846
869.539	21876
869.669	21926
869.799	21876
869.929	21983
870.06	21892
870.19	22048
870.32	22032
870.45	22204
870.58	22150
870.71	22291
870.84	22375
870.97	22139
871.1	22284
871.23	22455
871.36	22447
871.489	22360
871.619	22489
871.749	22417
871.879	22462
872.008	22493
872.138	22424
872.267	22421
872.397	22356
872.526	22367
872.656	22272
872.785	22223
872.915	22447
873.044	22504
873.173	22436
873.303	22489
873.432	22485
873.561	22523
873.69	22440
873.819	22459
873.948	22546
874.077	22363
874.206	22440
874.335	22417
874.464	22569
874.593	22733
874.722	22588
874.851	22801
874.979	22668
875.108	22786
875.237	22592
875.365	22641
875.494	22668
875.623	22668
875.751	22683
875.88	22683
876.008	22790
876.136	22869
876.265	23056
876.393	23239
876.521	23094
876.65	23140
876.778	23181
876.906	22949
877.034	22987
877.162	23006
877.29	23006
877.418	22919
877.546	22961
877.674	22972
877.802	22927
877.93	22965
878.058	23067
878.185	22877
878.313	22980
878.441	23018
878.568	22793
878.696	22965
878.824	23006
878.951	23269
879.079	23174
879.206	23425
879.333	23193
879.461	23170
879.588	23136
879.715	23280
879.842	23212
879.97	23193
880.097	22869
880.224	22790
880.351	22930
880.478	22843
880.605	22721
880.732	22820
880.859	23056
880.986	22938
881.112	22812
881.239	22782
881.366	22500
881.493	22531
881.619	22382
881.746	22413
881.872	22504
881.999	22386
882.125	22120
882.252	22379
882.378	22322
882.505	22519
882.631	22223
882.757	22181
882.883	22067
883.01	22135
883.136	22006
883.262	21949
883.388	21960
883.514	22029
883.64	22158
883.766	22185
883.892	21888
884.018	21812
884.143	22013
884.269	22051
884.395	21911
884.52	21800
884.646	21808
884.772	21545
884.897	21667
885.023	21713
885.148	21915
885.274	21835
885.399	21808
885.524	21816
885.65	21781
885.775	21728
885.9	21629
886.025	21812
886.15	21739
886.275	21720
886.4	21553
886.525	21743
886.65	21759
886.775	21736
886.9	21835
887.025	21865
887.149	21652
887.274	21469
887.399	21492
887.523	21466
887.648	21458
887.773	21367
887.897	21572
888.021	21561
888.146	21291
888.27	21606
888.395	21572
888.519	21485
888.643	21530
888.767	21538
888.891	21272
889.015	21260
889.139	21378
889.263	21230
889.387	21332
889.511	21477
889.635	21401
889.759	21420
889.883	21291
890.006	21249
890.13	21420
890.254	21222
890.377	21199
890.501	21077
890.624	21020
890.748	21123
890.871	20819
890.995	20811
891.118	20746
891.241	20899
891.364	20830
891.488	20902
891.611	20834
891.734	20811
891.857	20971
891.98	20845
892.103	20921
892.226	20819
892.349	20842
892.471	20636
892.594	20762
892.717	20769
892.839	20739
892.962	20781
893.085	20781
893.207	20754
893.33	20663
893.452	20724
893.575	20769
893.697	20750
893.819	20921
893.941	20918
894.064	20811
894.186	20617
894.308	20686
894.43	20705
894.552	20910
894.674	20716
894.796	20632
894.918	20785
895.04	20632
895.161	20815
895.283	20701
895.405	20613
895.526	20739
895.648	20746
895.769	20754
895.891	20800
896.012	20861
896.134	20674
896.255	20689
896.376	20716
896.498	20712
896.619	20773
896.74	20914
896.861	20785
896.982	21096
897.103	21108
897.224	20872
897.345	20910
897.466	20887
897.587	21024
897.708	21028
897.828	20861
897.949	20853
898.07	20849
898.19	20868
898.311	21039
898.431	20876
898.552	20921
898.672	21043
898.792	21093
898.913	21032
899.033	20826
899.153	20727
899.273	20606
899.393	20689
899.513	20716
899.633	20701
899.753	20800
899.873	20651
899.993	20629
900.113	20533
900.232	20674
900.352	20564
900.472	20442
900.591	20385
900.711	20294
900.83	20396
900.95	20507
901.069	20514
901.189	20210
901.308	20206
901.427	19940
901.546	20088
901.665	19959
901.784	19993
901.904	19845
902.023	19868
902.141	19628
902.26	19457
902.379	19540
902.498	19571
902.617	19552
902.735	19510
902.854	19419
902.973	19369
903.091	19320
903.21	19107
903.328	19285
903.446	19095
903.565	18947
903.683	18993
903.801	19034
903.919	18856
904.038	18882
904.156	18772
904.274	18890
904.392	18692
904.51	18639
904.627	18681
904.745	18696
904.863	18768
904.981	18521
905.098	18418
905.216	18479
905.334	18475
905.451	18418
905.569	18456
905.686	18391
905.803	18334
905.921	18228
906.038	18380
906.155	18152
906.272	18117
906.389	18125
906.506	17977
906.623	17931
906.74	18030
906.857	17851
906.974	17790
907.091	18087
907.208	18057
907.324	17878
907.441	17901
907.557	17684
907.674	17657
907.79	17642
907.907	17570
908.023	17684
908.139	17661
908.256	17551
908.372	17566
908.488	17566
908.604	17402
908.72	17265
908.836	17387
908.952	17433
909.068	17395
909.184	17493
909.3	17273
909.415	17334
909.531	17356
909.647	17159
909.762	16980
909.878	17048
909.993	17079
910.108	17037
910.224	16946
910.339	17105
910.454	17014
910.57	16828
910.685	16725
910.8	17086
910.915	16972
911.03	16816
911.145	16672
911.259	16660
911.374	16611
911.489	16523
911.604	16569
911.718	16402
911.833	16356
911.947	16306
912.062	16242
912.176	16413
912.291	16436
912.405	16322
912.519	16596
912.633	16584
912.748	16272
912.862	16329
912.976	16257
913.09	16074
913.204	16139
913.318	16207
913.431	16215
913.545	16295
913.659	16291
913.772	16112
913.886	16116
914	16029
914.113	16036
914.226	16128
914.34	16032
914.453	15949
914.566	16059
914.68	15850
914.793	15907
914.906	15614
915.019	15644
915.132	15507
915.245	15515
915.358	15625
915.47	15614
915.583	15492
915.696	15629
915.809	15644
915.921	15759
916.034	15599
916.146	15435
916.259	15428
916.371	15469
916.483	15462
916.595	15568
916.708	15458
916.82	15435
916.932	15526
917.044	15382
917.156	15359
917.268	15142
917.38	15249
917.491	15104
917.603	15332
917.715	15321
917.826	15287
917.938	15051
918.049	15043
918.161	15100
918.272	15283
918.384	15272
918.495	15165
918.606	14998
918.717	14941
918.828	14998
918.939	15032
919.05	14845
919.161	14990
919.272	14815
919.383	14830
919.494	14971
919.604	15180
919.715	14990
919.826	14861
919.936	14842
920.047	15013
920.157	14868
920.267	15062
920.378	15005
920.488	14918
920.598	15047
920.708	15218
920.818	15119
920.928	15100
921.038	15085
921.148	15199
921.258	14921
921.368	14792
921.477	14632
921.587	14564
921.697	14629
921.806	14590
921.916	14564
922.025	14324
922.134	14351
922.244	14286
922.353	14313
922.462	14225
922.571	14134
922.68	13993
922.789	13993
922.898	14008
923.007	13860
923.116	14012
923.224	13902
923.333	13921
923.442	13696
923.55	13753
923.659	13765
923.767	13860
923.876	13636
923.984	13814
924.092	13715
924.201	13700
924.309	13704
924.417	13601
924.525	13578
924.633	13563
924.741	14320
924.849	13388
924.956	13529
925.064	13225
925.172	13183
925.279	13164
925.387	13289
925.494	13331
925.602	13449
925.709	13282
925.816	13263
925.924	13331
926.031	13449
926.138	13240
926.245	13270
926.352	13118
926.459	13270
926.566	13304
926.673	13221
926.779	13038
926.886	13099
926.993	12913
927.099	12954
927.206	12890
927.312	12859
927.419	12882
927.525	12859
927.631	12909
927.737	12768
927.843	12768
927.95	12677
928.056	12730
928.162	12783
928.267	12798
928.373	13316
928.479	12738
928.585	12502
928.69	12620
928.796	12642
928.901	12532
929.007	12369
929.112	12627
929.218	12433
929.323	12422
929.428	12426
929.533	12536
929.638	12323
929.743	12330
929.848	12426
929.953	12395
930.058	12323
930.163	12076
930.267	12072
930.372	12216
930.477	12064
930.581	12243
930.685	12102
930.79	11980
930.894	12003
930.998	12007
931.103	12091
931.207	11729
931.311	11653
931.415	11570
931.519	11311
931.623	11345
