Data from test_V78500241_1291.txt Node
Date: Fri Mar 25 15:50:44 CST 2022
User: usil
Spectrometer: V785-0024
Trigger mode: 0
Integration Time (sec): 4.000000E-1
Scans to average: 1
Nonlinearity correction enabled: false
Boxcar width: 0
Storing dark spectrum: false
XAxis mode: Wavelengths
Number of Pixels in Spectrum: 1024
>>>>>Begin Spectral Data<<<<<
801.071	28223
801.214	28082
801.356	27922
801.499	27835
801.641	27698
801.783	27800
801.926	27789
802.068	27747
802.211	27648
802.353	27568
802.496	27412
802.638	27336
802.78	27294
802.923	27378
803.065	27370
803.208	27344
803.35	27374
803.492	27679
803.635	27690
803.777	27374
803.919	27591
804.061	27838
804.204	27705
804.346	27568
804.488	27466
804.63	27572
804.773	27591
804.915	27583
805.057	27823
805.199	27530
805.341	27778
805.483	27831
805.626	27956
805.768	27705
805.91	27762
806.052	27682
806.194	27720
806.336	27800
806.478	27842
806.62	27816
806.762	27800
806.904	27949
807.046	28188
807.188	28143
807.33	28185
807.472	28299
807.614	28029
807.756	28200
807.898	28051
808.04	28032
808.182	27911
808.324	28181
808.465	28055
808.607	28325
808.749	28440
808.891	28440
809.033	28478
809.174	28436
809.316	28447
809.458	28299
809.6	28363
809.741	28508
809.883	28668
810.025	28694
810.166	28763
810.308	28698
810.45	28569
810.591	28596
810.733	28459
810.875	28390
811.016	28306
811.158	28223
811.299	28462
811.441	28592
811.582	28611
811.724	28348
811.865	28314
812.007	28356
812.148	28253
812.29	28394
812.431	28683
812.573	28862
812.714	28866
812.855	29003
812.997	28949
813.138	29174
813.279	29033
813.421	29025
813.562	28984
813.703	28736
813.845	28584
813.986	28352
814.127	28147
814.268	28002
814.41	28204
814.551	28181
814.692	28010
814.833	27975
814.974	28048
815.115	28211
815.256	28017
815.397	27899
815.539	28135
815.68	27907
815.821	27759
815.962	27934
816.103	27907
816.244	27899
816.385	27595
816.526	27618
816.666	27477
816.807	27401
816.948	27431
817.089	27458
817.23	27431
817.371	27469
817.512	27389
817.653	27370
817.793	27359
817.934	27408
818.075	27359
818.216	27344
818.356	27306
818.497	27268
818.638	27165
818.778	27077
818.919	27199
819.06	27317
819.2	27184
819.341	27466
819.481	27397
819.622	27526
819.762	27766
819.903	27564
820.043	27545
820.184	27606
820.324	27412
820.465	27488
820.605	27587
820.746	27488
820.886	27473
821.026	27633
821.167	27500
821.307	27538
821.447	27382
821.588	27279
821.728	27184
821.868	27161
822.008	26918
822.149	26990
822.289	26800
822.429	26716
822.569	26670
822.709	26739
822.849	26355
822.99	26541
823.13	26362
823.27	26374
823.41	26271
823.55	26119
823.69	26248
823.83	26206
823.97	26214
824.11	25909
824.25	26077
824.389	25932
824.529	26161
824.669	26005
824.809	26172
824.949	26077
825.089	26088
825.228	26039
825.368	25940
825.508	25791
825.648	25902
825.787	25906
825.927	26058
826.067	25906
826.206	25982
826.346	25890
826.485	25890
826.625	25932
826.765	26005
826.904	26069
827.044	25635
827.183	25609
827.323	25616
827.462	25674
827.601	25784
827.741	25613
827.88	25605
828.02	25472
828.159	25518
828.298	25666
828.437	25696
828.577	25704
828.716	25685
828.855	25457
828.994	25346
829.134	25476
829.273	25362
829.412	25221
829.551	25289
829.69	25255
829.829	25171
829.968	25362
830.107	25369
830.246	25339
830.385	25285
830.524	25175
830.663	25099
830.802	25084
830.941	24871
831.08	24840
831.219	25053
831.357	24943
831.496	25209
831.635	24970
831.774	24768
831.913	24894
832.051	24734
832.19	24684
832.329	24738
832.467	24665
832.606	24532
832.744	24502
832.883	24574
833.022	24544
833.16	24555
833.299	24517
833.437	24563
833.576	24620
833.714	24764
833.852	24608
833.991	24719
834.129	24692
834.267	24787
834.406	24604
834.544	24658
834.682	24696
834.821	24635
834.959	24779
835.097	24490
835.235	24563
835.373	24620
835.511	24578
835.65	24464
835.788	24403
835.926	24235
836.064	24213
836.202	24353
836.34	24384
836.478	24395
836.615	24441
836.753	24498
836.891	24563
837.029	24563
837.167	24403
837.305	24357
837.443	24289
837.58	24220
837.718	24460
837.856	24296
837.993	24292
838.131	24292
838.269	24110
838.406	24129
838.544	24140
838.681	23935
838.819	23973
838.956	23748
839.094	23649
839.231	23745
839.369	24068
839.506	24220
839.643	24015
839.781	23767
839.918	23748
840.055	23767
840.193	23718
840.33	23710
840.467	23684
840.604	23691
840.742	23996
840.879	23562
841.016	23570
841.153	23547
841.29	23813
841.427	23608
841.564	23543
841.701	23596
841.838	23684
841.975	23535
842.112	23554
842.249	23611
842.385	23448
842.522	23710
842.659	23486
842.796	23398
842.933	23535
843.069	23258
843.206	23520
843.343	23497
843.479	23425
843.616	23376
843.752	23220
843.889	23345
844.025	23379
844.162	23227
844.298	23360
844.435	23048
844.571	23083
844.708	23227
844.844	23376
844.98	23341
845.117	23296
845.253	23170
845.389	23067
845.525	23064
845.661	22942
845.798	22938
845.934	23010
846.07	23003
846.206	23181
846.342	23105
846.478	22858
846.614	22706
846.75	22664
846.886	22550
847.022	22744
847.158	22748
847.294	22649
847.429	22698
847.565	22656
847.701	22759
847.837	22436
847.972	22276
848.108	22428
848.244	22443
848.379	22386
848.515	22215
848.65	22192
848.786	22314
848.921	22291
849.057	22402
849.192	22303
849.328	22390
849.463	22268
849.598	22230
849.734	22154
849.869	22059
850.004	21972
850.14	22067
850.275	22040
850.41	21937
850.545	21979
850.68	21930
850.815	22029
850.95	22002
851.085	22139
851.22	22070
851.355	22078
851.49	22013
851.625	21991
851.76	22029
851.895	21945
852.03	21930
852.165	22101
852.299	22017
852.434	22059
852.569	22029
852.703	21964
852.838	21956
852.973	22105
853.107	22116
853.242	21915
853.376	21819
853.511	21793
853.645	21736
853.78	21892
853.914	21759
854.048	21903
854.183	21808
854.317	21903
854.451	22055
854.585	21831
854.72	21816
854.854	21797
854.988	21724
855.122	21907
855.256	21682
855.39	21816
855.524	21934
855.658	21827
855.792	21823
855.926	21808
856.06	21838
856.194	21850
856.327	21854
856.461	21778
856.595	21926
856.729	21709
856.862	21983
856.996	21861
857.13	21918
857.263	22013
857.397	21994
857.53	21972
857.664	21907
857.797	21934
857.931	21915
858.064	21770
858.197	21926
858.331	21819
858.464	21747
858.597	21751
858.731	21785
858.864	21789
858.997	21781
859.13	21857
859.263	21861
859.396	21953
859.529	21717
859.662	21869
859.795	21816
859.928	21800
860.061	21983
860.194	22036
860.327	21835
860.46	21880
860.592	21930
860.725	22048
860.858	21968
860.99	21854
861.123	21797
861.256	21785
861.388	21842
861.521	22546
861.653	21701
861.786	21610
861.918	21793
862.05	21679
862.183	21641
862.315	21739
862.447	21838
862.58	21854
862.712	21526
862.844	21492
862.976	21595
863.108	21671
863.24	21819
863.372	21629
863.504	21519
863.636	21595
863.768	21481
863.9	21564
864.032	21477
864.164	21469
864.296	21519
864.428	21587
864.559	21625
864.691	21648
864.823	21504
864.954	21530
865.086	21435
865.217	21397
865.349	21306
865.48	21523
865.612	21466
865.743	21564
865.875	21515
866.006	21317
866.137	21428
866.269	21416
866.4	21401
866.531	21310
866.662	21272
866.793	21469
866.924	21374
867.055	21321
867.186	21313
867.317	21264
867.448	21222
867.579	21382
867.71	21310
867.841	21256
867.972	21298
868.103	21359
868.233	21401
868.364	21275
868.495	21443
868.625	21686
868.756	21644
868.886	21477
869.017	21492
869.147	21751
869.278	21667
869.408	21576
869.539	21709
869.669	21641
869.799	21736
869.929	21713
870.06	21660
870.19	21831
870.32	21956
870.45	21850
870.58	21994
870.71	22013
870.84	22044
870.97	21994
871.1	21937
871.23	22147
871.36	22196
871.489	22036
871.619	22086
871.749	22177
871.879	22162
872.008	22287
872.138	22101
872.267	22196
872.397	21937
872.526	22032
872.656	21987
872.785	21880
872.915	22169
873.044	22322
873.173	22306
873.303	22257
873.432	22306
873.561	22356
873.69	22219
873.819	22276
873.948	22329
874.077	22162
874.206	22051
874.335	22116
874.464	22223
874.593	22413
874.722	22367
874.851	22493
874.979	22421
875.108	22504
875.237	22504
875.365	22329
875.494	22455
875.623	22550
875.751	22512
875.88	22485
876.008	22588
876.136	22611
876.265	22790
876.393	22976
876.521	22984
876.65	22873
876.778	22850
876.906	22771
877.034	22698
877.162	22858
877.29	22767
877.418	22938
877.546	22752
877.674	22828
877.802	22793
877.93	22873
878.058	22816
878.185	22622
878.313	22729
878.441	22584
878.568	22641
878.696	22782
878.824	22820
878.951	22809
879.079	23003
879.206	22961
879.333	23025
879.461	22866
879.588	22812
879.715	23018
879.842	23048
879.97	22930
880.097	22573
880.224	22744
880.351	22721
880.478	22763
880.605	22470
880.732	22615
880.859	22793
880.986	22599
881.112	22580
881.239	22367
881.366	22367
881.493	22215
881.619	22109
881.746	22230
881.872	22105
881.999	22135
882.125	22131
882.252	22261
882.378	22112
882.505	22135
882.631	22093
882.757	21903
882.883	21907
883.01	21819
883.136	21793
883.262	21724
883.388	21622
883.514	21865
883.64	21937
883.766	21774
883.892	21705
884.018	21633
884.143	21717
884.269	21953
884.395	21622
884.52	21477
884.646	21591
884.772	21603
884.897	21458
885.023	21526
885.148	21496
885.274	21603
885.399	21515
885.524	21477
885.65	21408
885.775	21507
885.9	21530
886.025	21637
886.15	21462
886.275	21606
886.4	21382
886.525	21572
886.65	21492
886.775	21496
886.9	21641
887.025	21663
887.149	21443
887.274	21329
887.399	21389
887.523	21233
887.648	21310
887.773	21214
887.897	21389
888.021	21321
888.146	21188
888.27	21287
888.395	21405
888.519	21313
888.643	21241
888.767	21386
888.891	21195
889.015	20929
889.139	21184
889.263	21161
889.387	21051
889.511	21146
889.635	21226
889.759	20960
889.883	20933
890.006	21036
890.13	21154
890.254	20933
890.377	20990
890.501	20762
890.624	20708
890.748	20933
890.871	20571
890.995	20632
891.118	20613
891.241	20575
891.364	20587
891.488	20830
891.611	20678
891.734	20701
891.857	20648
891.98	20686
892.103	20674
892.226	20511
892.349	20537
892.471	20484
892.594	20465
892.717	20541
892.839	20590
892.962	20488
893.085	20602
893.207	20499
893.33	20412
893.452	20511
893.575	20541
893.697	20511
893.819	20724
893.941	20621
894.064	20655
894.186	20450
894.308	20446
894.43	20632
894.552	20514
894.674	20602
894.796	20427
894.918	20434
895.04	20408
895.161	20644
895.283	20602
895.405	20408
895.526	20476
895.648	20537
895.769	20450
895.891	20465
896.012	20587
896.134	20560
896.255	20476
896.376	20393
896.498	20492
896.619	20556
896.74	20484
896.861	20480
896.982	20765
897.103	20975
897.224	20857
897.345	20762
897.466	20659
897.587	20659
897.708	20826
897.828	20720
897.949	20579
898.07	20469
898.19	20682
898.311	20777
898.431	20659
898.552	20750
898.672	20617
898.792	20788
898.913	20617
899.033	20651
899.153	20347
899.273	20377
899.393	20473
899.513	20552
899.633	20396
899.753	20518
899.873	20248
899.993	20541
900.113	20404
900.232	20358
900.352	20298
900.472	20290
900.591	20202
900.711	20305
900.83	20168
900.95	20271
901.069	20332
901.189	20187
901.308	20024
901.427	19875
901.546	19826
901.665	19849
901.784	19803
901.904	19685
902.023	19643
902.141	19373
902.26	19430
902.379	19445
902.498	19384
902.617	19225
902.735	19293
902.854	19247
902.973	19335
903.091	19095
903.21	18989
903.328	19004
903.446	18837
903.565	18726
903.683	18821
903.801	18722
903.919	18856
904.038	18684
904.156	18521
904.274	18631
904.392	18498
904.51	18513
904.627	18574
904.745	18597
904.863	18555
904.981	18429
905.098	18194
905.216	18243
905.334	18292
905.451	18266
905.569	18380
905.686	18330
905.803	18277
905.921	18007
906.038	18049
906.155	17980
906.272	17946
906.389	17878
906.506	17752
906.623	17847
906.74	17733
906.857	17695
906.974	17577
907.091	17817
907.208	17840
907.324	17840
907.441	17687
907.557	17471
907.674	17577
907.79	17273
907.907	17459
908.023	17467
908.139	17444
908.256	17486
908.372	17398
908.488	17376
908.604	17212
908.72	17105
908.836	17220
908.952	17162
909.068	17239
909.184	17311
909.3	17162
909.415	17227
909.531	17124
909.647	16873
909.762	16900
909.878	16835
909.993	17033
910.108	16854
910.224	16759
910.339	16854
910.454	16831
910.57	16717
910.685	16694
910.8	17003
910.915	16885
911.03	16687
911.145	16538
911.259	16466
911.374	16485
911.489	16352
911.604	16291
911.718	16207
911.833	16303
911.947	16044
912.062	16154
912.176	16310
912.291	16200
912.405	16200
912.519	16348
912.633	16371
912.748	16276
912.862	16082
912.976	16044
913.09	15941
913.204	16059
913.318	15926
913.431	16071
913.545	16051
913.659	16181
913.772	15991
913.886	15781
914	15781
914.113	15876
914.226	15850
914.34	15873
914.453	15595
914.566	15819
914.68	15747
914.793	15584
914.906	15496
915.019	15435
915.132	15382
915.245	15466
915.358	15351
915.47	15408
915.583	15439
915.696	15530
915.809	15629
915.921	15568
916.034	15348
916.146	15351
916.259	15321
916.371	15332
916.483	15405
916.595	15317
916.708	15283
916.82	15294
916.932	15214
917.044	15157
917.156	15131
917.268	15119
917.38	15127
917.491	15074
917.603	15131
917.715	15188
917.826	15207
917.938	15013
918.049	14960
918.161	15017
918.272	15203
918.384	15127
918.495	15058
918.606	14891
918.717	14773
918.828	14895
918.939	14921
919.05	14777
919.161	14876
919.272	14621
919.383	14762
919.494	14868
919.604	15142
919.715	14792
919.826	14632
919.936	14777
920.047	14895
920.157	14899
920.267	14918
920.378	14845
920.488	14712
920.598	14979
920.708	15081
920.818	14986
920.928	14937
921.038	15066
921.148	15081
921.258	14777
921.368	14667
921.477	14484
921.587	14575
921.697	14385
921.806	14552
921.916	14351
922.025	14244
922.134	14115
922.244	14088
922.353	14191
922.462	14103
922.571	13986
922.68	13890
922.789	13868
922.898	13928
923.007	13757
923.116	13803
923.224	13845
923.333	13750
923.442	13655
923.55	13685
923.659	13632
923.767	13750
923.876	13518
923.984	13605
924.092	13597
924.201	13586
924.309	13597
924.417	13540
924.525	13400
924.633	13426
924.741	14381
924.849	13282
924.956	13308
925.064	13213
925.172	13202
925.279	13175
925.387	13236
925.494	13232
925.602	13388
925.709	13346
925.816	13171
925.924	13202
926.031	13270
926.138	13164
926.245	13129
926.352	13088
926.459	13221
926.566	13244
926.673	12996
926.779	12973
926.886	12920
926.993	12738
927.099	12821
927.206	12700
927.312	12772
927.419	12795
927.525	12738
927.631	12829
927.737	12700
927.843	12665
927.95	12604
928.056	12665
928.162	12616
928.267	12574
928.373	13145
928.479	12715
928.585	12388
928.69	12517
928.796	12532
928.901	12506
929.007	12273
929.112	12441
929.218	12441
929.323	12292
929.428	12262
929.533	12471
929.638	12197
929.743	12197
929.848	12311
929.953	12258
930.058	12239
930.163	12049
930.267	12087
930.372	12136
930.477	11942
930.581	12190
930.685	12060
930.79	11870
930.894	11942
930.998	11840
931.103	12045
931.207	11661
931.311	11539
931.415	11520
931.519	11288
931.623	11254
