Data from test_V78500241_2347.txt Node
Date: Fri Mar 25 15:58:03 CST 2022
User: usil
Spectrometer: V785-0024
Trigger mode: 0
Integration Time (sec): 4.000000E-1
Scans to average: 1
Nonlinearity correction enabled: false
Boxcar width: 0
Storing dark spectrum: false
XAxis mode: Wavelengths
Number of Pixels in Spectrum: 1024
>>>>>Begin Spectral Data<<<<<
801.071	28664
801.214	28557
801.356	28417
801.499	28390
801.641	28268
801.783	28124
801.926	28341
802.068	28249
802.211	28105
802.353	28238
802.496	27911
802.638	28017
802.78	27926
802.923	27865
803.065	27732
803.208	27899
803.35	27873
803.492	28181
803.635	28124
803.777	28036
803.919	28097
804.061	28493
804.204	28185
804.346	28265
804.488	28128
804.63	28291
804.773	28109
804.915	28333
805.057	28367
805.199	28090
805.341	28280
805.483	28299
805.626	28143
805.768	28223
805.91	28310
806.052	28291
806.194	28295
806.336	28421
806.478	28478
806.62	28268
806.762	28554
806.904	28611
807.046	28790
807.188	28908
807.33	28831
807.472	28881
807.614	28744
807.756	28698
807.898	28710
808.04	28618
808.182	28538
808.324	28733
808.465	28687
808.607	28900
808.749	28991
808.891	29018
809.033	29166
809.174	28946
809.316	28987
809.458	29025
809.6	28984
809.741	29064
809.883	29174
810.025	29277
810.166	29315
810.308	29261
810.45	29193
810.591	29151
810.733	28999
810.875	28991
811.016	28930
811.158	29079
811.299	29162
811.441	29178
811.582	29067
811.724	29098
811.865	28965
812.007	28873
812.148	29041
812.29	29094
812.431	29239
812.573	29440
812.714	29512
812.855	29474
812.997	29581
813.138	29802
813.279	29710
813.421	29619
813.562	29543
813.703	29436
813.845	29250
813.986	29010
814.127	28911
814.268	28869
814.41	28797
814.551	28660
814.692	28866
814.833	28740
814.974	28580
815.115	28858
815.256	28668
815.397	28577
815.539	28592
815.68	28516
815.821	28470
815.962	28516
816.103	28481
816.244	28337
816.385	28409
816.526	28375
816.666	28139
816.807	28002
816.948	28181
817.089	28135
817.23	28280
817.371	27987
817.512	27964
817.653	27934
817.793	27994
817.934	28048
818.075	28051
818.216	28158
818.356	27922
818.497	27964
818.638	27827
818.778	27778
818.919	27736
819.06	27835
819.2	27991
819.341	28150
819.481	28032
819.622	28409
819.762	28375
819.903	28265
820.043	28215
820.184	28230
820.324	28162
820.465	28246
820.605	28154
820.746	28166
820.886	28162
821.026	28135
821.167	28147
821.307	28253
821.447	28086
821.588	28010
821.728	27842
821.868	27781
822.008	27538
822.149	27690
822.289	27485
822.429	27279
822.569	27249
822.709	27283
822.849	27039
822.99	27104
823.13	26990
823.27	27009
823.41	26940
823.55	26826
823.69	26785
823.83	26891
823.97	26864
824.11	26773
824.25	26412
824.389	26594
824.529	26769
824.669	26735
824.809	26773
824.949	26800
825.089	26823
825.228	26697
825.368	26511
825.508	26583
825.648	26560
825.787	26453
825.927	26830
826.067	26549
826.206	26495
826.346	26667
826.485	26640
826.625	26511
826.765	26743
826.904	26556
827.044	26317
827.183	26374
827.323	26358
827.462	26290
827.601	26259
827.741	26240
827.88	26343
828.02	26183
828.159	26267
828.298	26332
828.437	26377
828.577	26214
828.716	26278
828.855	26191
828.994	25887
829.134	25947
829.273	26035
829.412	25849
829.551	25883
829.69	26081
829.829	25993
829.968	26024
830.107	26054
830.246	25989
830.385	25902
830.524	25849
830.663	25761
830.802	25776
830.941	25449
831.08	25499
831.219	25666
831.357	25624
831.496	25719
831.635	25533
831.774	25632
831.913	25426
832.051	25259
832.19	25327
832.329	25411
832.467	25225
832.606	25240
832.744	25213
832.883	25285
833.022	25156
833.16	25164
833.299	25362
833.437	25354
833.576	25320
833.714	25358
833.852	25354
833.991	25422
834.129	25430
834.267	25419
834.406	25244
834.544	25377
834.682	25335
834.821	25171
834.959	25449
835.097	25175
835.235	25335
835.373	25396
835.511	25362
835.65	25247
835.788	25152
835.926	24932
836.064	24840
836.202	24992
836.34	25304
836.478	25213
836.615	25012
836.753	25114
836.891	25247
837.029	25190
837.167	25091
837.305	25091
837.443	24985
837.58	24913
837.718	25050
837.856	24943
837.993	24954
838.131	24962
838.269	24734
838.406	24897
838.544	24715
838.681	24642
838.819	24642
838.956	24311
839.094	24494
839.231	24433
839.369	24513
839.506	24882
839.643	24658
839.781	24464
839.918	24334
840.055	24467
840.193	24464
840.33	24410
840.467	24300
840.604	24315
840.742	24582
840.879	24270
841.016	24285
841.153	24186
841.29	24380
841.427	24376
841.564	24304
841.701	24448
841.838	24353
841.975	24197
842.112	24323
842.249	24270
842.385	24038
842.522	24235
842.659	24216
842.796	24060
842.933	24015
843.069	24095
843.206	24155
843.343	24182
843.479	24144
843.616	24205
843.752	23893
843.889	23813
844.025	24026
844.162	23821
844.298	23950
844.435	23870
844.571	23726
844.708	23882
844.844	24022
844.98	24083
845.117	23916
845.253	23775
845.389	23611
845.525	23630
845.661	23623
845.798	23596
845.934	23642
846.07	23528
846.206	23668
846.342	23615
846.478	23638
846.614	23296
846.75	23280
846.886	23159
847.022	23455
847.158	23402
847.294	23372
847.429	23433
847.565	23223
847.701	23649
847.837	22972
847.972	23052
848.108	23162
848.244	23083
848.379	22923
848.515	22980
848.65	22854
848.786	22957
848.921	22812
849.057	23083
849.192	22980
849.328	22919
849.463	22847
849.598	22767
849.734	22854
849.869	22744
850.004	22656
850.14	22675
850.275	22698
850.41	22645
850.545	22653
850.68	22664
850.815	22675
850.95	22615
851.085	22866
851.22	22797
851.355	22694
851.49	22596
851.625	22497
851.76	22736
851.895	22615
852.03	22637
852.165	22717
852.299	22656
852.434	22793
852.569	22733
852.703	22653
852.838	22721
852.973	22698
853.107	22691
853.242	22607
853.376	22531
853.511	22413
853.645	22493
853.78	22630
853.914	22371
854.048	22344
854.183	22443
854.317	22557
854.451	22683
854.585	22443
854.72	22443
854.854	22546
854.988	22470
855.122	22550
855.256	22405
855.39	22440
855.524	22557
855.658	22561
855.792	22516
855.926	22481
856.06	22557
856.194	22432
856.327	22371
856.461	22432
856.595	22405
856.729	22478
856.862	22527
856.996	22504
857.13	22489
857.263	22523
857.397	22485
857.53	22481
857.664	22554
857.797	22538
857.931	22508
858.064	22485
858.197	22637
858.331	22493
858.464	22584
858.597	22375
858.731	22394
858.864	22390
858.997	22390
859.13	22443
859.263	22424
859.396	22577
859.529	22485
859.662	22428
859.795	22455
859.928	22455
860.061	22634
860.194	22755
860.327	22500
860.46	22516
860.592	22531
860.725	22675
860.858	22649
860.99	22577
861.123	22379
861.256	22432
861.388	22367
861.521	23223
861.653	22287
861.786	22204
861.918	22363
862.05	22394
862.183	22474
862.315	22440
862.447	22546
862.58	22291
862.712	22249
862.844	22276
862.976	22325
863.108	22135
863.24	22660
863.372	22124
863.504	22242
863.636	22192
863.768	22356
863.9	22185
864.032	22135
864.164	22154
864.296	22131
864.428	22253
864.559	22230
864.691	22257
864.823	22226
864.954	22169
865.086	22105
865.217	22002
865.349	22032
865.48	22040
865.612	22044
865.743	22135
865.875	22021
866.006	21991
866.137	21991
866.269	22013
866.4	21968
866.531	21998
866.662	21850
866.793	21892
866.924	21911
867.055	21899
867.186	21930
867.317	21918
867.448	21823
867.579	21975
867.71	21903
867.841	21876
867.972	22116
868.103	22097
868.233	21972
868.364	21991
868.495	22063
868.625	22291
868.756	22306
868.886	22128
869.017	22306
869.147	22257
869.278	22382
869.408	22200
869.539	22177
869.669	22185
869.799	22341
869.929	22333
870.06	22360
870.19	22569
870.32	22588
870.45	22573
870.58	22653
870.71	22725
870.84	22771
870.97	22584
871.1	22538
871.23	22862
871.36	22774
871.489	22824
871.619	22778
871.749	22835
871.879	22862
872.008	22972
872.138	22858
872.267	22801
872.397	22744
872.526	22531
872.656	22626
872.785	22577
872.915	22942
873.044	22889
873.173	22759
873.303	22938
873.432	22801
873.561	22980
873.69	22889
873.819	22774
873.948	22835
874.077	22889
874.206	22820
874.335	22843
874.464	22889
874.593	23143
874.722	23033
874.851	22991
874.979	23140
875.108	23071
875.237	23060
875.365	23003
875.494	22862
875.623	23094
875.751	22991
875.88	23109
876.008	23071
876.136	23239
876.265	23554
876.393	23490
876.521	23520
876.65	23486
876.778	23391
876.906	23341
877.034	23410
877.162	23395
877.29	23341
877.418	23337
877.546	23383
877.674	23497
877.802	23448
877.93	23436
878.058	23406
878.185	23204
878.313	23341
878.441	23345
878.568	23280
878.696	23440
878.824	23414
878.951	23467
879.079	23478
879.206	23646
879.333	23573
879.461	23395
879.588	23433
879.715	23611
879.842	23707
879.97	23490
880.097	23162
880.224	23109
880.351	23261
880.478	23261
880.605	23273
880.732	23117
880.859	23566
880.986	23178
881.112	23242
881.239	23185
881.366	22968
881.493	22923
881.619	22683
881.746	22858
881.872	22694
881.999	22694
882.125	22820
882.252	22805
882.378	22672
882.505	22862
882.631	22584
882.757	22512
882.883	22679
883.01	22466
883.136	22360
883.262	22348
883.388	22341
883.514	22470
883.64	22462
883.766	22295
883.892	22268
884.018	22185
884.143	22280
884.269	22413
884.395	22120
884.52	22067
884.646	22070
884.772	22048
884.897	21903
885.023	22124
885.148	22219
885.274	22215
885.399	22162
885.524	22090
885.65	22025
885.775	22051
885.9	22006
886.025	22154
886.15	22188
886.275	22032
886.4	21899
886.525	22055
886.65	22040
886.775	21968
886.9	22166
887.025	22276
887.149	22070
887.274	21816
887.399	21789
887.523	21819
887.648	21812
887.773	21854
887.897	21884
888.021	21827
888.146	21808
888.27	21945
888.395	21964
888.519	21823
888.643	21873
888.767	21911
888.891	21842
889.015	21641
889.139	21663
889.263	21648
889.387	21751
889.511	21778
889.635	21812
889.759	21599
889.883	21648
890.006	21622
890.13	21629
890.254	21732
890.377	21447
890.501	21416
890.624	21272
890.748	21351
890.871	21287
890.995	21142
891.118	21077
891.241	21184
891.364	21154
891.488	21336
891.611	21161
891.734	21180
891.857	21252
891.98	21222
892.103	21176
892.226	21142
892.349	21241
892.471	21074
892.594	21032
892.717	21142
892.839	21123
892.962	21203
893.085	21279
893.207	21024
893.33	20948
893.452	20990
893.575	20990
893.697	21074
893.819	21127
893.941	21283
894.064	21161
894.186	21032
894.308	20956
894.43	21062
894.552	21150
894.674	21192
894.796	20994
894.918	21100
895.04	21043
895.161	21074
895.283	21104
895.405	21017
895.526	21043
895.648	20929
895.769	21074
895.891	21104
896.012	21119
896.134	21047
896.255	21005
896.376	21055
896.498	21047
896.619	21028
896.74	21112
896.861	21036
896.982	21416
897.103	21439
897.224	21252
897.345	21237
897.466	21104
897.587	21188
897.708	21447
897.828	21306
897.949	21142
898.07	20986
898.19	21161
898.311	21351
898.431	21142
898.552	21127
898.672	21291
898.792	21294
898.913	21302
899.033	21230
899.153	20990
899.273	20880
899.393	21024
899.513	21032
899.633	20963
899.753	21013
899.873	21024
899.993	20937
900.113	20944
900.232	20971
900.352	20933
900.472	20921
900.591	20659
900.711	20883
900.83	20842
900.95	20872
901.069	20811
901.189	20613
901.308	20412
901.427	20393
901.546	20256
901.665	20427
901.784	20328
901.904	20218
902.023	20062
902.141	19909
902.26	19860
902.379	19936
902.498	19860
902.617	19849
902.735	19890
902.854	19887
902.973	19776
903.091	19575
903.21	19559
903.328	19518
903.446	19449
903.565	19350
903.683	19282
903.801	19293
903.919	19289
904.038	19148
904.156	19076
904.274	19164
904.392	19023
904.51	19042
904.627	19209
904.745	19084
904.863	19053
904.981	18825
905.098	18738
905.216	18802
905.334	18703
905.451	18745
905.569	18749
905.686	18810
905.803	18612
905.921	18486
906.038	18745
906.155	18506
906.272	18437
906.389	18456
906.506	18243
906.623	18376
906.74	18319
906.857	18235
906.974	18228
907.091	18346
907.208	18380
907.324	18323
907.441	18102
907.557	17969
907.674	17977
907.79	17942
907.907	17965
908.023	18087
908.139	17977
908.256	18022
908.372	17840
908.488	17809
908.604	17824
908.72	17707
908.836	17699
908.952	17611
909.068	17665
909.184	17863
909.3	17771
909.415	17684
909.531	17668
909.647	17395
909.762	17372
909.878	17402
909.993	17345
910.108	17326
910.224	17383
910.339	17421
910.454	17303
910.57	17227
910.685	17174
910.8	17452
910.915	17303
911.03	17128
911.145	16930
911.259	16946
911.374	16946
911.489	16885
911.604	16790
911.718	16733
911.833	16797
911.947	16615
912.062	16634
912.176	16687
912.291	16675
912.405	16706
912.519	16908
912.633	16957
912.748	16679
912.862	16744
912.976	16561
913.09	16462
913.204	16527
913.318	16580
913.431	16622
913.545	16565
913.659	16497
913.772	16466
913.886	16409
914	16352
914.113	16390
914.226	16413
914.34	16352
914.453	16226
914.566	16276
914.68	16188
914.793	16139
914.906	15873
915.019	15899
915.132	15846
915.245	15846
915.358	15968
915.47	15934
915.583	15854
915.696	15888
915.809	15911
915.921	15964
916.034	15736
916.146	15842
916.259	15755
916.371	15953
916.483	15724
916.595	15644
916.708	15694
916.82	15724
916.932	15549
917.044	15701
917.156	15648
917.268	15534
917.38	15610
917.491	15462
917.603	15568
917.715	15633
917.826	15545
917.938	15450
918.049	15279
918.161	15469
918.272	15610
918.384	15557
918.495	15488
918.606	15321
918.717	15135
918.828	15157
918.939	15226
919.05	15146
919.161	15207
919.272	15024
919.383	15089
919.494	15351
919.604	15348
919.715	15165
919.826	15047
919.936	15249
920.047	15222
920.157	15192
920.267	15370
920.378	15211
920.488	15135
920.598	15504
920.708	15515
920.818	15321
920.928	15268
921.038	15420
921.148	15348
921.258	15127
921.368	15020
921.477	14960
921.587	14925
921.697	14785
921.806	14910
921.916	14739
922.025	14651
922.134	14514
922.244	14507
922.353	14537
922.462	14446
922.571	14370
922.68	14294
922.789	14199
922.898	14218
923.007	14267
923.116	14153
923.224	14210
923.333	14195
923.442	14062
923.55	14081
923.659	13997
923.767	14077
923.876	13902
923.984	14092
924.092	13852
924.201	13951
924.309	13894
924.417	13917
924.525	13860
924.633	13845
924.741	14792
924.849	13689
924.956	13708
925.064	13567
925.172	13559
925.279	13578
925.387	13613
925.494	13571
925.602	13689
925.709	13605
925.816	13495
925.924	13499
926.031	13548
926.138	13518
926.245	13445
926.352	13449
926.459	13556
926.566	13559
926.673	13411
926.779	13206
926.886	13343
926.993	13126
927.099	13107
927.206	13065
927.312	13038
927.419	13137
927.525	13107
927.631	13164
927.737	13061
927.843	12958
927.95	12837
928.056	12943
928.162	13012
928.267	13019
928.373	13670
928.479	13015
928.585	12745
928.69	12810
928.796	12859
928.901	12772
929.007	12528
929.112	12802
929.218	12722
929.323	12673
929.428	12604
929.533	12726
929.638	12585
929.743	12551
929.848	12582
929.953	12555
930.058	12479
930.163	12243
930.267	12266
930.372	12475
930.477	12224
930.581	12551
930.685	12342
930.79	12262
930.894	12186
930.998	12235
931.103	12323
931.207	11942
931.311	11904
931.415	11703
931.519	11512
931.623	11604
