Data from test_V78500241_2688.txt Node
Date: Fri Mar 25 16:00:25 CST 2022
User: usil
Spectrometer: V785-0024
Trigger mode: 0
Integration Time (sec): 4.000000E-1
Scans to average: 1
Nonlinearity correction enabled: false
Boxcar width: 0
Storing dark spectrum: false
XAxis mode: Wavelengths
Number of Pixels in Spectrum: 1024
>>>>>Begin Spectral Data<<<<<
801.071	28557
801.214	28599
801.356	28424
801.499	28318
801.641	28223
801.783	28128
801.926	28196
802.068	28131
802.211	28097
802.353	28082
802.496	27926
802.638	27937
802.78	27895
802.923	27743
803.065	27713
803.208	27850
803.35	27838
803.492	28063
803.635	28143
803.777	28143
803.919	28101
804.061	28478
804.204	28344
804.346	28093
804.488	28006
804.63	28116
804.773	27987
804.915	28177
805.057	28409
805.199	28120
805.341	28204
805.483	28143
805.626	28272
805.768	28185
805.91	28265
806.052	28196
806.194	28154
806.336	28500
806.478	28291
806.62	28188
806.762	28493
806.904	28565
807.046	28774
807.188	28641
807.33	28755
807.472	28938
807.614	28717
807.756	28683
807.898	28535
808.04	28440
808.182	28489
808.324	28569
808.465	28683
808.607	28858
808.749	28961
808.891	29079
809.033	28957
809.174	29037
809.316	28896
809.458	28980
809.6	28767
809.741	29048
809.883	29113
810.025	29220
810.166	29322
810.308	29223
810.45	29181
810.591	29041
810.733	28949
810.875	28915
811.016	28831
811.158	28702
811.299	28972
811.441	29189
811.582	29018
811.724	28949
811.865	28980
812.007	28892
812.148	28991
812.29	28949
812.431	29200
812.573	29341
812.714	29318
812.855	29474
812.997	29608
813.138	29600
813.279	29634
813.421	29478
813.562	29444
813.703	29200
813.845	29140
813.986	28961
814.127	28835
814.268	28634
814.41	28801
814.551	28706
814.692	28740
814.833	28713
814.974	28561
815.115	28744
815.256	28557
815.397	28451
815.539	28455
815.68	28588
815.821	28432
815.962	28470
816.103	28565
816.244	28325
816.385	28363
816.526	28401
816.666	28143
816.807	27949
816.948	28032
817.089	28059
817.23	27991
817.371	28006
817.512	27857
817.653	27945
817.793	27895
817.934	27812
818.075	27941
818.216	28013
818.356	27899
818.497	27732
818.638	27774
818.778	27759
818.919	27819
819.06	27728
819.2	27987
819.341	28051
819.481	27869
819.622	28074
819.762	28291
819.903	28287
820.043	28268
820.184	28063
820.324	28185
820.465	28131
820.605	28249
820.746	28044
820.886	28120
821.026	27998
821.167	28029
821.307	28105
821.447	28017
821.588	27835
821.728	27724
821.868	27671
822.008	27473
822.149	27603
822.289	27386
822.429	27161
822.569	27211
822.709	27047
822.849	27070
822.99	26849
823.13	26929
823.27	26952
823.41	26861
823.55	26667
823.69	26864
823.83	26731
823.97	26640
824.11	26670
824.25	26575
824.389	26686
824.529	26606
824.669	26670
824.809	26720
824.949	26686
825.089	26800
825.228	26731
825.368	26278
825.508	26457
825.648	26568
825.787	26583
825.927	26670
826.067	26492
826.206	26488
826.346	26712
826.485	26587
826.625	26438
826.765	26625
826.904	26609
827.044	26271
827.183	26271
827.323	26183
827.462	26396
827.601	26225
827.741	26286
827.88	26267
828.02	26081
828.159	26267
828.298	26134
828.437	26267
828.577	26214
828.716	26168
828.855	26256
828.994	25856
829.134	25795
829.273	25947
829.412	25890
829.551	26005
829.69	25795
829.829	26088
829.968	25993
830.107	26043
830.246	25894
830.385	25727
830.524	25765
830.663	25818
830.802	25578
830.941	25506
831.08	25377
831.219	25628
831.357	25647
831.496	25700
831.635	25571
831.774	25487
831.913	25381
832.051	25179
832.19	25308
832.329	25190
832.467	25175
832.606	25034
832.744	25103
832.883	25183
833.022	25168
833.16	25160
833.299	25209
833.437	25164
833.576	25217
833.714	25304
833.852	25304
833.991	25316
834.129	25209
834.267	25263
834.406	25164
834.544	25247
834.682	25335
834.821	25346
834.959	25445
835.097	25091
835.235	25221
835.373	25259
835.511	25270
835.65	25156
835.788	25091
835.926	24943
836.064	24867
836.202	24905
836.34	25137
836.478	25072
836.615	25080
836.753	25137
836.891	24977
837.029	25038
837.167	24943
837.305	24973
837.443	25031
837.58	24977
837.718	24867
837.856	25000
837.993	24829
838.131	24825
838.269	24730
838.406	24810
838.544	24810
838.681	24521
838.819	24604
838.956	24357
839.094	24300
839.231	24410
839.369	24509
839.506	24700
839.643	24582
839.781	24350
839.918	24365
840.055	24334
840.193	24289
840.33	24205
840.467	24327
840.604	24338
840.742	24475
840.879	24186
841.016	24174
841.153	24038
841.29	24357
841.427	24285
841.564	24311
841.701	24209
841.838	24247
841.975	24129
842.112	24209
842.249	24041
842.385	24060
842.522	24205
842.659	24068
842.796	24007
842.933	23889
843.069	23958
843.206	23897
843.343	23961
843.479	23954
843.616	23984
843.752	23843
843.889	23870
844.025	23855
844.162	23764
844.298	23901
844.435	23707
844.571	23714
844.708	23882
844.844	23958
844.98	23874
845.117	23828
845.253	23642
845.389	23589
845.525	23668
845.661	23646
845.798	23554
845.934	23611
846.07	23497
846.206	23676
846.342	23638
846.478	23444
846.614	23299
846.75	23246
846.886	23220
847.022	23322
847.158	23254
847.294	23360
847.429	23223
847.565	23220
847.701	23471
847.837	22942
847.972	23029
848.108	23048
848.244	22881
848.379	23025
848.515	22858
848.65	22885
848.786	22828
848.921	22824
849.057	22839
849.192	22949
849.328	22885
849.463	22862
849.598	22706
849.734	22729
849.869	22729
850.004	22546
850.14	22546
850.275	22675
850.41	22470
850.545	22481
850.68	22500
850.815	22599
850.95	22584
851.085	22759
851.22	22592
851.355	22664
851.49	22531
851.625	22523
851.76	22554
851.895	22474
852.03	22478
852.165	22527
852.299	22778
852.434	22584
852.569	22538
852.703	22504
852.838	22710
852.973	22729
853.107	22580
853.242	22603
853.376	22462
853.511	22226
853.645	22337
853.78	22451
853.914	22485
854.048	22478
854.183	22291
854.317	22455
854.451	22607
854.585	22363
854.72	22542
854.854	22599
854.988	22287
855.122	22527
855.256	22261
855.39	22405
855.524	22489
855.658	22405
855.792	22409
855.926	22341
856.06	22542
856.194	22554
856.327	22409
856.461	22238
856.595	22325
856.729	22375
856.862	22588
856.996	22409
857.13	22322
857.263	22485
857.397	22474
857.53	22280
857.664	22436
857.797	22459
857.931	22565
858.064	22325
858.197	22622
858.331	22394
858.464	22215
858.597	22150
858.731	22360
858.864	22432
858.997	22386
859.13	22440
859.263	22379
859.396	22382
859.529	22424
859.662	22314
859.795	22337
859.928	22402
860.061	22485
860.194	22596
860.327	22344
860.46	22375
860.592	22535
860.725	22508
860.858	22618
860.99	22424
861.123	22375
861.256	22382
861.388	22405
861.521	23170
861.653	22337
861.786	22090
861.918	22306
862.05	22318
862.183	22276
862.315	22375
862.447	22428
862.58	22303
862.712	22143
862.844	22185
862.976	22265
863.108	22135
863.24	22577
863.372	22150
863.504	22120
863.636	22040
863.768	22150
863.9	21968
864.032	22055
864.164	22120
864.296	22147
864.428	22166
864.559	22185
864.691	22116
864.823	22097
864.954	22139
865.086	22070
865.217	22078
865.349	21972
865.48	22040
865.612	21975
865.743	22109
865.875	22059
866.006	21918
866.137	22097
866.269	21983
866.4	22006
866.531	21945
866.662	21911
866.793	21854
866.924	21873
867.055	21945
867.186	21892
867.317	21888
867.448	21846
867.579	21892
867.71	21812
867.841	21907
867.972	21941
868.103	21831
868.233	21926
868.364	21888
868.495	21983
868.625	22166
868.756	22280
868.886	22093
869.017	22074
869.147	22310
869.278	22295
869.408	22147
869.539	22154
869.669	22303
869.799	22249
869.929	22329
870.06	22226
870.19	22440
870.32	22470
870.45	22622
870.58	22428
870.71	22702
870.84	22679
870.97	22546
871.1	22603
871.23	22771
871.36	22740
871.489	22687
871.619	22691
871.749	22835
871.879	22786
872.008	22755
872.138	22771
872.267	22729
872.397	22664
872.526	22748
872.656	22596
872.785	22592
872.915	22805
873.044	22752
873.173	22862
873.303	22869
873.432	22793
873.561	22850
873.69	22778
873.819	22698
873.948	22900
874.077	22774
874.206	22706
874.335	22793
874.464	22877
874.593	22949
874.722	22923
874.851	22930
874.979	23037
875.108	23143
875.237	23022
875.365	22980
875.494	22949
875.623	23067
875.751	23041
875.88	23006
876.008	23136
876.136	23162
876.265	23425
876.393	23471
876.521	23433
876.65	23349
876.778	23395
876.906	23273
877.034	23299
877.162	23337
877.29	23376
877.418	23387
877.546	23376
877.674	23299
877.802	23353
877.93	23303
878.058	23151
878.185	23178
878.313	23212
878.441	23277
878.568	23227
878.696	23330
878.824	23277
878.951	23383
879.079	23444
879.206	23543
879.333	23463
879.461	23398
879.588	23493
879.715	23497
879.842	23562
879.97	23391
880.097	23280
880.224	23216
880.351	23181
880.478	23189
880.605	23094
880.732	23147
880.859	23436
880.986	23140
881.112	23204
881.239	22923
881.366	22972
881.493	22824
881.619	22698
881.746	22790
881.872	22717
881.999	22607
882.125	22565
882.252	22793
882.378	22793
882.505	22816
882.631	22679
882.757	22538
882.883	22508
883.01	22466
883.136	22303
883.262	22325
883.388	22219
883.514	22314
883.64	22432
883.766	22333
883.892	22185
884.018	22158
884.143	22287
884.269	22265
884.395	22017
884.52	22105
884.646	22063
884.772	21968
884.897	21827
885.023	22044
885.148	22124
885.274	22150
885.399	22226
885.524	22131
885.65	22025
885.775	22219
885.9	21983
886.025	22116
886.15	22051
886.275	22040
886.4	22006
886.525	21895
886.65	21960
886.775	21850
886.9	22147
887.025	22325
887.149	21968
887.274	21728
887.399	21816
887.523	21724
887.648	21736
887.773	21606
887.897	21827
888.021	21686
888.146	21720
888.27	21846
888.395	21865
888.519	21827
888.643	21743
888.767	21667
888.891	21698
889.015	21618
889.139	21614
889.263	21511
889.387	21720
889.511	21797
889.635	21717
889.759	21652
889.883	21614
890.006	21568
890.13	21583
890.254	21389
890.377	21397
890.501	21408
890.624	21344
890.748	21351
890.871	21287
890.995	21203
891.118	21055
891.241	21066
891.364	21135
891.488	21230
891.611	21161
891.734	21157
891.857	21131
891.98	21195
892.103	21127
892.226	21119
892.349	21146
892.471	20994
892.594	21055
892.717	20948
892.839	20914
892.962	21032
893.085	21089
893.207	20887
893.33	20975
893.452	20994
893.575	21051
893.697	21085
893.819	21245
893.941	21275
894.064	21218
894.186	20952
894.308	20971
894.43	21077
894.552	21214
894.674	21100
894.796	20902
894.918	21032
895.04	20956
895.161	20967
895.283	21108
895.405	20990
895.526	20960
895.648	21001
895.769	20960
895.891	20975
896.012	21077
896.134	21062
896.255	20975
896.376	21013
896.498	20948
896.619	21055
896.74	20914
896.861	21058
896.982	21344
897.103	21336
897.224	21237
897.345	21192
897.466	21142
897.587	21161
897.708	21294
897.828	21283
897.949	21123
898.07	21066
898.19	21089
898.311	21332
898.431	21074
898.552	21180
898.672	21226
898.792	21230
898.913	21230
899.033	21157
899.153	21108
899.273	20914
899.393	20815
899.513	20937
899.633	20883
899.753	21001
899.873	20826
899.993	20910
900.113	20826
900.232	20910
900.352	20861
900.472	20735
900.591	20617
900.711	20705
900.83	20667
900.95	20788
901.069	20853
901.189	20511
901.308	20355
901.427	20275
901.546	20320
901.665	20214
901.784	20263
901.904	20142
902.023	20024
902.141	19826
902.26	19780
902.379	19845
902.498	19807
902.617	19772
902.735	19795
902.854	19605
902.973	19674
903.091	19419
903.21	19388
903.328	19400
903.446	19270
903.565	19213
903.683	19187
903.801	19156
903.919	19251
904.038	19148
904.156	18935
904.274	19050
904.392	18943
904.51	18958
904.627	18890
904.745	19046
904.863	19061
904.981	18688
905.098	18639
905.216	18688
905.334	18772
905.451	18715
905.569	18738
905.686	18730
905.803	18665
905.921	18525
906.038	18464
906.155	18563
906.272	18346
906.389	18300
906.506	18292
906.623	18197
906.74	18235
906.857	18045
906.974	18159
907.091	18125
907.208	18281
907.324	18277
907.441	18053
907.557	17999
907.674	17904
907.79	17824
907.907	17885
908.023	17847
908.139	17912
908.256	17882
908.372	17726
908.488	17832
908.604	17638
908.72	17615
908.836	17600
908.952	17562
909.068	17668
909.184	17726
909.3	17646
909.415	17566
909.531	17600
909.647	17395
909.762	17311
909.878	17326
909.993	17197
910.108	17315
910.224	17296
910.339	17223
910.454	17200
910.57	17056
910.685	17083
910.8	17265
910.915	17162
911.03	17193
911.145	16957
911.259	16923
911.374	16930
911.489	16889
911.604	16664
911.718	16573
911.833	16618
911.947	16626
912.062	16500
912.176	16637
912.291	16664
912.405	16542
912.519	16869
912.633	16862
912.748	16649
912.862	16573
912.976	16512
913.09	16379
913.204	16375
913.318	16504
913.431	16546
913.545	16535
913.659	16527
913.772	16398
913.886	16215
914	16207
914.113	16299
914.226	16360
914.34	16257
914.453	16135
914.566	16314
914.68	16162
914.793	16013
914.906	15865
915.019	15728
915.132	15770
915.245	15762
915.358	15808
915.47	15778
915.583	15823
915.696	15827
915.809	15930
915.921	15964
916.034	15686
916.146	15679
916.259	15622
916.371	15831
916.483	15793
916.595	15549
916.708	15720
916.82	15568
916.932	15526
917.044	15641
917.156	15401
917.268	15469
917.38	15458
917.491	15492
917.603	15469
917.715	15500
917.826	15526
917.938	15359
918.049	15233
918.161	15412
918.272	15473
918.384	15466
918.495	15397
918.606	15135
918.717	15176
918.828	15161
918.939	15165
919.05	15104
919.161	15184
919.272	14785
919.383	14986
919.494	15237
919.604	15462
919.715	15104
919.826	15032
919.936	15047
920.047	15226
920.157	15241
920.267	15298
920.378	15123
920.488	15116
920.598	15302
920.708	15431
920.818	15268
920.928	15203
921.038	15405
921.148	15264
921.258	15032
921.368	14971
921.477	14994
921.587	14895
921.697	14712
921.806	14807
921.916	14754
922.025	14590
922.134	14442
922.244	14507
922.353	14526
922.462	14476
922.571	14336
922.68	14191
922.789	14092
922.898	14180
923.007	14005
923.116	14138
923.224	14088
923.333	14088
923.442	14027
923.55	13811
923.659	13997
923.767	13989
923.876	13959
923.984	13940
924.092	13765
924.201	13833
924.309	13947
924.417	13845
924.525	13731
924.633	13833
924.741	14689
924.849	13533
924.956	13715
925.064	13537
925.172	13460
925.279	13529
925.387	13540
925.494	13506
925.602	13563
925.709	13559
925.816	13415
925.924	13483
926.031	13529
926.138	13415
926.245	13529
926.352	13327
926.459	13506
926.566	13487
926.673	13339
926.779	13236
926.886	13221
926.993	13012
927.099	13095
927.206	13027
927.312	12966
927.419	13149
927.525	13019
927.631	13019
927.737	12943
927.843	12935
927.95	12779
928.056	12859
928.162	12848
928.267	12795
928.373	13381
928.479	12924
928.585	12627
928.69	12837
928.796	12890
928.901	12692
929.007	12642
929.112	12757
929.218	12673
929.323	12650
929.428	12589
929.533	12734
929.638	12521
929.743	12536
929.848	12597
929.953	12585
930.058	12388
930.163	12197
930.267	12311
930.372	12350
930.477	12201
930.581	12384
930.685	12228
930.79	12121
930.894	12201
930.998	12114
931.103	12247
931.207	11855
931.311	11729
931.415	11703
931.519	11539
931.623	11448
