Data from test_V78500241_2786.txt Node
Date: Fri Mar 25 16:01:06 CST 2022
User: usil
Spectrometer: V785-0024
Trigger mode: 0
Integration Time (sec): 4.000000E-1
Scans to average: 1
Nonlinearity correction enabled: false
Boxcar width: 0
Storing dark spectrum: false
XAxis mode: Wavelengths
Number of Pixels in Spectrum: 1024
>>>>>Begin Spectral Data<<<<<
801.071	29223
801.214	29166
801.356	28809
801.499	28934
801.641	28847
801.783	28683
801.926	28782
802.068	28755
802.211	28706
802.353	28668
802.496	28508
802.638	28538
802.78	28447
802.923	28363
803.065	28348
803.208	28379
803.35	28577
803.492	28550
803.635	28812
803.777	28519
803.919	28805
804.061	29033
804.204	28759
804.346	28698
804.488	28626
804.63	28881
804.773	28660
804.915	28911
805.057	28908
805.199	28862
805.341	28843
805.483	28915
805.626	28984
805.768	28752
805.91	28873
806.052	29022
806.194	28877
806.336	29098
806.478	28850
806.62	28980
806.762	29147
806.904	29364
807.046	29452
807.188	29406
807.33	29322
807.472	29558
807.614	29337
807.756	29410
807.898	29239
808.04	29170
808.182	29181
808.324	29220
808.465	29315
808.607	29463
808.749	29528
808.891	29748
809.033	29840
809.174	29581
809.316	29634
809.458	29570
809.6	29630
809.741	29783
809.883	29760
810.025	30076
810.166	29988
810.308	29847
810.45	29889
810.591	29840
810.733	29592
810.875	29474
811.016	29566
811.158	29573
811.299	29741
811.441	29733
811.582	29836
811.724	29615
811.865	29608
812.007	29611
812.148	29737
812.29	29855
812.431	29783
812.573	29927
812.714	30190
812.855	30186
812.997	30296
813.138	30380
813.279	30235
813.421	30155
813.562	30098
813.703	30117
813.845	29912
813.986	29577
814.127	29455
814.268	29379
814.41	29391
814.551	29318
814.692	29455
814.833	29402
814.974	29448
815.115	29551
815.256	29200
815.397	29181
815.539	29136
815.68	29258
815.821	29128
815.962	29227
816.103	29235
816.244	29048
816.385	28930
816.526	28923
816.666	28744
816.807	28630
816.948	28801
817.089	28767
817.23	28702
817.371	28725
817.512	28694
817.653	28713
817.793	28637
817.934	28596
818.075	28679
818.216	28626
818.356	28721
818.497	28561
818.638	28417
818.778	28489
818.919	28478
819.06	28584
819.2	28580
819.341	28596
819.481	28755
819.622	28824
819.762	29128
819.903	28968
820.043	28843
820.184	28835
820.324	28850
820.465	28843
820.605	28953
820.746	28736
820.886	28733
821.026	28729
821.167	28641
821.307	28847
821.447	28664
821.588	28660
821.728	28542
821.868	28481
822.008	28246
822.149	28154
822.289	28112
822.429	28017
822.569	27842
822.709	27793
822.849	27762
822.99	27591
823.13	27709
823.27	27720
823.41	27496
823.55	27534
823.69	27515
823.83	27500
823.97	27553
824.11	27287
824.25	27245
824.389	27450
824.529	27447
824.669	27454
824.809	27458
824.949	27477
825.089	27462
825.228	27473
825.368	27138
825.508	27222
825.648	27279
825.787	27359
825.927	27416
826.067	27203
826.206	27138
826.346	27359
826.485	27264
826.625	27233
826.765	27367
826.904	27218
827.044	27032
827.183	27009
827.323	27055
827.462	26796
827.601	26845
827.741	27005
827.88	27058
828.02	26864
828.159	26944
828.298	26963
828.437	27055
828.577	26861
828.716	26967
828.855	26777
828.994	26686
829.134	26735
829.273	26693
829.412	26712
829.551	26556
829.69	26621
829.829	26636
829.968	26731
830.107	26621
830.246	26648
830.385	26560
830.524	26511
830.663	26339
830.802	26305
830.941	26259
831.08	26237
831.219	26423
831.357	26298
831.496	26469
831.635	26244
831.774	26157
831.913	26035
832.051	25989
832.19	26142
832.329	26107
832.467	25940
832.606	25928
832.744	25757
832.883	25871
833.022	25765
833.16	25944
833.299	25955
833.437	25894
833.576	26008
833.714	25986
833.852	26073
833.991	26077
834.129	25966
834.267	25978
834.406	26077
834.544	26058
834.682	25944
834.821	25845
834.959	25986
835.097	25932
835.235	26020
835.373	25841
835.511	26035
835.65	25871
835.788	25826
835.926	25795
836.064	25719
836.202	25613
836.34	25833
836.478	25894
836.615	25799
836.753	25765
836.891	25772
837.029	25750
837.167	25742
837.305	25750
837.443	25609
837.58	25712
837.718	25582
837.856	25658
837.993	25548
838.131	25647
838.269	25518
838.406	25613
838.544	25449
838.681	25266
838.819	25320
838.956	25065
839.094	25038
839.231	25080
839.369	25255
839.506	25403
839.643	25335
839.781	25095
839.918	25084
840.055	25107
840.193	25065
840.33	24932
840.467	24962
840.604	25012
840.742	25392
840.879	24810
841.016	25023
841.153	24924
841.29	25103
841.427	24932
841.564	25015
841.701	25034
841.838	24981
841.975	24909
842.112	24859
842.249	24821
842.385	24787
842.522	24840
842.659	24783
842.796	24620
842.933	24825
843.069	24715
843.206	24665
843.343	24817
843.479	24658
843.616	24677
843.752	24551
843.889	24410
844.025	24502
844.162	24456
844.298	24700
844.435	24532
844.571	24574
844.708	24635
844.844	24753
844.98	24608
845.117	24623
845.253	24315
845.389	24285
845.525	24490
845.661	24391
845.798	24235
845.934	24338
846.07	24243
846.206	24209
846.342	24285
846.478	24079
846.614	24136
846.75	24003
846.886	24011
847.022	24003
847.158	23954
847.294	23878
847.429	23988
847.565	23923
847.701	24155
847.837	23786
847.972	23638
848.108	23741
848.244	23684
848.379	23687
848.515	23543
848.65	23554
848.786	23524
848.921	23570
849.057	23493
849.192	23554
849.328	23672
849.463	23581
849.598	23554
849.734	23376
849.869	23345
850.004	23303
850.14	23360
850.275	23277
850.41	23292
850.545	23307
850.68	23349
850.815	23337
850.95	23376
851.085	23554
851.22	23349
851.355	23395
851.49	23269
851.625	23345
851.76	23212
851.895	23102
852.03	23170
852.165	23326
852.299	23235
852.434	23372
852.569	23353
852.703	23337
852.838	23417
852.973	23376
853.107	23353
853.242	23277
853.376	23124
853.511	22995
853.645	23105
853.78	23189
853.914	23132
854.048	23067
854.183	23064
854.317	23181
854.451	23353
854.585	23200
854.72	23128
854.854	23159
854.988	22980
855.122	23181
855.256	23140
855.39	23094
855.524	23117
855.658	23181
855.792	23178
855.926	23136
856.06	23109
856.194	23174
856.327	23071
856.461	23075
856.595	23090
856.729	23197
856.862	23200
856.996	23155
857.13	23124
857.263	23265
857.397	23258
857.53	23041
857.664	23166
857.797	23071
857.931	23197
858.064	23151
858.197	23258
858.331	23075
858.464	23071
858.597	23060
858.731	23090
858.864	23090
858.997	23121
859.13	23143
859.263	23181
859.396	23212
859.529	23117
859.662	23060
859.795	23014
859.928	23193
860.061	23315
860.194	23216
860.327	23121
860.46	23147
860.592	23337
860.725	23364
860.858	23311
860.99	23181
861.123	23094
861.256	23147
861.388	23223
861.521	23824
861.653	23044
861.786	22995
861.918	22938
862.05	23075
862.183	22987
862.315	23094
862.447	23162
862.58	22927
862.712	22824
862.844	22748
862.976	22934
863.108	22759
863.24	23353
863.372	22763
863.504	22831
863.636	22949
863.768	23018
863.9	22847
864.032	22702
864.164	22790
864.296	22866
864.428	22812
864.559	22946
864.691	22915
864.823	22771
864.954	22740
865.086	22809
865.217	22721
865.349	22565
865.48	22740
865.612	22778
865.743	22805
865.875	22637
866.006	22698
866.137	22679
866.269	22790
866.4	22634
866.531	22596
866.662	22759
866.793	22660
866.924	22538
867.055	22557
867.186	22607
867.317	22641
867.448	22497
867.579	22630
867.71	22462
867.841	22546
867.972	22615
868.103	22588
868.233	22523
868.364	22675
868.495	22774
868.625	22824
868.756	22965
868.886	22869
869.017	22816
869.147	22831
869.278	23003
869.408	22927
869.539	22812
869.669	22911
869.799	22976
869.929	23006
870.06	22869
870.19	23200
870.32	23086
870.45	23258
870.58	23250
870.71	23292
870.84	23303
870.97	23204
871.1	23254
871.23	23452
871.36	23459
871.489	23318
871.619	23551
871.749	23501
871.879	23398
872.008	23474
872.138	23516
872.267	23547
872.397	23181
872.526	23250
872.656	23337
872.785	23231
872.915	23402
873.044	23589
873.173	23379
873.303	23581
873.432	23596
873.561	23596
873.69	23467
873.819	23421
873.948	23467
874.077	23471
874.206	23577
874.335	23421
874.464	23547
874.593	23893
874.722	23676
874.851	23668
874.979	23863
875.108	23741
875.237	23619
875.365	23600
875.494	23676
875.623	23847
875.751	23661
875.88	23707
876.008	23809
876.136	23901
876.265	24038
876.393	24140
876.521	23992
876.65	24076
876.778	24049
876.906	23950
877.034	24026
877.162	23946
877.29	23961
877.418	23973
877.546	23916
877.674	24007
877.802	24076
877.93	24030
878.058	23904
878.185	23882
878.313	23916
878.441	24110
878.568	23775
878.696	23889
878.824	23977
878.951	24022
879.079	24201
879.206	24395
879.333	24243
879.461	24197
879.588	24060
879.715	24194
879.842	24422
879.97	24076
880.097	23992
880.224	23821
880.351	23855
880.478	24034
880.605	23885
880.732	23836
880.859	23897
880.986	23832
881.112	23832
881.239	23790
881.366	23501
881.493	23490
881.619	23429
881.746	23455
881.872	23349
881.999	23273
882.125	23398
882.252	23395
882.378	23444
882.505	23463
882.631	23288
882.757	23044
882.883	23075
883.01	23029
883.136	23033
883.262	23060
883.388	22987
883.514	23094
883.64	23075
883.766	22976
883.892	22656
884.018	22786
884.143	22976
884.269	23044
884.395	22645
884.52	22687
884.646	22698
884.772	22569
884.897	22637
885.023	22675
885.148	22618
885.274	22816
885.399	22828
885.524	22771
885.65	22683
885.775	22698
885.9	22649
886.025	22698
886.15	22721
886.275	22577
886.4	22637
886.525	22573
886.65	22698
886.775	22554
886.9	22672
887.025	22843
887.149	22641
887.274	22424
887.399	22466
887.523	22519
887.648	22409
887.773	22417
887.897	22417
888.021	22485
888.146	22386
888.27	22466
888.395	22535
888.519	22508
888.643	22409
888.767	22504
888.891	22257
889.015	22147
889.139	22280
889.263	22207
889.387	22226
889.511	22341
889.635	22291
889.759	22120
889.883	22177
890.006	22169
890.13	22310
890.254	22158
890.377	22173
890.501	21884
890.624	21930
890.748	22036
890.871	21800
890.995	21812
891.118	21732
891.241	21759
891.364	21732
891.488	21857
891.611	21679
891.734	21778
891.857	21793
891.98	21606
892.103	21709
892.226	21728
892.349	21542
892.471	21580
892.594	21671
892.717	21599
892.839	21671
892.962	21583
893.085	21785
893.207	21530
893.33	21469
893.452	21492
893.575	21557
893.697	21557
893.819	21797
893.941	21736
894.064	21694
894.186	21656
894.308	21507
894.43	21781
894.552	21739
894.674	21682
894.796	21496
894.918	21625
895.04	21576
895.161	21789
895.283	21564
895.405	21622
895.526	21644
895.648	21564
895.769	21538
895.891	21568
896.012	21576
896.134	21583
896.255	21625
896.376	21572
896.498	21561
896.619	21595
896.74	21526
896.861	21686
896.982	21854
897.103	21915
897.224	21823
897.345	21793
897.466	21644
897.587	21713
897.708	21888
897.828	21876
897.949	21713
898.07	21641
898.19	21625
898.311	21774
898.431	21698
898.552	21728
898.672	21888
898.792	21956
898.913	21804
899.033	21656
899.153	21599
899.273	21424
899.393	21469
899.513	21504
899.633	21504
899.753	21580
899.873	21386
899.993	21530
900.113	21458
900.232	21412
900.352	21367
900.472	21431
900.591	21211
900.711	21294
900.83	21180
900.95	21321
901.069	21359
901.189	21070
901.308	20960
901.427	20895
901.546	20746
901.665	20933
901.784	20925
901.904	20678
902.023	20560
902.141	20419
902.26	20362
902.379	20488
902.498	20393
902.617	20351
902.735	20351
902.854	20286
902.973	20237
903.091	19982
903.21	19909
903.328	19963
903.446	19875
903.565	19807
903.683	19826
903.801	19616
903.919	19628
904.038	19814
904.156	19510
904.274	19559
904.392	19499
904.51	19506
904.627	19514
904.745	19556
904.863	19514
904.981	19320
905.098	19145
905.216	19285
905.334	19198
905.451	19228
905.569	19198
905.686	19217
905.803	19187
905.921	19053
906.038	19050
906.155	18966
906.272	19015
906.389	18943
906.506	18738
906.623	18741
906.74	18795
906.857	18528
906.974	18627
907.091	18711
907.208	18764
907.324	18734
907.441	18547
907.557	18479
907.674	18521
907.79	18391
907.907	18426
908.023	18479
908.139	18388
908.256	18353
908.372	18338
908.488	18403
908.604	18224
908.72	18072
908.836	18220
908.952	18121
909.068	18133
909.184	18205
909.3	18121
909.415	18209
909.531	18152
909.647	17939
909.762	17847
909.878	17889
909.993	17863
910.108	17821
910.224	17851
910.339	17741
910.454	17805
910.57	17623
910.685	17608
910.8	17855
910.915	17817
911.03	17585
911.145	17436
911.259	17459
911.374	17436
911.489	17349
911.604	17356
911.718	17227
911.833	17204
911.947	17124
912.062	17037
912.176	17166
912.291	17174
912.405	17189
912.519	17368
912.633	17273
912.748	17185
912.862	17098
912.976	17067
913.09	16984
913.204	16953
913.318	16908
913.431	17067
913.545	17048
913.659	17083
913.772	16900
913.886	16831
914	16774
914.113	16801
914.226	16778
914.34	16790
914.453	16740
914.566	16824
914.68	16687
914.793	16588
914.906	16375
915.019	16337
915.132	16276
915.245	16367
915.358	16436
915.47	16432
915.583	16360
915.696	16360
915.809	16470
915.921	16436
916.034	16276
916.146	16242
916.259	16226
916.371	16185
916.483	16090
916.595	16105
916.708	16067
916.82	16116
916.932	16139
917.044	16097
917.156	16086
917.268	15922
917.38	15922
917.491	15915
917.603	15918
917.715	15998
917.826	15953
917.938	15899
918.049	15781
918.161	15888
918.272	15968
918.384	15964
918.495	15880
918.606	15644
918.717	15553
918.828	15759
918.939	15637
919.05	15526
919.161	15606
919.272	15336
919.383	15504
919.494	15641
919.604	15823
919.715	15739
919.826	15500
919.936	15507
920.047	15614
920.157	15660
920.267	15709
920.378	15633
920.488	15564
920.598	15766
920.708	15827
920.818	15720
920.928	15717
921.038	15842
921.148	15793
921.258	15523
921.368	15431
921.477	15249
921.587	15370
921.697	15188
921.806	15298
921.916	15097
922.025	14998
922.134	14941
922.244	14910
922.353	15013
922.462	14853
922.571	14720
922.68	14621
922.789	14590
922.898	14549
923.007	14484
923.116	14571
923.224	14552
923.333	14564
923.442	14450
923.55	14385
923.659	14511
923.767	14476
923.876	14263
923.984	14336
924.092	14290
924.201	14351
924.309	14336
924.417	14290
924.525	14221
924.633	14218
924.741	15131
924.849	14088
924.956	14164
925.064	14031
925.172	13814
925.279	13887
925.387	13974
925.494	13921
925.602	14039
925.709	13928
925.816	13799
925.924	13860
926.031	13936
926.138	13947
926.245	13921
926.352	13723
926.459	13906
926.566	13879
926.673	13700
926.779	13704
926.886	13681
926.993	13487
927.099	13388
927.206	13529
927.312	13438
927.419	13540
927.525	13396
927.631	13483
927.737	13274
927.843	13221
927.95	13156
928.056	13282
928.162	13183
928.267	13301
928.373	13814
928.479	13327
928.585	13088
928.69	13278
928.796	13232
928.901	13107
929.007	12962
929.112	13137
929.218	13019
929.323	13034
929.428	12901
929.533	13194
929.638	12913
929.743	12901
929.848	12985
929.953	12848
930.058	12776
930.163	12604
930.267	12711
930.372	12825
930.477	12639
930.581	12806
930.685	12703
930.79	12456
930.894	12513
930.998	12448
931.103	12509
931.207	12258
931.311	12155
931.415	12083
931.519	11885
931.623	11809
