Data from test_V78500241_2617.txt Node
Date: Fri Mar 25 15:59:55 CST 2022
User: usil
Spectrometer: V785-0024
Trigger mode: 0
Integration Time (sec): 4.000000E-1
Scans to average: 1
Nonlinearity correction enabled: false
Boxcar width: 0
Storing dark spectrum: false
XAxis mode: Wavelengths
Number of Pixels in Spectrum: 1024
>>>>>Begin Spectral Data<<<<<
801.071	29083
801.214	28953
801.356	28679
801.499	28675
801.641	28390
801.783	28546
801.926	28542
802.068	28478
802.211	28394
802.353	28519
802.496	28394
802.638	28363
802.78	28204
802.923	28162
803.065	28162
803.208	28173
803.35	28223
803.492	28390
803.635	28485
803.777	28341
803.919	28565
804.061	28869
804.204	28485
804.346	28424
804.488	28322
804.63	28382
804.773	28196
804.915	28607
805.057	28748
805.199	28382
805.341	28588
805.483	28527
805.626	28588
805.768	28546
805.91	28713
806.052	28637
806.194	28542
806.336	28820
806.478	28702
806.62	28512
806.762	28801
806.904	28984
807.046	29086
807.188	29071
807.33	29147
807.472	29433
807.614	29147
807.756	28995
807.898	29022
808.04	28812
808.182	28930
808.324	28938
808.465	28904
808.607	29220
808.749	29364
808.891	29410
809.033	29554
809.174	29425
809.316	29269
809.458	29356
809.6	29425
809.741	29410
809.883	29558
810.025	29714
810.166	29638
810.308	29676
810.45	29589
810.591	29509
810.733	29372
810.875	29261
811.016	29235
811.158	29372
811.299	29417
811.441	29554
811.582	29486
811.724	29531
811.865	29410
812.007	29372
812.148	29425
812.29	29486
812.431	29668
812.573	29680
812.714	29775
812.855	29901
812.997	29965
813.138	30064
813.279	29980
813.421	29767
813.562	29756
813.703	29802
813.845	29581
813.986	29429
814.127	29170
814.268	29117
814.41	29102
814.551	29064
814.692	28968
814.833	28961
814.974	29033
815.115	29223
815.256	29041
815.397	28919
815.539	28942
815.68	28858
815.821	28820
815.962	28923
816.103	28866
816.244	28835
816.385	28721
816.526	28683
816.666	28455
816.807	28371
816.948	28675
817.089	28508
817.23	28295
817.371	28333
817.512	28379
817.653	28360
817.793	28268
817.934	28417
818.075	28504
818.216	28466
818.356	28276
818.497	28306
818.638	28128
818.778	28196
818.919	28093
819.06	28261
819.2	28325
819.341	28401
819.481	28527
819.622	28588
819.762	28820
819.903	28607
820.043	28634
820.184	28618
820.324	28542
820.465	28588
820.605	28744
820.746	28554
820.886	28375
821.026	28565
821.167	28440
821.307	28611
821.447	28382
821.588	28466
821.728	28207
821.868	28169
822.008	27972
822.149	27991
822.289	27998
822.429	27545
822.569	27599
822.709	27644
822.849	27287
822.99	27466
823.13	27336
823.27	27298
823.41	27268
823.55	27146
823.69	27325
823.83	27241
823.97	27157
824.11	27093
824.25	27112
824.389	27104
824.529	27165
824.669	27173
824.809	27180
824.949	27169
825.089	27199
825.228	27207
825.368	27039
825.508	26933
825.648	26982
825.787	27043
825.927	26971
826.067	26838
826.206	26975
826.346	26925
826.485	26914
826.625	26910
826.765	27070
826.904	27005
827.044	26674
827.183	26765
827.323	26533
827.462	26754
827.601	26674
827.741	26640
827.88	26659
828.02	26518
828.159	26579
828.298	26724
828.437	26765
828.577	26636
828.716	26632
828.855	26621
828.994	26358
829.134	26396
829.273	26488
829.412	26351
829.551	26195
829.69	26161
829.829	26294
829.968	26317
830.107	26419
830.246	26362
830.385	26328
830.524	26290
830.663	26153
830.802	26020
830.941	25898
831.08	25963
831.219	25951
831.357	26100
831.496	26218
831.635	25944
831.774	25970
831.913	25898
832.051	25643
832.19	25578
832.329	25727
832.467	25544
832.606	25590
832.744	25681
832.883	25655
833.022	25552
833.16	25605
833.299	25597
833.437	25731
833.576	25746
833.714	25544
833.852	25788
833.991	25772
834.129	25841
834.267	25670
834.406	25647
834.544	25807
834.682	25731
834.821	25681
834.959	25894
835.097	25594
835.235	25723
835.373	25674
835.511	25693
835.65	25396
835.788	25647
835.926	25369
836.064	25316
836.202	25411
836.34	25441
836.478	25514
836.615	25392
836.753	25529
836.891	25578
837.029	25563
837.167	25426
837.305	25335
837.443	25358
837.58	25297
837.718	25441
837.856	25266
837.993	25187
838.131	25255
838.269	25148
838.406	25145
838.544	25327
838.681	24924
838.819	24924
838.956	24837
839.094	24848
839.231	24844
839.369	24837
839.506	25198
839.643	25050
839.781	24741
839.918	24791
840.055	24738
840.193	24661
840.33	24703
840.467	24829
840.604	24612
840.742	24951
840.879	24597
841.016	24601
841.153	24475
841.29	24783
841.427	24684
841.564	24829
841.701	24616
841.838	24623
841.975	24566
842.112	24574
842.249	24544
842.385	24410
842.522	24681
842.659	24574
842.796	24452
842.933	24399
843.069	24289
843.206	24407
843.343	24467
843.479	24418
843.616	24353
843.752	24216
843.889	24270
844.025	24323
844.162	24247
844.298	24407
844.435	24270
844.571	24148
844.708	24201
844.844	24433
844.98	24372
845.117	24323
845.253	24098
845.389	24110
845.525	24190
845.661	23961
845.798	23999
845.934	24060
846.07	23923
846.206	23912
846.342	24129
846.478	23908
846.614	23775
846.75	23535
846.886	23581
847.022	23771
847.158	23707
847.294	23592
847.429	23642
847.565	23577
847.701	23855
847.837	23414
847.972	23368
848.108	23512
848.244	23436
848.379	23326
848.515	23280
848.65	23212
848.786	23261
848.921	23376
849.057	23383
849.192	23353
849.328	23200
849.463	23223
849.598	23220
849.734	23109
849.869	22957
850.004	23033
850.14	23113
850.275	23052
850.41	22976
850.545	22987
850.68	22961
850.815	22968
850.95	22987
851.085	23162
851.22	23178
851.355	23033
851.49	23044
851.625	22889
851.76	22919
851.895	22930
852.03	22934
852.165	23090
852.299	23159
852.434	23239
852.569	23037
852.703	23041
852.838	23041
852.973	23189
853.107	23010
853.242	23056
853.376	22866
853.511	22786
853.645	22862
853.78	22968
853.914	22911
854.048	22744
854.183	22972
854.317	22717
854.451	23014
854.585	22843
854.72	22763
854.854	22923
854.988	22801
855.122	22881
855.256	22767
855.39	22790
855.524	22896
855.658	22805
855.792	22820
855.926	22999
856.06	22858
856.194	22957
856.327	22797
856.461	22782
856.595	22763
856.729	22740
856.862	22801
856.996	22911
857.13	22915
857.263	22896
857.397	22866
857.53	22790
857.664	22885
857.797	23029
857.931	23022
858.064	22885
858.197	22949
858.331	22850
858.464	22812
858.597	22725
858.731	22900
858.864	22645
858.997	22698
859.13	22862
859.263	22797
859.396	22816
859.529	22828
859.662	22812
859.795	22759
859.928	22911
860.061	23048
860.194	23022
860.327	22991
860.46	22987
860.592	22942
860.725	23025
860.858	22934
860.99	22786
861.123	22713
861.256	22713
861.388	22896
861.521	23551
861.653	22683
861.786	22664
861.918	22660
862.05	22790
862.183	22816
862.315	22752
862.447	22831
862.58	22656
862.712	22637
862.844	22466
862.976	22626
863.108	22573
863.24	22972
863.372	22413
863.504	22493
863.636	22573
863.768	22596
863.9	22489
864.032	22470
864.164	22443
864.296	22519
864.428	22618
864.559	22577
864.691	22656
864.823	22588
864.954	22367
865.086	22489
865.217	22455
865.349	22348
865.48	22432
865.612	22421
865.743	22417
865.875	22535
866.006	22318
866.137	22611
866.269	22344
866.4	22421
866.531	22341
866.662	22443
866.793	22318
866.924	22325
867.055	22344
867.186	22299
867.317	22394
867.448	22230
867.579	22219
867.71	22280
867.841	22238
867.972	22322
868.103	22268
868.233	22200
868.364	22329
868.495	22538
868.625	22554
868.756	22641
868.886	22485
869.017	22557
869.147	22721
869.278	22687
869.408	22542
869.539	22588
869.669	22668
869.799	22622
869.929	22683
870.06	22691
870.19	22812
870.32	22927
870.45	22946
870.58	22892
870.71	23216
870.84	22961
870.97	23037
871.1	22999
871.23	22999
871.36	23178
871.489	23071
871.619	23181
871.749	23193
871.879	23258
872.008	23242
872.138	23083
872.267	23170
872.397	22965
872.526	22949
872.656	22949
872.785	23105
872.915	23143
873.044	23391
873.173	23166
873.303	23235
873.432	23216
873.561	23406
873.69	23223
873.819	23166
873.948	23208
874.077	23193
874.206	23159
874.335	23197
874.464	23181
874.593	23330
874.722	23292
874.851	23524
874.979	23406
875.108	23547
875.237	23318
875.365	23288
875.494	23425
875.623	23459
875.751	23429
875.88	23410
876.008	23493
876.136	23505
876.265	23756
876.393	23832
876.521	23855
876.65	23809
876.778	23802
876.906	23767
877.034	23676
877.162	23752
877.29	23718
877.418	23786
877.546	23687
877.674	23733
877.802	23668
877.93	23668
878.058	23691
878.185	23623
878.313	23604
878.441	23771
878.568	23608
878.696	23634
878.824	23874
878.951	23794
879.079	23958
879.206	24034
879.333	23969
879.461	23779
879.588	23893
879.715	23931
879.842	24072
879.97	23821
880.097	23642
880.224	23421
880.351	23623
880.478	23577
880.605	23490
880.732	23429
880.859	23745
880.986	23680
881.112	23604
881.239	23414
881.366	23216
881.493	23143
881.619	23216
881.746	23094
881.872	23048
881.999	22965
882.125	23056
882.252	23109
882.378	23033
882.505	23098
882.631	22889
882.757	22805
882.883	22930
883.01	22748
883.136	22752
883.262	22736
883.388	22653
883.514	22858
883.64	22767
883.766	22733
883.892	22516
884.018	22592
884.143	22622
884.269	22782
884.395	22462
884.52	22390
884.646	22360
884.772	22405
884.897	22230
885.023	22402
885.148	22478
885.274	22474
885.399	22451
885.524	22318
885.65	22485
885.775	22409
885.9	22447
886.025	22485
886.15	22542
886.275	22390
886.4	22299
886.525	22485
886.65	22367
886.775	22253
886.9	22421
887.025	22519
887.149	22295
887.274	22188
887.399	22249
887.523	22116
887.648	22067
887.773	22067
887.897	22185
888.021	22226
888.146	22154
888.27	22215
888.395	22272
888.519	22211
888.643	22192
888.767	22204
888.891	21945
889.015	22017
889.139	21960
889.263	21873
889.387	22002
889.511	22036
889.635	22112
889.759	21892
889.883	21945
890.006	21949
890.13	22036
890.254	21911
890.377	21926
890.501	21610
890.624	21526
890.748	21720
890.871	21564
890.995	21545
891.118	21355
891.241	21504
891.364	21603
891.488	21576
891.611	21511
891.734	21481
891.857	21545
891.98	21530
892.103	21568
892.226	21424
892.349	21428
892.471	21260
892.594	21363
892.717	21473
892.839	21462
892.962	21370
893.085	21469
893.207	21382
893.33	21329
893.452	21252
893.575	21351
893.697	21332
893.819	21549
893.941	21656
894.064	21439
894.186	21325
894.308	21351
894.43	21378
894.552	21401
894.674	21344
894.796	21070
894.918	21332
895.04	21218
895.161	21287
895.283	21515
895.405	21344
895.526	21386
895.648	21306
895.769	21488
895.891	21405
896.012	21511
896.134	21332
896.255	21329
896.376	21355
896.498	21222
896.619	21386
896.74	21500
896.861	21298
896.982	21739
897.103	21762
897.224	21553
897.345	21519
897.466	21507
897.587	21538
897.708	21595
897.828	21507
897.949	21473
898.07	21447
898.19	21507
898.311	21618
898.431	21477
898.552	21511
898.672	21652
898.792	21599
898.913	21618
899.033	21389
899.153	21230
899.273	21237
899.393	21226
899.513	21325
899.633	21188
899.753	21249
899.873	21146
899.993	21325
900.113	21150
900.232	21283
900.352	21165
900.472	21180
900.591	21062
900.711	21100
900.83	21066
900.95	21116
901.069	21127
901.189	20868
901.308	20644
901.427	20598
901.546	20617
901.665	20552
901.784	20651
901.904	20457
902.023	20396
902.141	20221
902.26	20073
902.379	20195
902.498	20084
902.617	19970
902.735	20122
902.854	19959
902.973	19989
903.091	19746
903.21	19822
903.328	19712
903.446	19616
903.565	19575
903.683	19537
903.801	19419
903.919	19514
904.038	19483
904.156	19438
904.274	19457
904.392	19369
904.51	19289
904.627	19209
904.745	19304
904.863	19331
904.981	19061
905.098	19091
905.216	19019
905.334	18905
905.451	18977
905.569	18894
905.686	18954
905.803	18993
905.921	18844
906.038	18825
906.155	18844
906.272	18677
906.389	18589
906.506	18502
906.623	18525
906.74	18509
906.857	18410
906.974	18414
907.091	18448
907.208	18521
907.324	18471
907.441	18372
907.557	18216
907.674	18235
907.79	18083
907.907	18163
908.023	18372
908.139	18117
908.256	18106
908.372	18106
908.488	18125
908.604	17908
908.72	17901
908.836	17912
908.952	17821
909.068	17904
909.184	17946
909.3	17950
909.415	17954
909.531	17961
909.647	17695
909.762	17585
909.878	17623
909.993	17642
910.108	17581
910.224	17543
910.339	17577
910.454	17459
910.57	17372
910.685	17269
910.8	17741
910.915	17539
911.03	17429
911.145	17181
911.259	17208
911.374	17254
911.489	17098
911.604	17045
911.718	16904
911.833	16957
911.947	16831
912.062	16858
912.176	16946
912.291	16946
912.405	16942
912.519	17090
912.633	17155
912.748	16919
912.862	16858
912.976	16801
913.09	16618
913.204	16733
913.318	16725
913.431	16847
913.545	16809
913.659	16763
913.772	16622
913.886	16596
914	16470
914.113	16626
914.226	16675
914.34	16527
914.453	16428
914.566	16527
914.68	16443
914.793	16443
914.906	16219
915.019	16071
915.132	16048
915.245	16063
915.358	16109
915.47	16166
915.583	16101
915.696	16048
915.809	16234
915.921	16226
916.034	16067
916.146	16036
916.259	15941
916.371	16143
916.483	15991
916.595	15915
916.708	15930
916.82	16017
916.932	15873
917.044	15895
917.156	15785
917.268	15770
917.38	15854
917.491	15747
917.603	15739
917.715	15819
917.826	15842
917.938	15679
918.049	15496
918.161	15622
918.272	15793
918.384	15785
918.495	15644
918.606	15485
918.717	15393
918.828	15492
918.939	15523
919.05	15344
919.161	15462
919.272	15336
919.383	15264
919.494	15492
919.604	15648
919.715	15447
919.826	15344
919.936	15367
920.047	15428
920.157	15485
920.267	15599
920.378	15351
920.488	15386
920.598	15576
920.708	15701
920.818	15549
920.928	15511
921.038	15717
921.148	15797
921.258	15397
921.368	15283
921.477	15188
921.587	15214
921.697	14986
921.806	15188
921.916	14963
922.025	14762
922.134	14823
922.244	14826
922.353	14777
922.462	14663
922.571	14541
922.68	14427
922.789	14355
922.898	14389
923.007	14358
923.116	14396
923.224	14427
923.333	14434
923.442	14313
923.55	14263
923.659	14286
923.767	14336
923.876	14176
923.984	14237
924.092	14084
924.201	14123
924.309	14161
924.417	14050
924.525	14084
924.633	14035
924.741	14902
924.849	13871
924.956	14039
925.064	13791
925.172	13833
925.279	13807
925.387	13818
925.494	13712
925.602	13940
925.709	13826
925.816	13666
925.924	13708
926.031	13712
926.138	13708
926.245	13761
926.352	13578
926.459	13761
926.566	13795
926.673	13628
926.779	13407
926.886	13426
926.993	13415
927.099	13289
927.206	13232
927.312	13244
927.419	13343
927.525	13415
927.631	13282
927.737	13187
927.843	13099
927.95	13053
928.056	13225
928.162	13053
928.267	13149
928.373	13666
928.479	13156
928.585	12993
928.69	12981
928.796	13149
928.901	12981
929.007	12886
929.112	13019
929.218	12844
929.323	12817
929.428	12829
929.533	12856
929.638	12730
929.743	12776
929.848	12715
929.953	12760
930.058	12700
930.163	12532
930.267	12563
930.372	12669
930.477	12384
930.581	12612
930.685	12551
930.79	12292
930.894	12357
930.998	12376
931.103	12456
931.207	12072
931.311	12060
931.415	11863
931.519	11733
931.623	11638
