Data from test_V78500241_2226.txt Node
Date: Fri Mar 25 15:57:13 CST 2022
User: usil
Spectrometer: V785-0024
Trigger mode: 0
Integration Time (sec): 4.000000E-1
Scans to average: 1
Nonlinearity correction enabled: false
Boxcar width: 0
Storing dark spectrum: false
XAxis mode: Wavelengths
Number of Pixels in Spectrum: 1024
>>>>>Begin Spectral Data<<<<<
801.071	29220
801.214	29170
801.356	28965
801.499	28839
801.641	28816
801.783	28679
801.926	28862
802.068	28835
802.211	28752
802.353	28637
802.496	28565
802.638	28546
802.78	28401
802.923	28436
803.065	28367
803.208	28455
803.35	28440
803.492	28459
803.635	28687
803.777	28504
803.919	28679
804.061	28938
804.204	28797
804.346	28786
804.488	28618
804.63	28786
804.773	28713
804.915	28797
805.057	28919
805.199	28755
805.341	28790
805.483	28961
805.626	28946
805.768	28733
805.91	28850
806.052	29022
806.194	29010
806.336	29048
806.478	28942
806.62	28752
806.762	29025
806.904	29197
807.046	29353
807.188	29356
807.33	29318
807.472	29337
807.614	29353
807.756	29181
807.898	29204
808.04	29121
808.182	29174
808.324	29296
808.465	29239
808.607	29493
808.749	29630
808.891	29790
809.033	29646
809.174	29554
809.316	29642
809.458	29737
809.6	29531
809.741	29577
809.883	29676
810.025	29870
810.166	29927
810.308	29935
810.45	29965
810.591	29889
810.733	29745
810.875	29585
811.016	29585
811.158	29467
811.299	29672
811.441	29916
811.582	29790
811.724	29615
811.865	29638
812.007	29646
812.148	29634
812.29	29630
812.431	29878
812.573	30022
812.714	30136
812.855	30083
812.997	30171
813.138	30384
813.279	30319
813.421	30304
813.562	30072
813.703	29893
813.845	29942
813.986	29676
814.127	29406
814.268	29315
814.41	29356
814.551	29395
814.692	29619
814.833	29311
814.974	29277
815.115	29364
815.256	29288
815.397	29349
815.539	29292
815.68	29216
815.821	29147
815.962	29140
816.103	29288
816.244	29033
816.385	29086
816.526	28953
816.666	28900
816.807	28649
816.948	28645
817.089	28790
817.23	28706
817.371	28717
817.512	28736
817.653	28599
817.793	28626
817.934	28740
818.075	28580
818.216	28637
818.356	28672
818.497	28565
818.638	28421
818.778	28405
818.919	28561
819.06	28504
819.2	28588
819.341	28653
819.481	28637
819.622	28831
819.762	29117
819.903	29006
820.043	28934
820.184	28809
820.324	28793
820.465	28904
820.605	28831
820.746	28782
820.886	28584
821.026	28877
821.167	28858
821.307	28797
821.447	28752
821.588	28615
821.728	28417
821.868	28280
822.008	28379
822.149	28246
822.289	28112
822.429	27831
822.569	27835
822.709	27895
822.849	27770
822.99	27572
823.13	27614
823.27	27610
823.41	27485
823.55	27363
823.69	27397
823.83	27542
823.97	27386
824.11	27389
824.25	27287
824.389	27268
824.529	27439
824.669	27363
824.809	27427
824.949	27386
825.089	27447
825.228	27351
825.368	27321
825.508	27230
825.648	27195
825.787	27161
825.927	27195
826.067	27169
826.206	27222
826.346	27173
826.485	27275
826.625	27112
826.765	27275
826.904	27313
827.044	26963
827.183	27127
827.323	26880
827.462	26925
827.601	27032
827.741	27032
827.88	26967
828.02	26705
828.159	26868
828.298	27013
828.437	27028
828.577	26902
828.716	27047
828.855	26769
828.994	26514
829.134	26613
829.273	26754
829.412	26632
829.551	26579
829.69	26678
829.829	26552
829.968	26663
830.107	26705
830.246	26621
830.385	26465
830.524	26446
830.663	26522
830.802	26438
830.941	26343
831.08	26218
831.219	26320
831.357	26320
831.496	26495
831.635	26145
831.774	26157
831.913	26046
832.051	26054
832.19	26001
832.329	25837
832.467	25921
832.606	25833
832.744	25753
832.883	25837
833.022	25799
833.16	25807
833.299	26008
833.437	25909
833.576	25936
833.714	25909
833.852	26035
833.991	26005
834.129	26024
834.267	26043
834.406	25898
834.544	26012
834.682	25921
834.821	26012
834.959	26103
835.097	25928
835.235	25997
835.373	25883
835.511	25982
835.65	25826
835.788	25780
835.926	25750
836.064	25483
836.202	25597
836.34	25757
836.478	25902
836.615	25708
836.753	25712
836.891	25719
837.029	25681
837.167	25689
837.305	25571
837.443	25460
837.58	25605
837.718	25674
837.856	25582
837.993	25403
838.131	25540
838.269	25514
838.406	25422
838.544	25449
838.681	25198
838.819	25179
838.956	25042
839.094	25129
839.231	25122
839.369	25209
839.506	25464
839.643	25198
839.781	25000
839.918	24951
840.055	24951
840.193	24977
840.33	24951
840.467	25000
840.604	24958
840.742	25107
840.879	24833
841.016	24856
841.153	24817
841.29	25000
841.427	24951
841.564	24829
841.701	24848
841.838	24871
841.975	24886
842.112	24992
842.249	24627
842.385	24798
842.522	24935
842.659	24688
842.796	24570
842.933	24631
843.069	24627
843.206	24585
843.343	24798
843.479	24730
843.616	24700
843.752	24414
843.889	24544
844.025	24623
844.162	24437
844.298	24601
844.435	24441
844.571	24445
844.708	24513
844.844	24574
844.98	24589
845.117	24555
845.253	24460
845.389	24266
845.525	24372
845.661	24247
845.798	24251
845.934	24235
846.07	24163
846.206	24304
846.342	24350
846.478	24140
846.614	23980
846.75	23889
846.886	23882
847.022	23965
847.158	23965
847.294	23874
847.429	23863
847.565	23775
847.701	24045
847.837	23680
847.972	23615
848.108	23703
848.244	23638
848.379	23520
848.515	23471
848.65	23421
848.786	23509
848.921	23516
849.057	23638
849.192	23687
849.328	23531
849.463	23516
849.598	23364
849.734	23360
849.869	23490
850.004	23208
850.14	23299
850.275	23406
850.41	23113
850.545	23208
850.68	23117
850.815	23307
850.95	23162
851.085	23535
851.22	23250
851.355	23360
851.49	23265
851.625	23197
851.76	23246
851.895	23239
852.03	23239
852.165	23181
852.299	23288
852.434	23292
852.569	23280
852.703	23212
852.838	23311
852.973	23387
853.107	23387
853.242	23136
853.376	23132
853.511	22900
853.645	22968
853.78	23128
853.914	23044
854.048	23003
854.183	23102
854.317	23239
854.451	23307
854.585	23121
854.72	23025
854.854	23083
854.988	23079
855.122	23064
855.256	22908
855.39	23105
855.524	23284
855.658	23159
855.792	22900
855.926	22991
856.06	23083
856.194	23174
856.327	23090
856.461	22934
856.595	23018
856.729	23094
856.862	23102
856.996	23029
857.13	23132
857.263	23242
857.397	23223
857.53	23090
857.664	23079
857.797	23231
857.931	23185
858.064	23124
858.197	23117
858.331	22976
858.464	23025
858.597	22911
858.731	22987
858.864	23006
858.997	23029
859.13	23109
859.263	23170
859.396	23204
859.529	23029
859.662	22995
859.795	22904
859.928	23060
860.061	23197
860.194	23334
860.327	23178
860.46	23166
860.592	23174
860.725	23254
860.858	23193
860.99	23136
861.123	23143
861.256	23033
861.388	23037
861.521	23779
861.653	22938
861.786	22854
861.918	22896
862.05	22949
862.183	23079
862.315	23006
862.447	23033
862.58	23018
862.712	22774
862.844	22740
862.976	22790
863.108	22976
863.24	23322
863.372	22790
863.504	22828
863.636	22771
863.768	22797
863.9	22850
864.032	22683
864.164	22767
864.296	22805
864.428	22942
864.559	22805
864.691	22908
864.823	22801
864.954	22911
865.086	22786
865.217	22675
865.349	22565
865.48	22679
865.612	22615
865.743	22767
865.875	22694
866.006	22554
866.137	22557
866.269	22615
866.4	22611
866.531	22398
866.662	22493
866.793	22405
866.924	22500
867.055	22592
867.186	22535
867.317	22554
867.448	22459
867.579	22493
867.71	22470
867.841	22455
867.972	22592
868.103	22474
868.233	22577
868.364	22577
868.495	22641
868.625	22797
868.756	22927
868.886	22702
869.017	22675
869.147	22877
869.278	22900
869.408	22812
869.539	22801
869.669	22805
869.799	22831
869.929	22961
870.06	22877
870.19	23109
870.32	23033
870.45	23189
870.58	23136
870.71	23261
870.84	23246
870.97	23273
871.1	23204
871.23	23273
871.36	23330
871.489	23318
871.619	23265
871.749	23376
871.879	23410
872.008	23554
872.138	23421
872.267	23490
872.397	23337
872.526	23121
872.656	23360
872.785	23204
872.915	23436
873.044	23600
873.173	23501
873.303	23353
873.432	23520
873.561	23512
873.69	23296
873.819	23444
873.948	23516
874.077	23417
874.206	23250
874.335	23376
874.464	23551
874.593	23611
874.722	23665
874.851	23649
874.979	23642
875.108	23672
875.237	23562
875.365	23364
875.494	23577
875.623	23600
875.751	23577
875.88	23707
876.008	23714
876.136	23802
876.265	23961
876.393	24117
876.521	24178
876.65	24140
876.778	24022
876.906	24003
877.034	23805
877.162	24022
877.29	23783
877.418	23843
877.546	23912
877.674	24030
877.802	23973
877.93	23942
878.058	23984
878.185	23843
878.313	23805
878.441	23946
878.568	23859
878.696	24038
878.824	23977
878.951	23996
879.079	24072
879.206	24304
879.333	24106
879.461	23916
879.588	24003
879.715	24049
879.842	24232
879.97	23923
880.097	23646
880.224	23798
880.351	23874
880.478	23752
880.605	23726
880.732	23821
880.859	24064
880.986	23813
881.112	23783
881.239	23558
881.366	23474
881.493	23353
881.619	23398
881.746	23292
881.872	23444
881.999	23322
882.125	23193
882.252	23341
882.378	23337
882.505	23417
882.631	23105
882.757	23086
882.883	23117
883.01	23064
883.136	22980
883.262	22862
883.388	22793
883.514	23003
883.64	22942
883.766	22987
883.892	22717
884.018	22748
884.143	22854
884.269	22930
884.395	22649
884.52	22634
884.646	22622
884.772	22447
884.897	22459
885.023	22740
885.148	22755
885.274	22759
885.399	22641
885.524	22565
885.65	22698
885.775	22573
885.9	22626
886.025	22637
886.15	22618
886.275	22554
886.4	22557
886.525	22565
886.65	22615
886.775	22542
886.9	22752
887.025	22866
887.149	22599
887.274	22356
887.399	22356
887.523	22382
887.648	22318
887.773	22379
887.897	22451
888.021	22310
888.146	22295
888.27	22447
888.395	22325
888.519	22314
888.643	22325
888.767	22462
888.891	22291
889.015	22051
889.139	22185
889.263	22147
889.387	22306
889.511	22230
889.635	22200
889.759	22158
889.883	22147
890.006	22173
890.13	22173
890.254	21960
890.377	22044
890.501	21907
890.624	21819
890.748	21918
890.871	21800
890.995	21751
891.118	21675
891.241	21698
891.364	21511
891.488	21724
891.611	21732
891.734	21724
891.857	21789
891.98	21736
892.103	21682
892.226	21610
892.349	21648
892.471	21488
892.594	21583
892.717	21553
892.839	21568
892.962	21564
893.085	21622
893.207	21515
893.33	21466
893.452	21538
893.575	21694
893.697	21485
893.819	21583
893.941	21800
894.064	21504
894.186	21405
894.308	21424
894.43	21625
894.552	21663
894.674	21580
894.796	21515
894.918	21595
895.04	21519
895.161	21629
895.283	21553
895.405	21367
895.526	21576
895.648	21580
895.769	21587
895.891	21671
896.012	21504
896.134	21545
896.255	21629
896.376	21511
896.498	21477
896.619	21641
896.74	21473
896.861	21595
896.982	21838
897.103	21895
897.224	21804
897.345	21698
897.466	21682
897.587	21751
897.708	21812
897.828	21720
897.949	21808
898.07	21485
898.19	21694
898.311	21972
898.431	21694
898.552	21656
898.672	21857
898.792	21876
898.913	21842
899.033	21637
899.153	21538
899.273	21469
899.393	21488
899.513	21515
899.633	21507
899.753	21564
899.873	21389
899.993	21447
900.113	21488
900.232	21382
900.352	21408
900.472	21283
900.591	21180
900.711	21207
900.83	21096
900.95	21298
901.069	21336
901.189	21112
901.308	20754
901.427	20754
901.546	20773
901.665	20868
901.784	20750
901.904	20686
902.023	20575
902.141	20358
902.26	20320
902.379	20480
902.498	20259
902.617	20221
902.735	20240
902.854	20320
902.973	20138
903.091	19936
903.21	20031
903.328	19936
903.446	19807
903.565	19712
903.683	19852
903.801	19597
903.919	19594
904.038	19715
904.156	19472
904.274	19651
904.392	19464
904.51	19472
904.627	19476
904.745	19537
904.863	19537
904.981	19251
905.098	19190
905.216	19209
905.334	19221
905.451	19164
905.569	19145
905.686	19206
905.803	19122
905.921	18939
906.038	19072
906.155	18875
906.272	18688
906.389	18909
906.506	18741
906.623	18840
906.74	18597
906.857	18502
906.974	18593
907.091	18661
907.208	18658
907.324	18631
907.441	18540
907.557	18346
907.674	18403
907.79	18350
907.907	18315
908.023	18433
908.139	18407
908.256	18315
908.372	18342
908.488	18163
908.604	18053
908.72	18060
908.836	18011
908.952	18060
909.068	18045
909.184	18174
909.3	18174
909.415	18011
909.531	18034
909.647	17771
909.762	17752
909.878	17680
909.993	17767
910.108	17718
910.224	17745
910.339	17760
910.454	17653
910.57	17600
910.685	17436
910.8	17813
910.915	17687
911.03	17558
911.145	17341
911.259	17288
911.374	17296
911.489	17273
911.604	17189
911.718	17025
911.833	17132
911.947	16942
912.062	16923
912.176	17098
912.291	17006
912.405	17109
912.519	17212
912.633	17242
912.748	17102
912.862	17045
912.976	16843
913.09	16831
913.204	16778
913.318	16850
913.431	16873
913.545	17048
913.659	16980
913.772	16809
913.886	16706
914	16683
914.113	16736
914.226	16774
914.34	16691
914.453	16508
914.566	16672
914.68	16550
914.793	16382
914.906	16246
915.019	16276
915.132	16185
915.245	16272
915.358	16192
915.47	16272
915.583	16272
915.696	16272
915.809	16318
915.921	16325
916.034	16067
916.146	16211
916.259	16131
916.371	16261
916.483	16131
916.595	16010
916.708	16124
916.82	16013
916.932	16002
917.044	15953
917.156	16040
917.268	15819
917.38	15895
917.491	15804
917.603	15804
917.715	15873
917.826	15907
917.938	15739
918.049	15728
918.161	15736
918.272	15922
918.384	15861
918.495	15732
918.606	15747
918.717	15568
918.828	15698
918.939	15660
919.05	15458
919.161	15500
919.272	15332
919.383	15420
919.494	15538
919.604	15800
919.715	15530
919.826	15466
919.936	15557
920.047	15656
920.157	15500
920.267	15671
920.378	15587
920.488	15435
920.598	15781
920.708	15732
920.818	15698
920.928	15690
921.038	15759
921.148	15701
921.258	15477
921.368	15416
921.477	15222
921.587	15180
921.697	15214
921.806	15218
921.916	15051
922.025	14891
922.134	14887
922.244	14773
922.353	14899
922.462	14773
922.571	14670
922.68	14507
922.789	14583
922.898	14526
923.007	14427
923.116	14465
923.224	14385
923.333	14396
923.442	14267
923.55	14347
923.659	14324
923.767	14400
923.876	14233
923.984	14301
924.092	14233
924.201	14278
924.309	14271
924.417	14229
924.525	14130
924.633	14252
924.741	14864
924.849	13860
924.956	13982
925.064	13906
925.172	13841
925.279	13906
925.387	13860
925.494	13830
925.602	13947
925.709	13932
925.816	13746
925.924	13723
926.031	13849
926.138	13822
926.245	13845
926.352	13685
926.459	13822
926.566	13856
926.673	13662
926.779	13605
926.886	13586
926.993	13499
927.099	13400
927.206	13419
927.312	13396
927.419	13415
927.525	13335
927.631	13388
927.737	13297
927.843	13202
927.95	13099
928.056	13156
928.162	13209
928.267	13251
928.373	13864
928.479	13259
928.585	13053
928.69	13133
928.796	13171
928.901	13038
929.007	12973
929.112	13095
929.218	13027
929.323	12970
929.428	12760
929.533	13031
929.638	12821
929.743	12840
929.848	12897
929.953	12829
930.058	12741
930.163	12582
930.267	12578
930.372	12696
930.477	12521
930.581	12722
930.685	12509
930.79	12441
930.894	12441
930.998	12460
931.103	12589
931.207	12216
931.311	12083
931.415	11984
931.519	11824
931.623	11767
