Data from test_V78500241_3406.txt Node
Date: Fri Mar 25 16:05:23 CST 2022
User: usil
Spectrometer: V785-0024
Trigger mode: 0
Integration Time (sec): 4.000000E-1
Scans to average: 1
Nonlinearity correction enabled: false
Boxcar width: 0
Storing dark spectrum: false
XAxis mode: Wavelengths
Number of Pixels in Spectrum: 1024
>>>>>Begin Spectral Data<<<<<
801.071	28717
801.214	28835
801.356	28489
801.499	28432
801.641	28375
801.783	28265
801.926	28432
802.068	28303
802.211	28188
802.353	28261
802.496	28044
802.638	28051
802.78	28128
802.923	27911
803.065	27956
803.208	27956
803.35	28078
803.492	28147
803.635	28287
803.777	28150
803.919	28200
804.061	28599
804.204	28284
804.346	28272
804.488	28143
804.63	28246
804.773	28257
804.915	28341
805.057	28360
805.199	28303
805.341	28432
805.483	28500
805.626	28455
805.768	28295
805.91	28333
806.052	28478
806.194	28401
806.336	28512
806.478	28401
806.62	28466
806.762	28664
806.904	28725
807.046	28965
807.188	28968
807.33	28953
807.472	28927
807.614	28934
807.756	28782
807.898	28793
808.04	28778
808.182	28736
808.324	28873
808.465	28862
808.607	29094
808.749	29231
808.891	29246
809.033	29360
809.174	29159
809.316	29067
809.458	29223
809.6	29071
809.741	29124
809.883	29288
810.025	29520
810.166	29353
810.308	29478
810.45	29330
810.591	29368
810.733	29204
810.875	29235
811.016	29037
811.158	29140
811.299	29212
811.441	29254
811.582	29406
811.724	29151
811.865	29143
812.007	29140
812.148	29136
812.29	29220
812.431	29261
812.573	29402
812.714	29604
812.855	29752
812.997	29851
813.138	29923
813.279	29832
813.421	29813
813.562	29668
813.703	29425
813.845	29288
813.986	29124
814.127	28965
814.268	28888
814.41	28946
814.551	28740
814.692	28904
814.833	28976
814.974	28755
815.115	28854
815.256	28759
815.397	28759
815.539	28835
815.68	28637
815.821	28569
815.962	28733
816.103	28698
816.244	28360
816.385	28459
816.526	28249
816.666	28303
816.807	28120
816.948	28192
817.089	28230
817.23	28344
817.371	28322
817.512	28124
817.653	28067
817.793	28207
817.934	28101
818.075	28192
818.216	28276
818.356	28093
818.497	27922
818.638	27903
818.778	27994
818.919	27979
819.06	27930
819.2	28017
819.341	28272
819.481	28090
819.622	28356
819.762	28603
819.903	28531
820.043	28341
820.184	28215
820.324	28223
820.465	28356
820.605	28253
820.746	28295
820.886	28268
821.026	28306
821.167	28211
821.307	28341
821.447	28101
821.588	28078
821.728	28029
821.868	27804
822.008	27686
822.149	27675
822.289	27603
822.429	27458
822.569	27469
822.709	27393
822.849	27275
822.99	27081
823.13	27123
823.27	27138
823.41	27051
823.55	26785
823.69	27047
823.83	27005
823.97	26948
824.11	26686
824.25	26815
824.389	26609
824.529	26788
824.669	26902
824.809	26937
824.949	26876
825.089	26990
825.228	26842
825.368	26697
825.508	26777
825.648	26708
825.787	26708
825.927	26769
826.067	26693
826.206	26727
826.346	26804
826.485	26769
826.625	26765
826.765	26693
826.904	26792
827.044	26541
827.183	26571
827.323	26453
827.462	26492
827.601	26484
827.741	26320
827.88	26324
828.02	26381
828.159	26298
828.298	26461
828.437	26579
828.577	26389
828.716	26442
828.855	26343
828.994	26145
829.134	25959
829.273	26202
829.412	26107
829.551	26039
829.69	26183
829.829	25974
829.968	26176
830.107	26069
830.246	25970
830.385	26043
830.524	25928
830.663	25864
830.802	25750
830.941	25784
831.08	25769
831.219	25750
831.357	25906
831.496	25803
831.635	25765
831.774	25734
831.913	25449
832.051	25544
832.19	25468
832.329	25449
832.467	25457
832.606	25362
832.744	25263
832.883	25316
833.022	25327
833.16	25529
833.299	25373
833.437	25449
833.576	25529
833.714	25567
833.852	25422
833.991	25563
834.129	25635
834.267	25548
834.406	25544
834.544	25472
834.682	25419
834.821	25407
834.959	25613
835.097	25301
835.235	25411
835.373	25468
835.511	25407
835.65	25255
835.788	25198
835.926	25236
836.064	25107
836.202	24996
836.34	25312
836.478	25449
836.615	25190
836.753	25225
836.891	25358
837.029	25145
837.167	25179
837.305	25266
837.443	25183
837.58	25251
837.718	25225
837.856	25145
837.993	25160
838.131	25171
838.269	24958
838.406	25076
838.544	24951
838.681	24844
838.819	24764
838.956	24642
839.094	24528
839.231	24593
839.369	24825
839.506	24958
839.643	24840
839.781	24608
839.918	24509
840.055	24475
840.193	24563
840.33	24551
840.467	24525
840.604	24532
840.742	24692
840.879	24448
841.016	24460
841.153	24391
841.29	24570
841.427	24452
841.564	24448
841.701	24460
841.838	24475
841.975	24315
842.112	24365
842.249	24410
842.385	24346
842.522	24494
842.659	24228
842.796	24148
842.933	24311
843.069	24121
843.206	24281
843.343	24254
843.479	24285
843.616	24292
843.752	23931
843.889	24114
844.025	24174
844.162	24015
844.298	24209
844.435	23992
844.571	23942
844.708	24079
844.844	24228
844.98	24194
845.117	24125
845.253	23999
845.389	23961
845.525	23878
845.661	23931
845.798	23745
845.934	23657
846.07	23703
846.206	23760
846.342	23912
846.478	23722
846.614	23497
846.75	23474
846.886	23444
847.022	23539
847.158	23535
847.294	23543
847.429	23577
847.565	23421
847.701	23703
847.837	23239
847.972	23189
848.108	23318
848.244	23254
848.379	23174
848.515	23071
848.65	23006
848.786	23113
848.921	23022
849.057	23258
849.192	23124
849.328	23235
849.463	23075
849.598	22980
849.734	22999
849.869	22927
850.004	22862
850.14	22911
850.275	22877
850.41	22774
850.545	22873
850.68	22881
850.815	22736
850.95	22828
851.085	23033
851.22	22904
851.355	22942
851.49	22953
851.625	22847
851.76	22748
851.895	22763
852.03	22778
852.165	22820
852.299	22831
852.434	22881
852.569	22908
852.703	22752
852.838	22778
852.973	22961
853.107	22987
853.242	22774
853.376	22721
853.511	22512
853.645	22615
853.78	22847
853.914	22641
854.048	22615
854.183	22763
854.317	22733
854.451	22778
854.585	22786
854.72	22736
854.854	22733
854.988	22691
855.122	22778
855.256	22489
855.39	22729
855.524	22717
855.658	22733
855.792	22645
855.926	22641
856.06	22771
856.194	22767
856.327	22527
856.461	22698
856.595	22538
856.729	22645
856.862	22854
856.996	22698
857.13	22660
857.263	22915
857.397	22702
857.53	22645
857.664	22698
857.797	22698
857.931	22839
858.064	22733
858.197	22816
858.331	22596
858.464	22664
858.597	22519
858.731	22645
858.864	22702
858.997	22752
859.13	22645
859.263	22588
859.396	22786
859.529	22596
859.662	22660
859.795	22668
859.928	22660
860.061	22820
860.194	22809
860.327	22812
860.46	22634
860.592	22839
860.725	22733
860.858	22637
860.99	22634
861.123	22611
861.256	22592
861.388	22672
861.521	23585
861.653	22508
861.786	22523
861.918	22485
862.05	22554
862.183	22626
862.315	22603
862.447	22649
862.58	22630
862.712	22322
862.844	22409
862.976	22500
863.108	22561
863.24	22618
863.372	22276
863.504	22421
863.636	22341
863.768	22344
863.9	22440
864.032	22287
864.164	22402
864.296	22459
864.428	22489
864.559	22516
864.691	22554
864.823	22284
864.954	22432
865.086	22276
865.217	22276
865.349	22059
865.48	22090
865.612	22325
865.743	22299
865.875	22337
866.006	22291
866.137	22204
866.269	22207
866.4	22234
866.531	22200
866.662	22261
866.793	22044
866.924	22139
867.055	22261
867.186	22223
867.317	22093
867.448	22109
867.579	22112
867.71	22078
867.841	22162
867.972	22177
868.103	22128
868.233	22181
868.364	22211
868.495	22322
868.625	22367
868.756	22417
868.886	22390
869.017	22405
869.147	22622
869.278	22584
869.408	22386
869.539	22356
869.669	22577
869.799	22542
869.929	22523
870.06	22462
870.19	22797
870.32	22580
870.45	22675
870.58	22858
870.71	22809
870.84	22896
870.97	22805
871.1	22858
871.23	23067
871.36	22999
871.489	22919
871.619	23086
871.749	23041
871.879	23159
872.008	23254
872.138	23064
872.267	22984
872.397	22809
872.526	22949
872.656	22919
872.785	22869
872.915	23067
873.044	23136
873.173	22934
873.303	23117
873.432	22911
873.561	23083
873.69	22987
873.819	23029
873.948	23193
874.077	23041
874.206	22869
874.335	23041
874.464	23235
874.593	23124
874.722	23254
874.851	23121
874.979	23223
875.108	23296
875.237	23113
875.365	23155
875.494	23159
875.623	23269
875.751	23223
875.88	23109
876.008	23444
876.136	23326
876.265	23653
876.393	23783
876.521	23703
876.65	23752
876.778	23729
876.906	23627
877.034	23535
877.162	23687
877.29	23611
877.418	23589
877.546	23611
877.674	23589
877.802	23646
877.93	23619
878.058	23558
878.185	23452
878.313	23509
878.441	23543
878.568	23383
878.696	23573
878.824	23592
878.951	23745
879.079	23855
879.206	23824
879.333	23764
879.461	23600
879.588	23680
879.715	23802
879.842	23752
879.97	23558
880.097	23345
880.224	23474
880.351	23459
880.478	23410
880.605	23387
880.732	23299
880.859	23623
880.986	23440
881.112	23455
881.239	23235
881.366	23212
881.493	23006
881.619	22961
881.746	22980
881.872	22949
881.999	22961
882.125	22965
882.252	23048
882.378	22881
882.505	23083
882.631	22782
882.757	22622
882.883	22706
883.01	22615
883.136	22580
883.262	22554
883.388	22504
883.514	22615
883.64	22710
883.766	22531
883.892	22382
884.018	22344
884.143	22588
884.269	22694
884.395	22455
884.52	22253
884.646	22253
884.772	22211
884.897	22150
885.023	22200
885.148	22238
885.274	22299
885.399	22337
885.524	22196
885.65	22287
885.775	22322
885.9	22257
886.025	22341
886.15	22268
886.275	22185
886.4	22177
886.525	22219
886.65	22093
886.775	22112
886.9	22367
887.025	22443
887.149	22295
887.274	22128
887.399	22006
887.523	22067
887.648	22002
887.773	21945
887.897	21945
888.021	22051
888.146	21937
888.27	22032
888.395	22086
888.519	22059
888.643	22090
888.767	22036
888.891	21930
889.015	21789
889.139	21846
889.263	21831
889.387	21823
889.511	21956
889.635	21850
889.759	21747
889.883	21793
890.006	21633
890.13	21755
890.254	21675
890.377	21732
890.501	21519
890.624	21557
890.748	21538
890.871	21469
890.995	21443
891.118	21218
891.241	21355
891.364	21435
891.488	21622
891.611	21374
891.734	21272
891.857	21454
891.98	21363
892.103	21511
892.226	21363
892.349	21279
892.471	21211
892.594	21161
892.717	21226
892.839	21119
892.962	21237
893.085	21264
893.207	21279
893.33	21157
893.452	21214
893.575	21310
893.697	21203
893.819	21477
893.941	21367
894.064	21363
894.186	21169
894.308	21180
894.43	21306
894.552	21473
894.674	21332
894.796	21119
894.918	21211
895.04	21161
895.161	21275
895.283	21222
895.405	21116
895.526	21154
895.648	21184
895.769	21340
895.891	21199
896.012	21283
896.134	21260
896.255	21230
896.376	21188
896.498	21260
896.619	21203
896.74	21218
896.861	21222
896.982	21519
897.103	21568
897.224	21454
897.345	21336
897.466	21275
897.587	21466
897.708	21576
897.828	21458
897.949	21428
898.07	21332
898.19	21336
898.311	21519
898.431	21428
898.552	21412
898.672	21500
898.792	21466
898.913	21473
899.033	21310
899.153	21214
899.273	21112
899.393	21142
899.513	21138
899.633	21135
899.753	21165
899.873	21017
899.993	21203
900.113	21055
900.232	21173
900.352	20994
900.472	20929
900.591	20910
900.711	20864
900.83	20838
900.95	21032
901.069	20921
901.189	20773
901.308	20492
901.427	20389
901.546	20400
901.665	20495
901.784	20427
901.904	20339
902.023	20259
902.141	20122
902.26	19875
902.379	20115
902.498	20035
902.617	19833
902.735	19955
902.854	19909
902.973	19871
903.091	19723
903.21	19544
903.328	19651
903.446	19567
903.565	19518
903.683	19476
903.801	19335
903.919	19403
904.038	19331
904.156	19225
904.274	19160
904.392	19137
904.51	19213
904.627	19247
904.745	19164
904.863	19259
904.981	18962
905.098	18768
905.216	18734
905.334	18970
905.451	18829
905.569	18852
905.686	18871
905.803	18901
905.921	18574
906.038	18684
906.155	18692
906.272	18445
906.389	18475
906.506	18346
906.623	18517
906.74	18395
906.857	18266
906.974	18159
907.091	18414
907.208	18464
907.324	18399
907.441	18224
907.557	18083
907.674	18152
907.79	17999
907.907	18140
908.023	18224
908.139	17958
908.256	18106
908.372	17999
908.488	17912
908.604	17836
908.72	17813
908.836	17752
908.952	17695
909.068	17775
909.184	17889
909.3	17859
909.415	17783
909.531	17786
909.647	17505
909.762	17455
909.878	17452
909.993	17474
910.108	17376
910.224	17425
910.339	17406
910.454	17337
910.57	17337
910.685	17212
910.8	17436
910.915	17356
911.03	17254
911.145	17075
911.259	17102
911.374	17067
911.489	17056
911.604	16896
911.718	16782
911.833	16763
911.947	16752
912.062	16641
912.176	16923
912.291	16850
912.405	16786
912.519	17006
912.633	17022
912.748	16854
912.862	16736
912.976	16675
913.09	16459
913.204	16630
913.318	16649
913.431	16672
913.545	16656
913.659	16725
913.772	16550
913.886	16447
914	16386
914.113	16497
914.226	16436
914.34	16478
914.453	16242
914.566	16459
914.68	16322
914.793	16207
914.906	16154
915.019	16021
915.132	15918
915.245	16025
915.358	16017
915.47	15926
915.583	15907
915.696	15994
915.809	16021
915.921	16173
916.034	15899
916.146	15945
916.259	15888
916.371	15945
916.483	15934
916.595	15857
916.708	15838
916.82	15774
916.932	15720
917.044	15637
917.156	15660
917.268	15656
917.38	15675
917.491	15629
917.603	15534
917.715	15743
917.826	15732
917.938	15473
918.049	15435
918.161	15530
918.272	15739
918.384	15660
918.495	15606
918.606	15378
918.717	15317
918.828	15488
918.939	15428
919.05	15302
919.161	15332
919.272	15093
919.383	15123
919.494	15351
919.604	15473
919.715	15313
919.826	15169
919.936	15310
920.047	15359
920.157	15306
920.267	15473
920.378	15233
920.488	15150
920.598	15523
920.708	15637
920.818	15340
920.928	15420
921.038	15580
921.148	15511
921.258	15131
921.368	15188
921.477	15043
921.587	14990
921.697	14853
921.806	14979
921.916	14849
922.025	14640
922.134	14651
922.244	14632
922.353	14598
922.462	14484
922.571	14514
922.68	14240
922.789	14275
922.898	14393
923.007	14202
923.116	14339
923.224	14237
923.333	14164
923.442	14103
923.55	14111
923.659	14164
923.767	14138
923.876	14073
923.984	14142
924.092	14065
924.201	14084
924.309	14081
924.417	14031
924.525	13913
924.633	13868
924.741	14796
924.849	13738
924.956	13784
925.064	13742
925.172	13632
925.279	13662
925.387	13655
925.494	13647
925.602	13746
925.709	13620
925.816	13518
925.924	13632
926.031	13582
926.138	13544
926.245	13674
926.352	13518
926.459	13636
926.566	13639
926.673	13632
926.779	13396
926.886	13403
926.993	13179
927.099	13206
927.206	13175
927.312	13046
927.419	13236
927.525	13133
927.631	13171
927.737	12993
927.843	12985
927.95	13012
928.056	12958
928.162	13038
928.267	13095
928.373	13567
928.479	13091
928.585	12772
928.69	12916
928.796	13008
928.901	12821
929.007	12757
929.112	12882
929.218	12764
929.323	12684
929.428	12711
929.533	12806
929.638	12646
929.743	12639
929.848	12688
929.953	12662
930.058	12494
930.163	12315
930.267	12441
930.372	12494
930.477	12289
930.581	12574
930.685	12384
930.79	12228
930.894	12224
930.998	12216
931.103	12350
931.207	11996
931.311	11958
931.415	11764
931.519	11653
931.623	11619
