Data from test_V78500241_357.txt Node
Date: Fri Mar 25 15:44:16 CST 2022
User: usil
Spectrometer: V785-0024
Trigger mode: 0
Integration Time (sec): 4.000000E-1
Scans to average: 1
Nonlinearity correction enabled: false
Boxcar width: 0
Storing dark spectrum: false
XAxis mode: Wavelengths
Number of Pixels in Spectrum: 1024
>>>>>Begin Spectral Data<<<<<
801.071	29752
801.214	29444
801.356	29459
801.499	29353
801.641	29136
801.783	29151
801.926	29220
802.068	29067
802.211	29033
802.353	29079
802.496	28850
802.638	28999
802.78	28763
802.923	28885
803.065	28706
803.208	28710
803.35	28736
803.492	28881
803.635	28965
803.777	28816
803.919	29124
804.061	29391
804.204	28934
804.346	28908
804.488	28862
804.63	28949
804.773	28942
804.915	28987
805.057	29086
805.199	28934
805.341	29094
805.483	29124
805.626	29048
805.768	28866
805.91	29033
806.052	29105
806.194	29113
806.336	29223
806.478	29109
806.62	29296
806.762	29197
806.904	29471
807.046	29672
807.188	29547
807.33	29531
807.472	29687
807.614	29486
807.756	29592
807.898	29398
808.04	29345
808.182	29353
808.324	29493
808.465	29337
808.607	29589
808.749	29604
808.891	29961
809.033	29946
809.174	29874
809.316	29885
809.458	29859
809.6	29798
809.741	29779
809.883	29931
810.025	30060
810.166	30015
810.308	30136
810.45	30091
810.591	30057
810.733	29821
810.875	29745
811.016	29642
811.158	29771
811.299	29862
811.441	29832
811.582	29977
811.724	29908
811.865	29851
812.007	29817
812.148	29836
812.29	29817
812.431	29969
812.573	30190
812.714	30224
812.855	30247
812.997	30407
813.138	30483
813.279	30395
813.421	30403
813.562	30254
813.703	30106
813.845	30015
813.986	29566
814.127	29596
814.268	29528
814.41	29490
814.551	29372
814.692	29455
814.833	29288
814.974	29398
815.115	29391
815.256	29387
815.397	29212
815.539	29265
815.68	29231
815.821	29121
815.962	29414
816.103	29288
816.244	29162
816.385	28953
816.526	28885
816.666	28790
816.807	28839
816.948	28816
817.089	28790
817.23	28683
817.371	28759
817.512	28615
817.653	28561
817.793	28512
817.934	28618
818.075	28755
818.216	28729
818.356	28626
818.497	28596
818.638	28443
818.778	28417
818.919	28333
819.06	28497
819.2	28577
819.341	28725
819.481	28504
819.622	28877
819.762	28949
819.903	28873
820.043	28733
820.184	28755
820.324	28793
820.465	28767
820.605	28850
820.746	28862
820.886	28569
821.026	28858
821.167	28698
821.307	28748
821.447	28752
821.588	28645
821.728	28447
821.868	28291
822.008	28078
822.149	28147
822.289	28051
822.429	27857
822.569	27861
822.709	27789
822.849	27614
822.99	27610
823.13	27587
823.27	27466
823.41	27340
823.55	27386
823.69	27245
823.83	27340
823.97	27245
824.11	27245
824.25	27230
824.389	27291
824.529	27298
824.669	27085
824.809	27264
824.949	27306
825.089	27252
825.228	27192
825.368	27009
825.508	27089
825.648	27039
825.787	27093
825.927	26994
826.067	26990
826.206	27039
826.346	27142
826.485	27104
826.625	27043
826.765	27184
826.904	26971
827.044	26823
827.183	26632
827.323	26590
827.462	26724
827.601	26674
827.741	26708
827.88	26762
828.02	26689
828.159	26629
828.298	26689
828.437	26629
828.577	26765
828.716	26686
828.855	26716
828.994	26374
829.134	26396
829.273	26461
829.412	26419
829.551	26195
829.69	26351
829.829	26415
829.968	26370
830.107	26377
830.246	26385
830.385	26210
830.524	26221
830.663	26065
830.802	26062
830.941	26005
831.08	26043
831.219	26020
831.357	26050
831.496	26176
831.635	26065
831.774	25936
831.913	25818
832.051	25769
832.19	25700
832.329	25628
832.467	25597
832.606	25567
832.744	25628
832.883	25567
833.022	25571
833.16	25719
833.299	25742
833.437	25578
833.576	25635
833.714	25533
833.852	25655
833.991	25666
834.129	25662
834.267	25715
834.406	25605
834.544	25666
834.682	25742
834.821	25651
834.959	25731
835.097	25544
835.235	25674
835.373	25586
835.511	25643
835.65	25350
835.788	25571
835.926	25369
836.064	25388
836.202	25247
836.34	25521
836.478	25529
836.615	25472
836.753	25453
836.891	25445
837.029	25346
837.167	25411
837.305	25324
837.443	25339
837.58	25346
837.718	25422
837.856	25320
837.993	25206
838.131	25145
838.269	25103
838.406	25046
838.544	24992
838.681	24985
838.819	24886
838.956	24703
839.094	24658
839.231	24658
839.369	24954
839.506	24981
839.643	25050
839.781	24734
839.918	24563
840.055	24730
840.193	24631
840.33	24631
840.467	24570
840.604	24616
840.742	24802
840.879	24513
841.016	24483
841.153	24422
841.29	24585
841.427	24665
841.564	24620
841.701	24547
841.838	24384
841.975	24376
842.112	24342
842.249	24365
842.385	24197
842.522	24597
842.659	24433
842.796	24315
842.933	24213
843.069	24121
843.206	24224
843.343	24330
843.479	24251
843.616	24292
843.752	23916
843.889	24114
844.025	24209
844.162	24064
844.298	24144
844.435	24148
844.571	23878
844.708	23980
844.844	24140
844.98	24068
845.117	24220
845.253	23923
845.389	23870
845.525	23958
845.661	23893
845.798	23832
845.934	23805
846.07	23726
846.206	23832
846.342	23961
846.478	23680
846.614	23448
846.75	23280
846.886	23250
847.022	23429
847.158	23452
847.294	23448
847.429	23592
847.565	23459
847.701	23630
847.837	23174
847.972	23124
848.108	23277
848.244	23223
848.379	23025
848.515	23060
848.65	22896
848.786	22999
848.921	22881
849.057	23220
849.192	23033
849.328	22991
849.463	22946
849.598	22862
849.734	22908
849.869	22854
850.004	22847
850.14	22717
850.275	22675
850.41	22668
850.545	22793
850.68	22664
850.815	22721
850.95	22725
851.085	22980
851.22	22801
851.355	22858
851.49	22729
851.625	22679
851.76	22687
851.895	22679
852.03	22744
852.165	22767
852.299	22649
852.434	22793
852.569	22854
852.703	22828
852.838	22847
852.973	22816
853.107	22896
853.242	22687
853.376	22550
853.511	22527
853.645	22573
853.78	22637
853.914	22535
854.048	22474
854.183	22516
854.317	22459
854.451	22812
854.585	22588
854.72	22557
854.854	22557
854.988	22497
855.122	22508
855.256	22436
855.39	22478
855.524	22641
855.658	22637
855.792	22523
855.926	22561
856.06	22637
856.194	22550
856.327	22573
856.461	22440
856.595	22523
856.729	22599
856.862	22577
856.996	22497
857.13	22577
857.263	22516
857.397	22630
857.53	22474
857.664	22645
857.797	22618
857.931	22645
858.064	22542
858.197	22687
858.331	22481
858.464	22382
858.597	22462
858.731	22459
858.864	22470
858.997	22432
859.13	22421
859.263	22523
859.396	22687
859.529	22421
859.662	22306
859.795	22478
859.928	22424
860.061	22774
860.194	22683
860.327	22535
860.46	22424
860.592	22542
860.725	22637
860.858	22569
860.99	22500
861.123	22371
861.256	22360
861.388	22459
861.521	23197
861.653	22413
861.786	22249
861.918	22356
862.05	22421
862.183	22470
862.315	22550
862.447	22504
862.58	22367
862.712	22249
862.844	22211
862.976	22303
863.108	22242
863.24	22561
863.372	22135
863.504	22154
863.636	22093
863.768	22173
863.9	22242
864.032	22067
864.164	22177
864.296	22261
864.428	22333
864.559	22303
864.691	22162
864.823	22166
864.954	22196
865.086	22139
865.217	22166
865.349	22067
865.48	22055
865.612	22032
865.743	22211
865.875	22097
866.006	22021
866.137	22044
866.269	22013
866.4	22044
866.531	22029
866.662	22036
866.793	21888
866.924	22006
867.055	22032
867.186	21930
867.317	22010
867.448	21949
867.579	21953
867.71	21911
867.841	21915
867.972	22017
868.103	21994
868.233	21953
868.364	21918
868.495	22128
868.625	22150
868.756	22242
868.886	22150
869.017	22268
869.147	22348
869.278	22325
869.408	22265
869.539	22162
869.669	22375
869.799	22329
869.929	22276
870.06	22310
870.19	22641
870.32	22478
870.45	22504
870.58	22634
870.71	22759
870.84	22618
870.97	22645
871.1	22653
871.23	22828
871.36	22927
871.489	22588
871.619	22809
871.749	22706
871.879	22843
872.008	22980
872.138	22828
872.267	22645
872.397	22740
872.526	22618
872.656	22664
872.785	22660
872.915	22850
873.044	22984
873.173	22866
873.303	22767
873.432	22896
873.561	22892
873.69	22816
873.819	22740
873.948	22972
874.077	22801
874.206	22847
874.335	22904
874.464	22957
874.593	22927
874.722	22991
874.851	23098
874.979	23181
875.108	23109
875.237	23044
875.365	23025
875.494	22999
875.623	23155
875.751	23147
875.88	23037
876.008	23178
876.136	23235
876.265	23337
876.393	23615
876.521	23452
876.65	23524
876.778	23482
876.906	23360
877.034	23345
877.162	23383
877.29	23379
877.418	23360
877.546	23364
877.674	23398
877.802	23448
877.93	23395
878.058	23353
878.185	23254
878.313	23303
878.441	23372
878.568	23185
878.696	23368
878.824	23554
878.951	23490
879.079	23566
879.206	23726
879.333	23497
879.461	23471
879.588	23436
879.715	23501
879.842	23794
879.97	23391
880.097	23189
880.224	23208
880.351	23250
880.478	23227
880.605	23242
880.732	23166
880.859	23414
880.986	23117
881.112	23200
881.239	23033
881.366	22927
881.493	22915
881.619	22812
881.746	22729
881.872	22759
881.999	22786
882.125	22713
882.252	22729
882.378	22759
882.505	22869
882.631	22679
882.757	22398
882.883	22459
883.01	22546
883.136	22306
883.262	22379
883.388	22318
883.514	22519
883.64	22459
883.766	22405
883.892	22219
884.018	22246
884.143	22265
884.269	22481
884.395	22268
884.52	22044
884.646	22154
884.772	22040
884.897	22006
885.023	22097
885.148	22166
885.274	22177
885.399	22261
885.524	22158
885.65	22150
885.775	22150
885.9	22139
886.025	22185
886.15	22086
886.275	22013
886.4	21816
886.525	22116
886.65	21991
886.775	21926
886.9	22086
887.025	22234
887.149	22032
887.274	21960
887.399	21823
887.523	21831
887.648	21873
887.773	21717
887.897	21823
888.021	21918
888.146	21755
888.27	21930
888.395	21907
888.519	21903
888.643	21728
888.767	21857
888.891	21724
889.015	21656
889.139	21652
889.263	21576
889.387	21519
889.511	21865
889.635	21759
889.759	21515
889.883	21500
890.006	21667
890.13	21713
890.254	21435
890.377	21587
890.501	21340
890.624	21332
890.748	21378
890.871	21252
890.995	21131
891.118	21165
891.241	21119
891.364	21218
891.488	21249
891.611	21188
891.734	21131
891.857	21249
891.98	21077
892.103	21203
892.226	21199
892.349	21093
892.471	20948
892.594	21009
892.717	21176
892.839	21070
892.962	21146
893.085	21112
893.207	21089
893.33	20906
893.452	21055
893.575	20990
893.697	20971
893.819	21329
893.941	21272
894.064	21077
894.186	20933
894.308	21070
894.43	21051
894.552	21207
894.674	21036
894.796	21047
894.918	21077
895.04	21036
895.161	21188
895.283	20998
895.405	20971
895.526	21104
895.648	20982
895.769	21051
895.891	20979
896.012	21047
896.134	21074
896.255	20982
896.376	20979
896.498	20941
896.619	21161
896.74	21119
896.861	21104
896.982	21336
897.103	21462
897.224	21313
897.345	21302
897.466	21150
897.587	21310
897.708	21458
897.828	21378
897.949	21150
898.07	21119
898.19	21188
898.311	21439
898.431	21180
898.552	21245
898.672	21313
898.792	21329
898.913	21085
899.033	21001
899.153	21081
899.273	20891
899.393	21005
899.513	20925
899.633	20902
899.753	21005
899.873	20842
899.993	20910
900.113	20861
900.232	20765
900.352	20796
900.472	20785
900.591	20724
900.711	20754
900.83	20743
900.95	20857
901.069	20819
901.189	20655
901.308	20404
901.427	20221
901.546	20233
901.665	20271
901.784	20275
901.904	20229
902.023	20073
902.141	19871
902.26	19788
902.379	19955
902.498	19757
902.617	19719
902.735	19757
902.854	19712
902.973	19616
903.091	19346
903.21	19396
903.328	19377
903.446	19354
903.565	19206
903.683	19118
903.801	19000
903.919	19247
904.038	19152
904.156	19076
904.274	19084
904.392	19008
904.51	18875
904.627	18878
904.745	19042
904.863	19000
904.981	18768
905.098	18616
905.216	18627
905.334	18506
905.451	18639
905.569	18627
905.686	18673
905.803	18604
905.921	18429
906.038	18490
906.155	18536
906.272	18388
906.389	18361
906.506	18125
906.623	18095
906.74	18076
906.857	18083
906.974	18030
907.091	18114
907.208	18247
907.324	18292
907.441	18045
907.557	17882
907.674	17809
907.79	17840
907.907	17847
908.023	17805
908.139	17973
908.256	17741
908.372	17714
908.488	17665
908.604	17577
908.72	17490
908.836	17478
908.952	17463
909.068	17672
909.184	17672
909.3	17551
909.415	17585
909.531	17425
909.647	17239
909.762	17284
909.878	17143
909.993	17254
910.108	17170
910.224	17208
910.339	17216
910.454	17045
910.57	17121
910.685	16934
910.8	17204
910.915	17261
911.03	16938
911.145	16831
911.259	16828
911.374	16782
911.489	16691
911.604	16664
911.718	16573
911.833	16550
911.947	16519
912.062	16474
912.176	16618
912.291	16592
912.405	16634
912.519	16782
912.633	16717
912.748	16634
912.862	16542
912.976	16466
913.09	16219
913.204	16318
913.318	16470
913.431	16512
913.545	16474
913.659	16592
913.772	16265
913.886	16192
914	16143
914.113	16310
914.226	16246
914.34	16249
914.453	16086
914.566	16192
914.68	16040
914.793	15972
914.906	15846
915.019	15747
915.132	15762
915.245	15743
915.358	15762
915.47	15739
915.583	15778
915.696	15762
915.809	15880
915.921	15918
916.034	15778
916.146	15747
916.259	15720
916.371	15610
916.483	15633
916.595	15572
916.708	15534
916.82	15587
916.932	15534
917.044	15504
917.156	15507
917.268	15340
917.38	15504
917.491	15386
917.603	15435
917.715	15363
917.826	15500
917.938	15298
918.049	15127
918.161	15287
918.272	15435
918.384	15359
918.495	15298
918.606	15127
918.717	15127
918.828	15173
918.939	15184
919.05	15093
919.161	15146
919.272	14902
919.383	15074
919.494	15214
919.604	15275
919.715	15142
919.826	14963
919.936	15150
920.047	15161
920.157	15119
920.267	15272
920.378	14971
920.488	15032
920.598	15336
920.708	15306
920.818	15287
920.928	15256
921.038	15298
921.148	15230
921.258	15036
921.368	14826
921.477	14796
921.587	14792
921.697	14606
921.806	14842
921.916	14606
922.025	14545
922.134	14457
922.244	14423
922.353	14465
922.462	14301
922.571	14180
922.68	14069
922.789	14062
922.898	14020
923.007	14031
923.116	14054
923.224	14016
923.333	14054
923.442	13780
923.55	13830
923.659	13883
923.767	13913
923.876	13727
923.984	13887
924.092	13723
924.201	13784
924.309	13715
924.417	13841
924.525	13639
924.633	13639
924.741	14377
924.849	13491
924.956	13658
925.064	13502
925.172	13365
925.279	13396
925.387	13426
925.494	13438
925.602	13491
925.709	13544
925.816	13312
925.924	13316
926.031	13502
926.138	13460
926.245	13354
926.352	13190
926.459	13506
926.566	13362
926.673	13270
926.779	13126
926.886	13213
926.993	13057
927.099	13008
927.206	12939
927.312	12920
927.419	12985
927.525	12943
927.631	12993
927.737	12829
927.843	12848
927.95	12703
928.056	12745
928.162	12730
928.267	12783
928.373	13396
928.479	12810
928.585	12627
928.69	12783
928.796	12662
928.901	12597
929.007	12525
929.112	12547
929.218	12574
929.323	12490
929.428	12479
929.533	12700
929.638	12372
929.743	12445
929.848	12509
929.953	12384
930.058	12376
930.163	12144
930.267	12171
930.372	12304
930.477	12133
930.581	12399
930.685	12152
930.79	12015
930.894	12087
930.998	12057
931.103	12106
931.207	11790
931.311	11794
931.415	11589
931.519	11440
931.623	11402
