Data from test_V78500241_2554.txt Node
Date: Fri Mar 25 15:59:29 CST 2022
User: usil
Spectrometer: V785-0024
Trigger mode: 0
Integration Time (sec): 4.000000E-1
Scans to average: 1
Nonlinearity correction enabled: false
Boxcar width: 0
Storing dark spectrum: false
XAxis mode: Wavelengths
Number of Pixels in Spectrum: 1024
>>>>>Begin Spectral Data<<<<<
801.071	28736
801.214	28828
801.356	28535
801.499	28512
801.641	28314
801.783	28356
801.926	28390
802.068	28314
802.211	28181
802.353	28348
802.496	28105
802.638	28017
802.78	28029
802.923	27960
803.065	27991
803.208	28029
803.35	28032
803.492	28166
803.635	28200
803.777	28090
803.919	28238
804.061	28557
804.204	28272
804.346	28303
804.488	28139
804.63	28150
804.773	28162
804.915	28455
805.057	28386
805.199	28318
805.341	28394
805.483	28360
805.626	28478
805.768	28253
805.91	28341
806.052	28493
806.194	28360
806.336	28702
806.478	28535
806.62	28394
806.762	28653
806.904	28828
807.046	28949
807.188	28866
807.33	28881
807.472	29098
807.614	28835
807.756	28938
807.898	28748
808.04	28725
808.182	28679
808.324	28698
808.465	28888
808.607	28980
808.749	29086
808.891	29227
809.033	29303
809.174	29174
809.316	29166
809.458	29041
809.6	29124
809.741	29318
809.883	29318
810.025	29356
810.166	29227
810.308	29482
810.45	29383
810.591	29288
810.733	29102
810.875	29113
811.016	29075
811.158	29075
811.299	29231
811.441	29280
811.582	29322
811.724	29288
811.865	29105
812.007	29117
812.148	29098
812.29	29235
812.431	29311
812.573	29429
812.714	29634
812.855	29741
812.997	29855
813.138	29950
813.279	29790
813.421	29657
813.562	29600
813.703	29490
813.845	29387
813.986	29102
814.127	29022
814.268	28820
814.41	28797
814.551	28691
814.692	28930
814.833	28793
814.974	28733
815.115	28858
815.256	28740
815.397	28710
815.539	28790
815.68	28660
815.821	28752
815.962	28634
816.103	28607
816.244	28565
816.385	28497
816.526	28459
816.666	28295
816.807	28192
816.948	28200
817.089	28169
817.23	28257
817.371	28128
817.512	28097
817.653	28090
817.793	28181
817.934	28173
818.075	28147
818.216	28348
818.356	28219
818.497	27949
818.638	27892
818.778	27846
818.919	28067
819.06	28036
819.2	28128
819.341	28070
819.481	28272
819.622	28417
819.762	28675
819.903	28474
820.043	28348
820.184	28325
820.324	28219
820.465	28363
820.605	28421
820.746	28242
820.886	28109
821.026	28394
821.167	28246
821.307	28284
821.447	28200
821.588	28032
821.728	28131
821.868	27690
822.008	27808
822.149	27595
822.289	27675
822.429	27374
822.569	27252
822.709	27272
822.849	27135
822.99	27237
823.13	27199
823.27	27119
823.41	26940
823.55	26857
823.69	26887
823.83	26998
823.97	26830
824.11	26777
824.25	26804
824.389	26739
824.529	26895
824.669	26853
824.809	26975
824.949	26960
825.089	26990
825.228	26830
825.368	26716
825.508	26682
825.648	26735
825.787	26720
825.927	26724
826.067	26754
826.206	26644
826.346	26727
826.485	26781
826.625	26750
826.765	26785
826.904	26712
827.044	26442
827.183	26579
827.323	26434
827.462	26427
827.601	26465
827.741	26419
827.88	26358
828.02	26358
828.159	26438
828.298	26453
828.437	26537
828.577	26431
828.716	26473
828.855	26313
828.994	26024
829.134	26107
829.273	26195
829.412	26054
829.551	26039
829.69	26229
829.829	26058
829.968	26153
830.107	26149
830.246	26069
830.385	26081
830.524	26092
830.663	25928
830.802	25784
830.941	25750
831.08	25635
831.219	25708
831.357	25811
831.496	25833
831.635	25681
831.774	25499
831.913	25609
832.051	25479
832.19	25457
832.329	25544
832.467	25266
832.606	25285
832.744	25240
832.883	25236
833.022	25324
833.16	25457
833.299	25381
833.437	25419
833.576	25422
833.714	25479
833.852	25590
833.991	25384
834.129	25445
834.267	25537
834.406	25381
834.544	25544
834.682	25434
834.821	25468
834.959	25613
835.097	25324
835.235	25502
835.373	25434
835.511	25324
835.65	25209
835.788	25228
835.926	25137
836.064	25175
836.202	25080
836.34	25217
836.478	25289
836.615	25259
836.753	25324
836.891	25297
837.029	25320
837.167	25244
837.305	25168
837.443	25126
837.58	25072
837.718	25110
837.856	25202
837.993	25015
838.131	25110
838.269	25053
838.406	25110
838.544	24825
838.681	24696
838.819	24677
838.956	24544
839.094	24490
839.231	24505
839.369	24719
839.506	25031
839.643	24852
839.781	24525
839.918	24475
840.055	24574
840.193	24597
840.33	24521
840.467	24350
840.604	24467
840.742	24734
840.879	24361
841.016	24407
841.153	24407
841.29	24471
841.427	24270
841.564	24437
841.701	24433
841.838	24445
841.975	24376
842.112	24403
842.249	24342
842.385	24258
842.522	24445
842.659	24426
842.796	24125
842.933	24155
843.069	24152
843.206	23882
843.343	24239
843.479	24133
843.616	24159
843.752	23969
843.889	24072
844.025	24117
844.162	24068
844.298	23980
844.435	24083
844.571	24003
844.708	23977
844.844	24159
844.98	24121
845.117	24125
845.253	23931
845.389	23859
845.525	23794
845.661	23908
845.798	23722
845.934	23805
846.07	23627
846.206	23699
846.342	23771
846.478	23710
846.614	23425
846.75	23429
846.886	23288
847.022	23547
847.158	23520
847.294	23440
847.429	23433
847.565	23554
847.701	23707
847.837	23315
847.972	23151
848.108	23239
848.244	23121
848.379	23178
848.515	23018
848.65	23010
848.786	22972
848.921	23022
849.057	23140
849.192	23083
849.328	23083
849.463	23048
849.598	22972
849.734	22934
849.869	22816
850.004	22691
850.14	22767
850.275	22858
850.41	22835
850.545	22748
850.68	22790
850.815	22824
850.95	22843
851.085	22877
851.22	22881
851.355	22877
851.49	22740
851.625	22782
851.76	22683
851.895	22763
852.03	22626
852.165	22713
852.299	22873
852.434	22923
852.569	22816
852.703	22809
852.838	22843
852.973	22866
853.107	22866
853.242	22736
853.376	22691
853.511	22390
853.645	22455
853.78	22653
853.914	22599
854.048	22607
854.183	22569
854.317	22596
854.451	22664
854.585	22489
854.72	22675
854.854	22744
854.988	22542
855.122	22710
855.256	22504
855.39	22611
855.524	22702
855.658	22672
855.792	22531
855.926	22603
856.06	22622
856.194	22630
856.327	22683
856.461	22554
856.595	22508
856.729	22527
856.862	22710
856.996	22618
857.13	22603
857.263	22679
857.397	22767
857.53	22615
857.664	22603
857.797	22637
857.931	22839
858.064	22656
858.197	22820
858.331	22618
858.464	22569
858.597	22508
858.731	22565
858.864	22561
858.997	22634
859.13	22599
859.263	22641
859.396	22603
859.529	22504
859.662	22504
859.795	22668
859.928	22577
860.061	22733
860.194	22854
860.327	22599
860.46	22550
860.592	22668
860.725	22831
860.858	22694
860.99	22599
861.123	22535
861.256	22580
861.388	22649
861.521	23265
861.653	22443
861.786	22352
861.918	22466
862.05	22546
862.183	22462
862.315	22557
862.447	22588
862.58	22535
862.712	22211
862.844	22287
862.976	22466
863.108	22379
863.24	22786
863.372	22360
863.504	22352
863.636	22177
863.768	22246
863.9	22299
864.032	22268
864.164	22379
864.296	22284
864.428	22500
864.559	22382
864.691	22493
864.823	22257
864.954	22310
865.086	22276
865.217	22158
865.349	22055
865.48	22188
865.612	22154
865.743	22455
865.875	22143
866.006	22173
866.137	22124
866.269	22143
866.4	22105
866.531	22116
866.662	22086
866.793	22109
866.924	22090
867.055	22177
867.186	22200
867.317	22002
867.448	21964
867.579	22067
867.71	21979
867.841	22074
867.972	22223
868.103	22082
868.233	22124
868.364	22120
868.495	22112
868.625	22295
868.756	22504
868.886	22303
869.017	22394
869.147	22428
869.278	22459
869.408	22356
869.539	22181
869.669	22500
869.799	22379
869.929	22481
870.06	22557
870.19	22656
870.32	22565
870.45	22729
870.58	22778
870.71	22767
870.84	22919
870.97	22672
871.1	22721
871.23	22934
871.36	22915
871.489	22873
871.619	22991
871.749	23006
871.879	22968
872.008	23166
872.138	23060
872.267	22843
872.397	22835
872.526	22896
872.656	22721
872.785	22664
872.915	22908
873.044	23022
873.173	22869
873.303	22972
873.432	22968
873.561	23060
873.69	22919
873.819	22938
873.948	22980
874.077	23003
874.206	22946
874.335	23041
874.464	23208
874.593	23204
874.722	23143
874.851	23265
874.979	23162
875.108	23250
875.237	23075
875.365	22957
875.494	23044
875.623	23102
875.751	23090
875.88	23109
876.008	23356
876.136	23353
876.265	23600
876.393	23596
876.521	23657
876.65	23745
876.778	23611
876.906	23509
877.034	23486
877.162	23448
877.29	23345
877.418	23490
877.546	23543
877.674	23524
877.802	23459
877.93	23528
878.058	23436
878.185	23345
878.313	23509
878.441	23516
878.568	23311
878.696	23452
878.824	23383
878.951	23596
879.079	23668
879.206	23783
879.333	23680
879.461	23467
879.588	23589
879.715	23687
879.842	23741
879.97	23493
880.097	23353
880.224	23368
880.351	23391
880.478	23360
880.605	23239
880.732	23341
880.859	23668
880.986	23341
881.112	23334
881.239	23231
881.366	23121
881.493	22976
881.619	22885
881.746	22961
881.872	22995
881.999	22820
882.125	22835
882.252	22949
882.378	22900
882.505	22987
882.631	22744
882.757	22599
882.883	22527
883.01	22535
883.136	22451
883.262	22276
883.388	22535
883.514	22577
883.64	22565
883.766	22504
883.892	22405
884.018	22500
884.143	22557
884.269	22550
884.395	22405
884.52	22185
884.646	22215
884.772	22048
884.897	22067
885.023	22249
885.148	22306
885.274	22356
885.399	22371
885.524	22249
885.65	22268
885.775	22226
885.9	22265
886.025	22196
886.15	22166
886.275	22226
886.4	22150
886.525	22032
886.65	22040
886.775	22029
886.9	22299
887.025	22337
887.149	22185
887.274	22055
887.399	21983
887.523	21994
887.648	21915
887.773	21899
887.897	22017
888.021	21991
888.146	21918
888.27	21979
888.395	21975
888.519	21930
888.643	21994
888.767	21983
888.891	21934
889.015	21751
889.139	21819
889.263	21720
889.387	21720
889.511	22044
889.635	21842
889.759	21656
889.883	21743
890.006	21785
890.13	21835
890.254	21709
890.377	21603
890.501	21572
890.624	21557
890.748	21580
890.871	21393
890.995	21249
891.118	21188
891.241	21416
891.364	21245
891.488	21511
891.611	21325
891.734	21340
891.857	21382
891.98	21279
892.103	21359
892.226	21389
892.349	21230
892.471	21093
892.594	21207
892.717	21233
892.839	21249
892.962	21024
893.085	21351
893.207	21184
893.33	21062
893.452	21184
893.575	21218
893.697	21154
893.819	21302
893.941	21222
894.064	21393
894.186	21089
894.308	21104
894.43	21135
894.552	21302
894.674	21275
894.796	21013
894.918	21112
895.04	21218
895.161	21283
895.283	21184
895.405	20929
895.526	21161
895.648	21112
895.769	21211
895.891	21218
896.012	21272
896.134	21211
896.255	21310
896.376	21188
896.498	21131
896.619	21146
896.74	21230
896.861	21173
896.982	21447
897.103	21530
897.224	21393
897.345	21302
897.466	21306
897.587	21370
897.708	21511
897.828	21260
897.949	21211
898.07	21142
898.19	21298
898.311	21500
898.431	21374
898.552	21294
898.672	21492
898.792	21401
898.913	21317
899.033	21275
899.153	21157
899.273	21039
899.393	21066
899.513	21195
899.633	21146
899.753	21093
899.873	20944
899.993	21138
900.113	21039
900.232	21127
900.352	21039
900.472	20887
900.591	20819
900.711	20967
900.83	20769
900.95	20990
901.069	21032
901.189	20864
901.308	20511
901.427	20514
901.546	20404
901.665	20450
901.784	20469
901.904	20298
902.023	20286
902.141	20069
902.26	19963
902.379	20058
902.498	19871
902.617	19932
902.735	19974
902.854	19951
902.973	19833
903.091	19529
903.21	19552
903.328	19594
903.446	19502
903.565	19362
903.683	19335
903.801	19263
903.919	19331
904.038	19320
904.156	19148
904.274	19259
904.392	19088
904.51	19171
904.627	19183
904.745	19251
904.863	19263
904.981	18996
905.098	18795
905.216	18787
905.334	18814
905.451	18829
905.569	18825
905.686	18798
905.803	18764
905.921	18654
906.038	18707
906.155	18589
906.272	18509
906.389	18513
906.506	18353
906.623	18315
906.74	18407
906.857	18159
906.974	18270
907.091	18323
907.208	18338
907.324	18418
907.441	18144
907.557	18057
907.674	18076
907.79	18049
907.907	18003
908.023	18133
908.139	18026
908.256	18049
908.372	17893
908.488	17893
908.604	17775
908.72	17771
908.836	17726
908.952	17726
909.068	17794
909.184	17870
909.3	17684
909.415	17809
909.531	17676
909.647	17562
909.762	17566
909.878	17387
909.993	17474
910.108	17345
910.224	17379
910.339	17349
910.454	17227
910.57	17216
910.685	17178
910.8	17516
910.915	17311
911.03	17216
911.145	17071
911.259	16892
911.374	16968
911.489	16869
911.604	16873
911.718	16816
911.833	16824
911.947	16656
912.062	16649
912.176	16763
912.291	16755
912.405	16733
912.519	16995
912.633	17090
912.748	16793
912.862	16752
912.976	16645
913.09	16470
913.204	16599
913.318	16527
913.431	16622
913.545	16531
913.659	16771
913.772	16504
913.886	16497
914	16386
914.113	16470
914.226	16588
914.34	16432
914.453	16280
914.566	16440
914.68	16219
914.793	16150
914.906	15975
915.019	16025
915.132	15899
915.245	15960
915.358	15945
915.47	15960
915.583	15994
915.696	15987
915.809	16071
915.921	16013
916.034	15926
916.146	15861
916.259	15934
916.371	15945
916.483	15854
916.595	15724
916.708	15808
916.82	15895
916.932	15694
917.044	15766
917.156	15728
917.268	15599
917.38	15576
917.491	15618
917.603	15629
917.715	15660
917.826	15629
917.938	15557
918.049	15416
918.161	15477
918.272	15648
918.384	15595
918.495	15557
918.606	15382
918.717	15294
918.828	15340
918.939	15439
919.05	15222
919.161	15344
919.272	15135
919.383	15157
919.494	15393
919.604	15561
919.715	15359
919.826	15252
919.936	15211
920.047	15306
920.157	15287
920.267	15386
920.378	15348
920.488	15298
920.598	15291
920.708	15561
920.818	15367
920.928	15355
921.038	15580
921.148	15557
921.258	15108
921.368	15062
921.477	15017
921.587	15028
921.697	14914
921.806	15013
921.916	14883
922.025	14693
922.134	14667
922.244	14571
922.353	14651
922.462	14530
922.571	14503
922.68	14298
922.789	14404
922.898	14305
923.007	14252
923.116	14320
923.224	14183
923.333	14244
923.442	14176
923.55	14115
923.659	14084
923.767	14119
923.876	14054
923.984	14088
924.092	14016
924.201	13974
924.309	14046
924.417	13974
924.525	13978
924.633	13887
924.741	14830
924.849	13685
924.956	13898
925.064	13731
925.172	13693
925.279	13578
925.387	13693
925.494	13712
925.602	13628
925.709	13643
925.816	13529
925.924	13628
926.031	13674
926.138	13537
926.245	13731
926.352	13552
926.459	13601
926.566	13662
926.673	13540
926.779	13422
926.886	13339
926.993	13255
927.099	13179
927.206	13069
927.312	13084
927.419	13255
927.525	13171
927.631	13209
927.737	13168
927.843	13008
927.95	12871
928.056	13027
928.162	12966
928.267	13095
928.373	13613
928.479	13012
928.585	12867
928.69	12947
928.796	12951
928.901	12848
929.007	12673
929.112	12882
929.218	12825
929.323	12749
929.428	12776
929.533	12821
929.638	12673
929.743	12601
929.848	12688
929.953	12639
930.058	12563
930.163	12391
930.267	12403
930.372	12566
930.477	12266
930.581	12570
930.685	12418
930.79	12251
930.894	12232
930.998	12197
931.103	12281
931.207	11969
931.311	11939
931.415	11767
931.519	11680
931.623	11661
