Data from test_V78500241_2025.txt Node
Date: Fri Mar 25 15:55:49 CST 2022
User: usil
Spectrometer: V785-0024
Trigger mode: 0
Integration Time (sec): 4.000000E-1
Scans to average: 1
Nonlinearity correction enabled: false
Boxcar width: 0
Storing dark spectrum: false
XAxis mode: Wavelengths
Number of Pixels in Spectrum: 1024
>>>>>Begin Spectral Data<<<<<
801.071	28698
801.214	28603
801.356	28291
801.499	28356
801.641	28253
801.783	28040
801.926	28333
802.068	28344
802.211	28257
802.353	28040
802.496	27914
802.638	28169
802.78	27888
802.923	27888
803.065	27876
803.208	28010
803.35	27975
803.492	28120
803.635	28246
803.777	28032
803.919	28234
804.061	28531
804.204	28223
804.346	27979
804.488	28082
804.63	28188
804.773	28025
804.915	28223
805.057	28413
805.199	28158
805.341	28280
805.483	28367
805.626	28325
805.768	28059
805.91	28291
806.052	28299
806.194	28230
806.336	28417
806.478	28306
806.62	28234
806.762	28363
806.904	28664
807.046	28847
807.188	28797
807.33	28828
807.472	28984
807.614	28691
807.756	28717
807.898	28736
808.04	28599
808.182	28462
808.324	28573
808.465	28660
808.607	28782
808.749	29094
808.891	29079
809.033	29090
809.174	29052
809.316	28980
809.458	28961
809.6	29022
809.741	29067
809.883	28965
810.025	29334
810.166	29299
810.308	29269
810.45	29178
810.591	29102
810.733	28972
810.875	29128
811.016	28801
811.158	28961
811.299	29166
811.441	29052
811.582	29132
811.724	28961
811.865	29124
812.007	29006
812.148	28942
812.29	29041
812.431	29242
812.573	29349
812.714	29368
812.855	29558
812.997	29608
813.138	29634
813.279	29672
813.421	29566
813.562	29551
813.703	29277
813.845	29265
813.986	29029
814.127	28831
814.268	28725
814.41	28641
814.551	28733
814.692	28748
814.833	28710
814.974	28630
815.115	28706
815.256	28626
815.397	28538
815.539	28611
815.68	28519
815.821	28401
815.962	28512
816.103	28481
816.244	28382
816.385	28382
816.526	28360
816.666	28169
816.807	27876
816.948	28048
817.089	28044
817.23	28070
817.371	28036
817.512	28021
817.653	28086
817.793	27983
817.934	28010
818.075	28078
818.216	28017
818.356	27930
818.497	27979
818.638	27785
818.778	27888
818.919	27698
819.06	27876
819.2	27972
819.341	28006
819.481	28173
819.622	28207
819.762	28375
819.903	28169
820.043	28379
820.184	28185
820.324	28070
820.465	28105
820.605	28150
820.746	28059
820.886	28086
821.026	28078
821.167	28112
821.307	28200
821.447	28147
821.588	28006
821.728	27846
821.868	27705
822.008	27523
822.149	27587
822.289	27496
822.429	27359
822.569	27154
822.709	27203
822.849	27058
822.99	27135
823.13	27066
823.27	26967
823.41	26921
823.55	26769
823.69	26823
823.83	26910
823.97	26800
824.11	26636
824.25	26530
824.389	26651
824.529	26697
824.669	26708
824.809	26750
824.949	26727
825.089	26845
825.228	26602
825.368	26499
825.508	26575
825.648	26518
825.787	26552
825.927	26488
826.067	26575
826.206	26514
826.346	26545
826.485	26686
826.625	26495
826.765	26651
826.904	26552
827.044	26275
827.183	26210
827.323	26301
827.462	26351
827.601	26396
827.741	26332
827.88	26415
828.02	26111
828.159	26259
828.298	26351
828.437	26313
828.577	26324
828.716	26366
828.855	26107
828.994	26062
829.134	25986
829.273	26096
829.412	26054
829.551	26020
829.69	25925
829.829	25997
829.968	26107
830.107	25970
830.246	25966
830.385	26088
830.524	25913
830.663	25841
830.802	25727
830.941	25567
831.08	25613
831.219	25776
831.357	25693
831.496	25875
831.635	25525
831.774	25514
831.913	25556
832.051	25479
832.19	25377
832.329	25407
832.467	25438
832.606	25171
832.744	25187
832.883	25365
833.022	25236
833.16	25274
833.299	25244
833.437	25282
833.576	25369
833.714	25350
833.852	25293
833.991	25472
834.129	25411
834.267	25411
834.406	25373
834.544	25278
834.682	25400
834.821	25297
834.959	25460
835.097	25362
835.235	25468
835.373	25285
835.511	25240
835.65	25145
835.788	25240
835.926	25065
836.064	25057
836.202	24989
836.34	25171
836.478	25339
836.615	25164
836.753	25088
836.891	25251
837.029	25228
837.167	25145
837.305	25008
837.443	24966
837.58	25065
837.718	25023
837.856	24996
837.993	24962
838.131	25091
838.269	24848
838.406	24932
838.544	24741
838.681	24631
838.819	24684
838.956	24475
839.094	24330
839.231	24551
839.369	24661
839.506	24783
839.643	24745
839.781	24642
839.918	24296
840.055	24315
840.193	24475
840.33	24300
840.467	24384
840.604	24304
840.742	24566
840.879	24262
841.016	24304
841.153	24330
841.29	24456
841.427	24399
841.564	24350
841.701	24445
841.838	24300
841.975	24334
842.112	24323
842.249	24087
842.385	23996
842.522	24304
842.659	24121
842.796	24083
842.933	24209
843.069	24072
843.206	24114
843.343	24136
843.479	24133
843.616	24125
843.752	23851
843.889	23847
844.025	23954
844.162	23950
844.298	23927
844.435	23942
844.571	23901
844.708	23863
844.844	24091
844.98	23946
845.117	23950
845.253	23836
845.389	23760
845.525	23687
845.661	23680
845.798	23646
845.934	23798
846.07	23668
846.206	23718
846.342	23775
846.478	23581
846.614	23433
846.75	23113
846.886	23239
847.022	23379
847.158	23383
847.294	23242
847.429	23410
847.565	23258
847.701	23505
847.837	23193
847.972	23098
848.108	23185
848.244	23071
848.379	22972
848.515	23044
848.65	22824
848.786	22881
848.921	22923
849.057	23064
849.192	22904
849.328	22877
849.463	22881
849.598	22911
849.734	22748
849.869	22767
850.004	22672
850.14	22656
850.275	22626
850.41	22504
850.545	22630
850.68	22622
850.815	22569
850.95	22607
851.085	22801
851.22	22858
851.355	22812
851.49	22603
851.625	22649
851.76	22641
851.895	22641
852.03	22569
852.165	22573
852.299	22691
852.434	22767
852.569	22767
852.703	22607
852.838	22706
852.973	22850
853.107	22725
853.242	22580
853.376	22470
853.511	22470
853.645	22447
853.78	22561
853.914	22474
854.048	22405
854.183	22459
854.317	22500
854.451	22672
854.585	22451
854.72	22459
854.854	22592
854.988	22462
855.122	22542
855.256	22325
855.39	22546
855.524	22569
855.658	22504
855.792	22413
855.926	22493
856.06	22504
856.194	22622
856.327	22329
856.461	22443
856.595	22341
856.729	22451
856.862	22466
856.996	22523
857.13	22561
857.263	22637
857.397	22489
857.53	22481
857.664	22554
857.797	22565
857.931	22607
858.064	22504
858.197	22516
858.331	22535
858.464	22470
858.597	22287
858.731	22485
858.864	22447
858.997	22394
859.13	22341
859.263	22466
859.396	22702
859.529	22474
859.662	22485
859.795	22390
859.928	22493
860.061	22679
860.194	22645
860.327	22516
860.46	22622
860.592	22603
860.725	22561
860.858	22668
860.99	22519
861.123	22443
861.256	22375
861.388	22588
861.521	23372
861.653	22284
861.786	22265
861.918	22360
862.05	22455
862.183	22428
862.315	22405
862.447	22470
862.58	22382
862.712	22105
862.844	22158
862.976	22287
863.108	22253
863.24	22736
863.372	22131
863.504	22128
863.636	22040
863.768	22219
863.9	22051
864.032	22154
864.164	22109
864.296	22211
864.428	22173
864.559	22257
864.691	22333
864.823	22207
864.954	22169
865.086	22051
865.217	22006
865.349	22029
865.48	22158
865.612	22173
865.743	22223
865.875	21968
866.006	22021
866.137	21975
866.269	22055
866.4	22013
866.531	22017
866.662	21994
866.793	21987
866.924	21972
867.055	21930
867.186	22101
867.317	22090
867.448	21865
867.579	21861
867.71	21934
867.841	21857
867.972	21991
868.103	21979
868.233	21941
868.364	21915
868.495	22181
868.625	22272
868.756	22474
868.886	22169
869.017	22253
869.147	22329
869.278	22299
869.408	22246
869.539	22188
869.669	22405
869.799	22329
869.929	22363
870.06	22322
870.19	22478
870.32	22523
870.45	22611
870.58	22656
870.71	22660
870.84	22790
870.97	22653
871.1	22580
871.23	22786
871.36	22835
871.489	22778
871.619	22805
871.749	22824
871.879	22862
872.008	22934
872.138	22892
872.267	22866
872.397	22824
872.526	22538
872.656	22637
872.785	22740
872.915	22816
873.044	22938
873.173	22759
873.303	22889
873.432	22824
873.561	23014
873.69	22999
873.819	22790
873.948	22831
874.077	22911
874.206	22828
874.335	22881
874.464	23010
874.593	23075
874.722	23029
874.851	23048
874.979	23105
875.108	23185
875.237	23136
875.365	22927
875.494	22942
875.623	23159
875.751	22946
875.88	23185
876.008	23166
876.136	23189
876.265	23417
876.393	23570
876.521	23410
876.65	23551
876.778	23509
876.906	23406
877.034	23395
877.162	23398
877.29	23379
877.418	23490
877.546	23410
877.674	23501
877.802	23440
877.93	23402
878.058	23193
878.185	23212
878.313	23398
878.441	23398
878.568	23273
878.696	23414
878.824	23440
878.951	23433
879.079	23551
879.206	23604
879.333	23535
879.461	23474
879.588	23581
879.715	23543
879.842	23684
879.97	23570
880.097	23166
880.224	23109
880.351	23292
880.478	23216
880.605	23273
880.732	23109
880.859	23433
880.986	23273
881.112	23200
881.239	23098
881.366	22908
881.493	22801
881.619	22843
881.746	22736
881.872	22786
881.999	22828
882.125	22763
882.252	22752
882.378	22835
882.505	22843
882.631	22542
882.757	22493
882.883	22542
883.01	22424
883.136	22402
883.262	22280
883.388	22386
883.514	22470
883.64	22462
883.766	22287
883.892	22192
884.018	22246
884.143	22470
884.269	22405
884.395	22097
884.52	22086
884.646	22128
884.772	22139
884.897	21964
885.023	22158
885.148	22135
885.274	22219
885.399	22166
885.524	22078
885.65	22150
885.775	22154
885.9	22070
886.025	22246
886.15	22063
886.275	22017
886.4	21998
886.525	22032
886.65	22013
886.775	21926
886.9	22086
887.025	22280
887.149	22116
887.274	21876
887.399	21918
887.523	21880
887.648	21793
887.773	21770
887.897	21964
888.021	21888
888.146	21720
888.27	21911
888.395	21918
888.519	21778
888.643	21831
888.767	21876
888.891	21766
889.015	21675
889.139	21633
889.263	21549
889.387	21694
889.511	21789
889.635	21724
889.759	21557
889.883	21603
890.006	21622
890.13	21660
890.254	21538
890.377	21587
890.501	21439
890.624	21389
890.748	21466
890.871	21260
890.995	21260
891.118	21024
891.241	21214
891.364	21176
891.488	21195
891.611	21176
891.734	21146
891.857	21260
891.98	21256
892.103	21188
892.226	21150
892.349	21089
892.471	20864
892.594	21100
892.717	21154
892.839	21020
892.962	21093
893.085	21184
893.207	21096
893.33	21013
893.452	20933
893.575	21032
893.697	21100
893.819	21252
893.941	21260
894.064	21150
894.186	20891
894.308	20960
894.43	21096
894.552	21249
894.674	21157
894.796	20982
894.918	21062
895.04	21039
895.161	21070
895.283	21123
895.405	20998
895.526	21070
895.648	21009
895.769	20956
895.891	21096
896.012	21138
896.134	21077
896.255	21028
896.376	20952
896.498	21055
896.619	21036
896.74	21039
896.861	21154
896.982	21317
897.103	21431
897.224	21348
897.345	21222
897.466	21157
897.587	21214
897.708	21408
897.828	21340
897.949	21214
898.07	21066
898.19	21112
898.311	21256
898.431	21123
898.552	21222
898.672	21302
898.792	21348
898.913	21294
899.033	21146
899.153	20994
899.273	20910
899.393	20902
899.513	21066
899.633	20925
899.753	20925
899.873	20880
899.993	20971
900.113	20933
900.232	20929
900.352	21017
900.472	20830
900.591	20651
900.711	20754
900.83	20609
900.95	20826
901.069	20727
901.189	20701
901.308	20324
901.427	20355
901.546	20309
901.665	20275
901.784	20294
901.904	20195
902.023	20046
902.141	20001
902.26	19833
902.379	19909
902.498	19765
902.617	19784
902.735	19791
902.854	19772
902.973	19704
903.091	19472
903.21	19419
903.328	19384
903.446	19460
903.565	19221
903.683	19297
903.801	19266
903.919	19285
904.038	19282
904.156	19065
904.274	19023
904.392	18993
904.51	18947
904.627	18996
904.745	19069
904.863	19091
904.981	18947
905.098	18745
905.216	18650
905.334	18749
905.451	18677
905.569	18547
905.686	18745
905.803	18623
905.921	18513
906.038	18696
906.155	18452
906.272	18323
906.389	18403
906.506	18186
906.623	18232
906.74	18304
906.857	18098
906.974	18277
907.091	18350
907.208	18365
907.324	18197
907.441	18106
907.557	18049
907.674	17927
907.79	17878
907.907	17901
908.023	17992
908.139	17874
908.256	17958
908.372	17802
908.488	17718
908.604	17585
908.72	17665
908.836	17699
908.952	17562
909.068	17608
909.184	17767
909.3	17566
909.415	17729
909.531	17642
909.647	17368
909.762	17311
909.878	17292
909.993	17326
910.108	17334
910.224	17311
910.339	17318
910.454	17239
910.57	17105
910.685	17071
910.8	17364
910.915	17292
911.03	17159
911.145	17075
911.259	16896
911.374	16824
911.489	16748
911.604	16843
911.718	16763
911.833	16744
911.947	16698
912.062	16432
912.176	16683
912.291	16752
912.405	16672
912.519	16927
912.633	16812
912.748	16618
912.862	16637
912.976	16653
913.09	16382
913.204	16462
913.318	16535
913.431	16493
913.545	16580
913.659	16542
913.772	16409
913.886	16306
914	16287
914.113	16299
914.226	16367
914.34	16417
914.453	16185
914.566	16341
914.68	16116
914.793	16063
914.906	15876
915.019	15907
915.132	15797
915.245	15876
915.358	15800
915.47	15873
915.583	15774
915.696	15934
915.809	15903
915.921	15987
916.034	15785
916.146	15675
916.259	15766
916.371	15831
916.483	15812
916.595	15557
916.708	15690
916.82	15755
916.932	15496
917.044	15614
917.156	15545
917.268	15492
917.38	15439
917.491	15530
917.603	15466
917.715	15450
917.826	15473
917.938	15378
918.049	15336
918.161	15515
918.272	15660
918.384	15488
918.495	15431
918.606	15275
918.717	15176
918.828	15279
918.939	15199
919.05	15081
919.161	15169
919.272	15020
919.383	15146
919.494	15332
919.604	15378
919.715	15180
919.826	15154
919.936	15203
920.047	15275
920.157	15192
920.267	15275
920.378	15226
920.488	15119
920.598	15310
920.708	15492
920.818	15199
920.928	15207
921.038	15447
921.148	15389
921.258	15100
921.368	15017
921.477	14902
921.587	14807
921.697	14788
921.806	14887
921.916	14716
922.025	14556
922.134	14556
922.244	14537
922.353	14708
922.462	14423
922.571	14298
922.68	14202
922.789	14134
922.898	14161
923.007	14161
923.116	14214
923.224	14111
923.333	14161
923.442	14058
923.55	14054
923.659	13947
923.767	14073
923.876	13913
923.984	13947
924.092	13795
924.201	13982
924.309	13894
924.417	13909
924.525	13811
924.633	13757
924.741	14590
924.849	13594
924.956	13662
925.064	13658
925.172	13597
925.279	13525
925.387	13552
925.494	13483
925.602	13704
925.709	13616
925.816	13438
925.924	13510
926.031	13533
926.138	13438
926.245	13476
926.352	13411
926.459	13529
926.566	13521
926.673	13388
926.779	13240
926.886	13209
926.993	13091
927.099	13129
927.206	13023
927.312	13069
927.419	13133
927.525	12962
927.631	13099
927.737	12939
927.843	12932
927.95	12817
928.056	12852
928.162	12916
928.267	12947
928.373	13552
928.479	13008
928.585	12745
928.69	12932
928.796	12966
928.901	12703
929.007	12582
929.112	12787
929.218	12677
929.323	12642
929.428	12692
929.533	12703
929.638	12559
929.743	12509
929.848	12703
929.953	12551
930.058	12422
930.163	12327
930.267	12289
930.372	12403
930.477	12270
930.581	12479
930.685	12258
930.79	12159
930.894	12171
930.998	12121
931.103	12311
931.207	11893
931.311	11901
931.415	11794
931.519	11528
931.623	11501
