Data from test_V78500241_1008.txt Node
Date: Fri Mar 25 15:48:47 CST 2022
User: usil
Spectrometer: V785-0024
Trigger mode: 0
Integration Time (sec): 4.000000E-1
Scans to average: 1
Nonlinearity correction enabled: false
Boxcar width: 0
Storing dark spectrum: false
XAxis mode: Wavelengths
Number of Pixels in Spectrum: 1024
>>>>>Begin Spectral Data<<<<<
801.071	28063
801.214	28048
801.356	27789
801.499	27549
801.641	27561
801.783	27656
801.926	27637
802.068	27641
802.211	27591
802.353	27481
802.496	27336
802.638	27416
802.78	27355
802.923	27233
803.065	27150
803.208	27264
803.35	27230
803.492	27348
803.635	27504
803.777	27405
803.919	27595
804.061	27911
804.204	27538
804.346	27439
804.488	27363
804.63	27454
804.773	27321
804.915	27576
805.057	27603
805.199	27545
805.341	27644
805.483	27526
805.626	27580
805.768	27568
805.91	27545
806.052	27549
806.194	27542
806.336	27682
806.478	27724
806.62	27580
806.762	27800
806.904	27907
807.046	28223
807.188	28223
807.33	28044
807.472	28253
807.614	28124
807.756	28021
807.898	27972
808.04	27873
808.182	27880
808.324	27884
808.465	28010
808.607	28055
808.749	28223
808.891	28329
809.033	28470
809.174	28516
809.316	28314
809.458	28268
809.6	28405
809.741	28459
809.883	28398
810.025	28668
810.166	28596
810.308	28584
810.45	28504
810.591	28561
810.733	28386
810.875	28318
811.016	28185
811.158	28196
811.299	28333
811.441	28508
811.582	28561
811.724	28226
811.865	28348
812.007	28436
812.148	28226
812.29	28322
812.431	28497
812.573	28717
812.714	28752
812.855	28850
812.997	28965
813.138	28987
813.279	28976
813.421	28984
813.562	28729
813.703	28557
813.845	28497
813.986	28246
814.127	28158
814.268	28143
814.41	28147
814.551	27987
814.692	28086
814.833	27926
814.974	27854
815.115	28059
815.256	27918
815.397	27835
815.539	27781
815.68	27614
815.821	27785
815.962	27907
816.103	27823
816.244	27694
816.385	27614
816.526	27720
816.666	27397
816.807	27408
816.948	27401
817.089	27389
817.23	27389
817.371	27298
817.512	27173
817.653	27325
817.793	27268
817.934	27245
818.075	27275
818.216	27313
818.356	27294
818.497	27176
818.638	26815
818.778	27123
818.919	27058
819.06	27100
819.2	27214
819.341	27218
819.481	27260
819.622	27488
819.762	27622
819.903	27439
820.043	27530
820.184	27332
820.324	27424
820.465	27538
820.605	27447
820.746	27427
820.886	27135
821.026	27412
821.167	27408
821.307	27370
821.447	27454
821.588	27218
821.728	27173
821.868	27047
822.008	26773
822.149	26842
822.289	26857
822.429	26594
822.569	26533
822.709	26427
822.849	26252
822.99	26320
823.13	26366
823.27	26202
823.41	26172
823.55	26016
823.69	26096
823.83	26145
823.97	25917
824.11	25986
824.25	25947
824.389	25917
824.529	25940
824.669	26077
824.809	26168
824.949	26081
825.089	25974
825.228	26134
825.368	25860
825.508	25643
825.648	25845
825.787	25818
825.927	25921
826.067	25811
826.206	25822
826.346	26073
826.485	25883
826.625	25666
826.765	25807
826.904	25970
827.044	25499
827.183	25647
827.323	25430
827.462	25670
827.601	25613
827.741	25449
827.88	25563
828.02	25529
828.159	25510
828.298	25377
828.437	25597
828.577	25434
828.716	25582
828.855	25537
828.994	25259
829.134	25175
829.273	25285
829.412	25278
829.551	25126
829.69	25187
829.829	25297
829.968	25350
830.107	25251
830.246	25164
830.385	25114
830.524	25171
830.663	25156
830.802	24943
830.941	24863
831.08	24795
831.219	24844
831.357	24890
831.496	25084
831.635	24886
831.774	24753
831.913	24703
832.051	24688
832.19	24559
832.329	24673
832.467	24544
832.606	24513
832.744	24547
832.883	24456
833.022	24486
833.16	24544
833.299	24555
833.437	24563
833.576	24494
833.714	24654
833.852	24589
833.991	24620
834.129	24642
834.267	24635
834.406	24540
834.544	24547
834.682	24505
834.821	24525
834.959	24635
835.097	24475
835.235	24616
835.373	24551
835.511	24532
835.65	24528
835.788	24456
835.926	24327
836.064	24304
836.202	24182
836.34	24380
836.478	24525
836.615	24437
836.753	24311
836.891	24513
837.029	24407
837.167	24361
837.305	24197
837.443	24216
837.58	24258
837.718	24315
837.856	24251
837.993	24072
838.131	24239
838.269	24022
838.406	24098
838.544	24068
838.681	23794
838.819	23847
838.956	23672
839.094	23642
839.231	23760
839.369	23889
839.506	23977
839.643	24026
839.781	23638
839.918	23627
840.055	23657
840.193	23680
840.33	23516
840.467	23668
840.604	23661
840.742	23847
840.879	23528
841.016	23528
841.153	23493
841.29	23745
841.427	23486
841.564	23600
841.701	23474
841.838	23543
841.975	23414
842.112	23524
842.249	23299
842.385	23269
842.522	23630
842.659	23398
842.796	23334
842.933	23277
843.069	23254
843.206	23337
843.343	23474
843.479	23273
843.616	23337
843.752	23178
843.889	23162
844.025	23223
844.162	23041
844.298	23197
844.435	23083
844.571	23124
844.708	23151
844.844	23269
844.98	23204
845.117	23261
845.253	23109
845.389	22995
845.525	23075
845.661	23124
845.798	22786
845.934	23079
846.07	22759
846.206	22835
846.342	22995
846.478	22843
846.614	22603
846.75	22542
846.886	22577
847.022	22649
847.158	22641
847.294	22637
847.429	22615
847.565	22626
847.701	22656
847.837	22265
847.972	22226
848.108	22284
848.244	22360
848.379	22257
848.515	22181
848.65	22185
848.786	22166
848.921	22196
849.057	22348
849.192	22238
849.328	22219
849.463	22124
849.598	22120
849.734	22059
849.869	22063
850.004	21949
850.14	21956
850.275	21960
850.41	21838
850.545	21903
850.68	21915
850.815	21823
850.95	21911
851.085	22219
851.22	22063
851.355	21915
851.49	21934
851.625	21831
851.76	21934
851.895	21884
852.03	21876
852.165	21797
852.299	21915
852.434	22070
852.569	21869
852.703	21941
852.838	21880
852.973	22013
853.107	22177
853.242	21854
853.376	21747
853.511	21580
853.645	21705
853.78	21808
853.914	21751
854.048	21724
854.183	21778
854.317	21717
854.451	21964
854.585	21713
854.72	21755
854.854	21778
854.988	21690
855.122	21694
855.256	21526
855.39	21755
855.524	21789
855.658	21625
855.792	21800
855.926	21781
856.06	21812
856.194	21880
856.327	21774
856.461	21641
856.595	21690
856.729	21781
856.862	21823
856.996	21709
857.13	21808
857.263	21759
857.397	21755
857.53	21686
857.664	21850
857.797	21751
857.931	21854
858.064	21728
858.197	21850
858.331	21797
858.464	21667
858.597	21663
858.731	21808
858.864	21675
858.997	21595
859.13	21755
859.263	21751
859.396	21739
859.529	21759
859.662	21736
859.795	21759
859.928	21797
860.061	21884
860.194	21907
860.327	21717
860.46	21854
860.592	21861
860.725	21930
860.858	21911
860.99	21842
861.123	21717
861.256	21739
861.388	21827
861.521	22451
861.653	21568
861.786	21488
861.918	21545
862.05	21622
862.183	21732
862.315	21705
862.447	21728
862.58	21709
862.712	21469
862.844	21450
862.976	21591
863.108	21370
863.24	21846
863.372	21507
863.504	21443
863.636	21515
863.768	21485
863.9	21447
864.032	21355
864.164	21549
864.296	21542
864.428	21637
864.559	21454
864.691	21462
864.823	21507
864.954	21462
865.086	21450
865.217	21424
865.349	21420
865.48	21416
865.612	21348
865.743	21549
865.875	21336
866.006	21306
866.137	21310
866.269	21272
866.4	21389
866.531	21268
866.662	21211
866.793	21325
866.924	21355
867.055	21317
867.186	21272
867.317	21169
867.448	21058
867.579	21302
867.71	21192
867.841	21085
867.972	21256
868.103	21256
868.233	21241
868.364	21203
868.495	21245
868.625	21405
868.756	21568
868.886	21431
869.017	21523
869.147	21766
869.278	21603
869.408	21542
869.539	21424
869.669	21580
869.799	21477
869.929	21625
870.06	21564
870.19	21857
870.32	21751
870.45	21808
870.58	21876
870.71	21994
870.84	21972
870.97	21930
871.1	21983
871.23	22093
871.36	22215
871.489	21987
871.619	22131
871.749	22082
871.879	22116
872.008	22272
872.138	22177
872.267	22082
872.397	21998
872.526	21823
872.656	21956
872.785	21884
872.915	22177
873.044	22215
873.173	22078
873.303	22082
873.432	22139
873.561	22173
873.69	22116
873.819	22139
873.948	22265
874.077	22109
874.206	22059
874.335	22078
874.464	22166
874.593	22314
874.722	22375
874.851	22344
874.979	22413
875.108	22333
875.237	22318
875.365	22299
875.494	22405
875.623	22470
875.751	22314
875.88	22390
876.008	22508
876.136	22523
876.265	22694
876.393	22847
876.521	22915
876.65	22755
876.778	22721
876.906	22839
877.034	22596
877.162	22786
877.29	22725
877.418	22763
877.546	22805
877.674	22672
877.802	22607
877.93	22755
878.058	22630
878.185	22481
878.313	22584
878.441	22645
878.568	22607
878.696	22668
878.824	22683
878.951	22717
879.079	22752
879.206	23018
879.333	22824
879.461	22713
879.588	22797
879.715	22915
879.842	22987
879.97	22793
880.097	22637
880.224	22440
880.351	22577
880.478	22481
880.605	22500
880.732	22500
880.859	22710
880.986	22508
881.112	22508
881.239	22325
881.366	22276
881.493	22158
881.619	22029
881.746	22082
881.872	22112
881.999	22109
882.125	21975
882.252	22067
882.378	22120
882.505	22120
882.631	21975
882.757	21793
882.883	21854
883.01	21819
883.136	21759
883.262	21652
883.388	21644
883.514	21789
883.64	21842
883.766	21789
883.892	21530
884.018	21671
884.143	21797
884.269	21785
884.395	21473
884.52	21344
884.646	21306
884.772	21397
884.897	21192
885.023	21389
885.148	21553
885.274	21606
885.399	21431
885.524	21496
885.65	21408
885.775	21355
885.9	21370
886.025	21500
886.15	21386
886.275	21363
886.4	21275
886.525	21374
886.65	21222
886.775	21260
886.9	21435
887.025	21595
887.149	21348
887.274	21108
887.399	21184
887.523	21176
887.648	21154
887.773	21154
887.897	21370
888.021	21218
888.146	21161
888.27	21264
888.395	21252
888.519	21207
888.643	21184
888.767	21146
888.891	21127
889.015	20963
889.139	20998
889.263	21055
889.387	20986
889.511	21237
889.635	21062
889.759	20906
889.883	20948
890.006	21032
890.13	21017
890.254	20853
890.377	20902
890.501	20701
890.624	20682
890.748	20754
890.871	20552
890.995	20545
891.118	20511
891.241	20560
891.364	20602
891.488	20579
891.611	20644
891.734	20511
891.857	20625
891.98	20594
892.103	20511
892.226	20621
892.349	20396
892.471	20423
892.594	20461
892.717	20522
892.839	20450
892.962	20434
893.085	20575
893.207	20431
893.33	20313
893.452	20415
893.575	20579
893.697	20389
893.819	20606
893.941	20724
894.064	20583
894.186	20309
894.308	20385
894.43	20590
894.552	20602
894.674	20590
894.796	20347
894.918	20480
895.04	20507
895.161	20560
895.283	20476
895.405	20415
895.526	20575
895.648	20412
895.769	20499
895.891	20518
896.012	20541
896.134	20568
896.255	20522
896.376	20465
896.498	20556
896.619	20480
896.74	20393
896.861	20613
896.982	20857
897.103	20902
897.224	20758
897.345	20743
897.466	20583
897.587	20594
897.708	20861
897.828	20670
897.949	20594
898.07	20530
898.19	20640
898.311	20777
898.431	20689
898.552	20693
898.672	20758
898.792	20750
898.913	20686
899.033	20552
899.153	20404
899.273	20374
899.393	20374
899.513	20480
899.633	20522
899.753	20473
899.873	20317
899.993	20476
900.113	20240
900.232	20347
900.352	20412
900.472	20286
900.591	20240
900.711	20244
900.83	20176
900.95	20252
901.069	20157
901.189	20111
901.308	19913
901.427	19742
901.546	19841
901.665	19830
901.784	19814
901.904	19696
902.023	19480
902.141	19434
902.26	19324
902.379	19327
902.498	19244
902.617	19327
902.735	19346
902.854	19259
902.973	19198
903.091	18928
903.21	18886
903.328	18916
903.446	18947
903.565	18798
903.683	18783
903.801	18669
903.919	18673
904.038	18646
904.156	18467
904.274	18715
904.392	18547
904.51	18502
904.627	18437
904.745	18612
904.863	18384
904.981	18369
905.098	18247
905.216	18152
905.334	18262
905.451	18277
905.569	18247
905.686	18178
905.803	18133
905.921	17984
906.038	18079
906.155	18030
906.272	17916
906.389	18030
906.506	17672
906.623	17745
906.74	17676
906.857	17524
906.974	17532
907.091	17707
907.208	17847
907.324	17832
907.441	17615
907.557	17551
907.674	17566
907.79	17360
907.907	17387
908.023	17532
908.139	17425
908.256	17356
908.372	17353
908.488	17341
908.604	17155
908.72	17189
908.836	17200
908.952	17178
909.068	17170
909.184	17299
909.3	17212
909.415	17075
909.531	17083
909.647	17010
909.762	16847
909.878	16843
909.993	16908
910.108	16934
910.224	16733
910.339	16839
910.454	16778
910.57	16599
910.685	16497
910.8	16828
910.915	16797
911.03	16668
911.145	16500
911.259	16504
911.374	16470
911.489	16409
911.604	16249
911.718	16124
911.833	16185
911.947	16093
912.062	16044
912.176	16303
912.291	16215
912.405	16158
912.519	16386
912.633	16459
912.748	16265
912.862	16135
912.976	16048
913.09	15915
913.204	15934
913.318	16017
913.431	16139
913.545	16097
913.659	16036
913.772	15922
913.886	15899
914	15812
914.113	15937
914.226	15956
914.34	15907
914.453	15709
914.566	15766
914.68	15576
914.793	15675
914.906	15424
915.019	15386
915.132	15252
915.245	15481
915.358	15370
915.47	15378
915.583	15412
915.696	15431
915.809	15538
915.921	15447
916.034	15469
916.146	15272
916.259	15294
916.371	15405
916.483	15325
916.595	15233
916.708	15260
916.82	15207
916.932	15195
917.044	15176
917.156	15146
917.268	15085
917.38	15020
917.491	15051
917.603	15062
917.715	15119
917.826	15100
917.938	15005
918.049	14800
918.161	14971
918.272	15066
918.384	15203
918.495	14921
918.606	14769
918.717	14758
918.828	14785
918.939	14887
919.05	14705
919.161	14864
919.272	14571
919.383	14632
919.494	14811
919.604	15024
919.715	14769
919.826	14705
919.936	14667
920.047	14811
920.157	14796
920.267	15032
920.378	14792
920.488	14785
920.598	14857
920.708	15077
920.818	14872
920.928	14975
921.038	15093
921.148	14925
921.258	14777
921.368	14663
921.477	14556
921.587	14419
921.697	14351
921.806	14442
921.916	14396
922.025	14168
922.134	14183
922.244	14035
922.353	14206
922.462	14008
922.571	13986
922.68	13868
922.789	13769
922.898	13765
923.007	13696
923.116	13830
923.224	13704
923.333	13715
923.442	13540
923.55	13582
923.659	13586
923.767	13662
923.876	13518
923.984	13590
924.092	13415
924.201	13499
924.309	13464
924.417	13552
924.525	13354
924.633	13480
924.741	14400
924.849	13213
924.956	13331
925.064	13194
925.172	13114
925.279	13179
925.387	13213
925.494	13190
925.602	13225
925.709	13152
925.816	13107
925.924	13118
926.031	13194
926.138	13110
926.245	13152
926.352	13031
926.459	13149
926.566	13091
926.673	13137
926.779	12867
926.886	12920
926.993	12734
927.099	12684
927.206	12623
927.312	12654
927.419	12821
927.525	12688
927.631	12791
927.737	12540
927.843	12612
927.95	12521
928.056	12574
928.162	12574
928.267	12608
928.373	13069
928.479	12544
928.585	12391
928.69	12486
928.796	12551
928.901	12441
929.007	12350
929.112	12334
929.218	12418
929.323	12296
929.428	12251
929.533	12384
929.638	12232
929.743	12205
929.848	12319
929.953	12232
930.058	12095
930.163	11889
930.267	11931
930.372	12102
930.477	11908
930.581	12163
930.685	11920
930.79	11821
930.894	11840
930.998	11840
931.103	11946
931.207	11493
931.311	11429
931.415	11402
931.519	11231
931.623	11265
