Data from test_V78500241_3562.txt Node
Date: Fri Mar 25 16:06:28 CST 2022
User: usil
Spectrometer: V785-0024
Trigger mode: 0
Integration Time (sec): 4.000000E-1
Scans to average: 1
Nonlinearity correction enabled: false
Boxcar width: 0
Storing dark spectrum: false
XAxis mode: Wavelengths
Number of Pixels in Spectrum: 1024
>>>>>Begin Spectral Data<<<<<
801.071	28691
801.214	28630
801.356	28527
801.499	28375
801.641	28295
801.783	28295
801.926	28405
802.068	28386
802.211	28348
802.353	28348
802.496	28040
802.638	27994
802.78	28006
802.923	27930
803.065	27880
803.208	28025
803.35	28051
803.492	28276
803.635	28268
803.777	28223
803.919	28261
804.061	28710
804.204	28257
804.346	28154
804.488	28344
804.63	28253
804.773	28272
804.915	28284
805.057	28478
805.199	28295
805.341	28352
805.483	28565
805.626	28443
805.768	28333
805.91	28390
806.052	28519
806.194	28401
806.336	28592
806.478	28504
806.62	28577
806.762	28702
806.904	28862
807.046	29033
807.188	28892
807.33	28938
807.472	29041
807.614	28915
807.756	28774
807.898	28790
808.04	28820
808.182	28721
808.324	28911
808.465	28816
808.607	28987
808.749	29197
808.891	29353
809.033	29467
809.174	29254
809.316	29086
809.458	29181
809.6	29029
809.741	29181
809.883	29246
810.025	29486
810.166	29467
810.308	29474
810.45	29265
810.591	29467
810.733	29239
810.875	29197
811.016	29284
811.158	29086
811.299	29410
811.441	29337
811.582	29429
811.724	29273
811.865	29151
812.007	29132
812.148	29105
812.29	29151
812.431	29474
812.573	29516
812.714	29501
812.855	29570
812.997	29824
813.138	29920
813.279	29862
813.421	29653
813.562	29684
813.703	29406
813.845	29463
813.986	29113
814.127	28930
814.268	28824
814.41	28987
814.551	28858
814.692	28927
814.833	28835
814.974	28877
815.115	28847
815.256	28675
815.397	28816
815.539	28869
815.68	28702
815.821	28710
815.962	28717
816.103	28683
816.244	28443
816.385	28428
816.526	28535
816.666	28322
816.807	27895
816.948	28382
817.089	28367
817.23	28226
817.371	28223
817.512	28173
817.653	28131
817.793	28162
817.934	28173
818.075	28173
818.216	28192
818.356	28261
818.497	28166
818.638	27880
818.778	27914
818.919	27914
819.06	28032
819.2	28147
819.341	28188
819.481	28226
819.622	28318
819.762	28561
819.903	28474
820.043	28470
820.184	28196
820.324	28421
820.465	28409
820.605	28394
820.746	28234
820.886	28135
821.026	28303
821.167	28360
821.307	28295
821.447	28166
821.588	28192
821.728	28032
821.868	27690
822.008	27751
822.149	27701
822.289	27743
822.429	27393
822.569	27310
822.709	27405
822.849	27279
822.99	27237
823.13	27211
823.27	27150
823.41	26940
823.55	26781
823.69	27127
823.83	26982
823.97	26819
824.11	26785
824.25	26731
824.389	26773
824.529	26963
824.669	26880
824.809	26899
824.949	27005
825.089	26952
825.228	26925
825.368	26705
825.508	26644
825.648	26689
825.787	26769
825.927	26651
826.067	26735
826.206	26853
826.346	26727
826.485	26792
826.625	26777
826.765	26785
826.904	26727
827.044	26511
827.183	26461
827.323	26377
827.462	26507
827.601	26389
827.741	26374
827.88	26423
828.02	26183
828.159	26461
828.298	26396
828.437	26549
828.577	26442
828.716	26541
828.855	26343
828.994	26073
829.134	26221
829.273	26206
829.412	26069
829.551	26043
829.69	26020
829.829	26153
829.968	26145
830.107	26214
830.246	26126
830.385	25963
830.524	25982
830.663	25974
830.802	25883
830.941	25761
831.08	25708
831.219	25879
831.357	25708
831.496	25955
831.635	25681
831.774	25704
831.913	25700
832.051	25582
832.19	25563
832.329	25540
832.467	25438
832.606	25422
832.744	25365
832.883	25453
833.022	25407
833.16	25499
833.299	25282
833.437	25518
833.576	25544
833.714	25537
833.852	25506
833.991	25582
834.129	25620
834.267	25567
834.406	25624
834.544	25533
834.682	25354
834.821	25457
834.959	25605
835.097	25468
835.235	25552
835.373	25499
835.511	25392
835.65	25240
835.788	25331
835.926	25183
836.064	25110
836.202	25095
836.34	25339
836.478	25407
836.615	25343
836.753	25266
836.891	25354
837.029	25190
837.167	25266
837.305	25183
837.443	25133
837.58	25152
837.718	25145
837.856	25312
837.993	25072
838.131	25050
838.269	25004
838.406	25187
838.544	24992
838.681	24810
838.819	24764
838.956	24593
839.094	24505
839.231	24639
839.369	24783
839.506	24932
839.643	24802
839.781	24661
839.918	24479
840.055	24570
840.193	24384
840.33	24498
840.467	24604
840.604	24612
840.742	24772
840.879	24574
841.016	24353
841.153	24277
841.29	24509
841.427	24460
841.564	24551
841.701	24486
841.838	24486
841.975	24361
842.112	24437
842.249	24296
842.385	24243
842.522	24509
842.659	24410
842.796	24254
842.933	24140
843.069	24163
843.206	24281
843.343	24315
843.479	24213
843.616	24300
843.752	23920
843.889	24076
844.025	24232
844.162	24003
844.298	24171
844.435	23992
844.571	23908
844.708	24068
844.844	24095
844.98	24125
845.117	24194
845.253	23958
845.389	23840
845.525	23863
845.661	23863
845.798	23775
845.934	23760
846.07	23642
846.206	23786
846.342	23817
846.478	23558
846.614	23592
846.75	23417
846.886	23440
847.022	23463
847.158	23531
847.294	23478
847.429	23493
847.565	23509
847.701	23577
847.837	23258
847.972	23200
848.108	23383
848.244	23307
848.379	23121
848.515	23079
848.65	22987
848.786	23147
848.921	23128
849.057	23147
849.192	23132
849.328	23052
849.463	23181
849.598	23185
849.734	22938
849.869	22881
850.004	22847
850.14	22869
850.275	22740
850.41	22744
850.545	22698
850.68	22812
850.815	22850
850.95	22862
851.085	22965
851.22	22938
851.355	22900
851.49	22694
851.625	22740
851.76	22675
851.895	22713
852.03	22778
852.165	22869
852.299	22748
852.434	22938
852.569	22854
852.703	22831
852.838	22908
852.973	23025
853.107	22885
853.242	22702
853.376	22588
853.511	22573
853.645	22565
853.78	22843
853.914	22694
854.048	22584
854.183	22706
854.317	22630
854.451	22946
854.585	22493
854.72	22630
854.854	22733
854.988	22645
855.122	22637
855.256	22519
855.39	22607
855.524	22687
855.658	22679
855.792	22653
855.926	22664
856.06	22801
856.194	22660
856.327	22668
856.461	22550
856.595	22668
856.729	22573
856.862	22683
856.996	22733
857.13	22664
857.263	22653
857.397	22717
857.53	22561
857.664	22763
857.797	22694
857.931	22759
858.064	22569
858.197	22691
858.331	22649
858.464	22615
858.597	22508
858.731	22599
858.864	22672
858.997	22607
859.13	22641
859.263	22763
859.396	22843
859.529	22512
859.662	22607
859.795	22561
859.928	22618
860.061	22820
860.194	22915
860.327	22679
860.46	22740
860.592	22721
860.725	22763
860.858	22797
860.99	22672
861.123	22630
861.256	22470
861.388	22527
861.521	23261
861.653	22592
861.786	22474
861.918	22371
862.05	22538
862.183	22538
862.315	22584
862.447	22599
862.58	22443
862.712	22185
862.844	22147
862.976	22375
863.108	22519
863.24	22877
863.372	22268
863.504	22291
863.636	22470
863.768	22386
863.9	22363
864.032	22207
864.164	22314
864.296	22314
864.428	22512
864.559	22531
864.691	22531
864.823	22489
864.954	22352
865.086	22219
865.217	22230
865.349	22135
865.48	22226
865.612	22333
865.743	22337
865.875	22162
866.006	22169
866.137	22196
866.269	22246
866.4	22177
866.531	22109
866.662	22086
866.793	22234
866.924	22090
867.055	22135
867.186	22188
867.317	22067
867.448	22086
867.579	22181
867.71	21911
867.841	22048
867.972	22166
868.103	22078
868.233	22120
868.364	22242
868.495	22249
868.625	22379
868.756	22500
868.886	22386
869.017	22409
869.147	22485
869.278	22390
869.408	22447
869.539	22314
869.669	22363
869.799	22447
869.929	22462
870.06	22466
870.19	22778
870.32	22649
870.45	22679
870.58	22801
870.71	22790
870.84	22908
870.97	22668
871.1	22820
871.23	23010
871.36	23014
871.489	22987
871.619	23022
871.749	23006
871.879	22965
872.008	23003
872.138	23102
872.267	22995
872.397	23018
872.526	22847
872.656	22752
872.785	22938
872.915	23071
873.044	23075
873.173	23041
873.303	23029
873.432	23105
873.561	23052
873.69	23094
873.819	23029
873.948	23155
874.077	23029
874.206	22866
874.335	23025
874.464	23105
874.593	23052
874.722	23151
874.851	23254
874.979	23288
875.108	23227
875.237	23261
875.365	23098
875.494	23162
875.623	23299
875.751	23204
875.88	23105
876.008	23258
876.136	23391
876.265	23786
876.393	23661
876.521	23710
876.65	23634
876.778	23577
876.906	23528
877.034	23592
877.162	23642
877.29	23436
877.418	23486
877.546	23638
877.674	23661
877.802	23592
877.93	23516
878.058	23471
878.185	23471
878.313	23455
878.441	23368
878.568	23376
878.696	23474
878.824	23634
878.951	23691
879.079	23691
879.206	23851
879.333	23687
879.461	23543
879.588	23737
879.715	23551
879.842	23893
879.97	23608
880.097	23436
880.224	23372
880.351	23478
880.478	23440
880.605	23250
880.732	23353
880.859	23665
880.986	23414
881.112	23417
881.239	23223
881.366	23094
881.493	22957
881.619	22972
881.746	23056
881.872	22889
881.999	22927
882.125	22908
882.252	22919
882.378	22881
882.505	22889
882.631	22736
882.757	22618
882.883	22634
883.01	22615
883.136	22573
883.262	22622
883.388	22493
883.514	22527
883.64	22554
883.766	22656
883.892	22352
884.018	22500
884.143	22535
884.269	22561
884.395	22329
884.52	22348
884.646	22417
884.772	22272
884.897	22173
885.023	22200
885.148	22333
885.274	22333
885.399	22329
885.524	22226
885.65	22284
885.775	22226
885.9	22150
886.025	22348
886.15	22379
886.275	22112
886.4	22162
886.525	22242
886.65	22048
886.775	22101
886.9	22329
887.025	22409
887.149	22207
887.274	22070
887.399	22078
887.523	22078
887.648	21922
887.773	21949
887.897	21998
888.021	22021
888.146	21926
888.27	22082
888.395	22078
888.519	22074
888.643	21968
888.767	22211
888.891	21892
889.015	21675
889.139	21854
889.263	21724
889.387	21895
889.511	21895
889.635	21873
889.759	21739
889.883	21667
890.006	21781
890.13	21789
890.254	21713
890.377	21614
890.501	21606
890.624	21648
890.748	21610
890.871	21435
890.995	21233
891.118	21245
891.241	21252
891.364	21367
891.488	21443
891.611	21340
891.734	21306
891.857	21321
891.98	21412
892.103	21321
892.226	21332
892.349	21287
892.471	21142
892.594	21264
892.717	21294
892.839	21203
892.962	21211
893.085	21256
893.207	21100
893.33	21169
893.452	21058
893.575	21302
893.697	21256
893.819	21260
893.941	21466
894.064	21332
894.186	21142
894.308	21165
894.43	21291
894.552	21268
894.674	21363
894.796	21176
894.918	21176
895.04	21074
895.161	21268
895.283	21184
895.405	21131
895.526	21222
895.648	21252
895.769	21138
895.891	21214
896.012	21207
896.134	21249
896.255	21294
896.376	21157
896.498	21119
896.619	21135
896.74	21108
896.861	21245
896.982	21496
897.103	21656
897.224	21405
897.345	21386
897.466	21496
897.587	21389
897.708	21450
897.828	21416
897.949	21321
898.07	21176
898.19	21321
898.311	21553
898.431	21230
898.552	21355
898.672	21416
898.792	21458
898.913	21473
899.033	21321
899.153	21226
899.273	20994
899.393	21142
899.513	21180
899.633	21161
899.753	21089
899.873	20967
899.993	21100
900.113	21051
900.232	21047
900.352	21047
900.472	21036
900.591	20857
900.711	20895
900.83	20834
900.95	20914
901.069	20933
901.189	20777
901.308	20648
901.427	20374
901.546	20526
901.665	20545
901.784	20404
901.904	20317
902.023	20278
902.141	20100
902.26	19982
902.379	19963
902.498	19982
902.617	19921
902.735	19837
902.854	19963
902.973	19902
903.091	19635
903.21	19616
903.328	19578
903.446	19533
903.565	19407
903.683	19594
903.801	19179
903.919	19308
904.038	19270
904.156	19129
904.274	19187
904.392	19034
904.51	19057
904.627	19061
904.745	19194
904.863	19304
904.981	19076
905.098	18779
905.216	18886
905.334	18837
905.451	18848
905.569	18760
905.686	18806
905.803	18806
905.921	18669
906.038	18760
906.155	18631
906.272	18456
906.389	18601
906.506	18346
906.623	18327
906.74	18350
906.857	18300
906.974	18319
907.091	18327
907.208	18422
907.324	18384
907.441	18243
907.557	18144
907.674	18148
907.79	18060
907.907	17996
908.023	18034
908.139	18121
908.256	17954
908.372	17969
908.488	17908
908.604	17832
908.72	17722
908.836	17794
908.952	17752
909.068	17843
909.184	17935
909.3	17798
909.415	17748
909.531	17828
909.647	17444
909.762	17486
909.878	17387
909.993	17398
910.108	17406
910.224	17356
910.339	17421
910.454	17318
910.57	17265
910.685	17124
910.8	17497
910.915	17277
911.03	17189
911.145	17258
911.259	16946
911.374	17075
911.489	17041
911.604	16927
911.718	16691
911.833	16843
911.947	16611
912.062	16618
912.176	16809
912.291	16759
912.405	16729
912.519	16934
912.633	16999
912.748	16805
912.862	16786
912.976	16611
913.09	16481
913.204	16592
913.318	16561
913.431	16664
913.545	16736
913.659	16664
913.772	16436
913.886	16421
914	16398
914.113	16382
914.226	16527
914.34	16390
914.453	16310
914.566	16398
914.68	16207
914.793	16249
914.906	16078
915.019	16036
915.132	15876
915.245	15892
915.358	15934
915.47	15991
915.583	16036
915.696	15918
915.809	15994
915.921	16051
916.034	15880
916.146	15895
916.259	15861
916.371	16029
916.483	15907
916.595	15770
916.708	15770
916.82	15675
916.932	15736
917.044	15694
917.156	15667
917.268	15538
917.38	15591
917.491	15469
917.603	15564
917.715	15603
917.826	15660
917.938	15500
918.049	15435
918.161	15435
918.272	15625
918.384	15690
918.495	15443
918.606	15386
918.717	15233
918.828	15325
918.939	15336
919.05	15211
919.161	15310
919.272	15169
919.383	15287
919.494	15272
919.604	15545
919.715	15317
919.826	15245
919.936	15264
920.047	15325
920.157	15317
920.267	15416
920.378	15233
920.488	15150
920.598	15462
920.708	15538
920.818	15443
920.928	15355
921.038	15538
921.148	15507
921.258	15138
921.368	15173
921.477	15001
921.587	14880
921.697	14823
921.806	14963
921.916	14785
922.025	14678
922.134	14621
922.244	14587
922.353	14727
922.462	14499
922.571	14419
922.68	14233
922.789	14305
922.898	14290
923.007	14157
923.116	14332
923.224	14278
923.333	14191
923.442	14134
923.55	14134
923.659	14195
923.767	14191
923.876	14005
923.984	14035
924.092	13951
924.201	14065
924.309	14031
924.417	13913
924.525	13826
924.633	13974
924.741	14899
924.849	13879
924.956	13871
925.064	13734
925.172	13582
925.279	13643
925.387	13636
925.494	13636
925.602	13708
925.709	13647
925.816	13472
925.924	13575
926.031	13658
926.138	13586
926.245	13613
926.352	13514
926.459	13594
926.566	13685
926.673	13457
926.779	13468
926.886	13365
926.993	13259
927.099	13251
927.206	13194
927.312	13080
927.419	13247
927.525	13190
927.631	13247
927.737	13095
927.843	13000
927.95	12954
928.056	12981
928.162	13031
928.267	13027
928.373	13537
928.479	13103
928.585	12871
928.69	12928
928.796	12966
928.901	12783
929.007	12684
929.112	12760
929.218	12798
929.323	12700
929.428	12719
929.533	12741
929.638	12604
929.743	12677
929.848	12692
929.953	12623
930.058	12559
930.163	12361
930.267	12391
930.372	12448
930.477	12327
930.581	12521
930.685	12479
930.79	12209
930.894	12243
930.998	12247
931.103	12456
931.207	11984
931.311	11885
931.415	11771
931.519	11684
931.623	11600
