Data from test_V78500241_249.txt Node
Date: Fri Mar 25 15:43:31 CST 2022
User: usil
Spectrometer: V785-0024
Trigger mode: 0
Integration Time (sec): 4.000000E-1
Scans to average: 1
Nonlinearity correction enabled: false
Boxcar width: 0
Storing dark spectrum: false
XAxis mode: Wavelengths
Number of Pixels in Spectrum: 1024
>>>>>Begin Spectral Data<<<<<
801.071	29665
801.214	29539
801.356	29505
801.499	29288
801.641	29318
801.783	29444
801.926	29212
802.068	29273
802.211	29143
802.353	28968
802.496	28900
802.638	28862
802.78	28828
802.923	28839
803.065	28611
803.208	28801
803.35	28748
803.492	28908
803.635	29079
803.777	28984
803.919	29109
804.061	29425
804.204	28946
804.346	28991
804.488	28900
804.63	28946
804.773	28866
804.915	28938
805.057	29052
805.199	28888
805.341	29014
805.483	29162
805.626	29022
805.768	28965
805.91	29048
806.052	29216
806.194	29113
806.336	29166
806.478	29174
806.62	29174
806.762	29318
806.904	29471
807.046	29710
807.188	29623
807.33	29528
807.472	29577
807.614	29383
807.756	29406
807.898	29433
808.04	29250
808.182	29356
808.324	29307
808.465	29341
808.607	29486
808.749	29600
808.891	29798
809.033	29870
809.174	29859
809.316	29802
809.458	29748
809.6	29695
809.741	29916
809.883	29794
810.025	29939
810.166	30022
810.308	30079
810.45	30038
810.591	29992
810.733	29798
810.875	29840
811.016	29661
811.158	29726
811.299	29874
811.441	30049
811.582	29771
811.724	29752
811.865	29585
812.007	29615
812.148	29642
812.29	29623
812.431	29824
812.573	30098
812.714	30129
812.855	30163
812.997	30201
813.138	30266
813.279	30372
813.421	30228
813.562	30076
813.703	30068
813.845	29893
813.986	29646
814.127	29398
814.268	29356
814.41	29250
814.551	29364
814.692	29452
814.833	29383
814.974	29326
815.115	29414
815.256	29208
815.397	29185
815.539	29170
815.68	29132
815.821	29071
815.962	29170
816.103	29098
816.244	28900
816.385	28965
816.526	28839
816.666	28710
816.807	28561
816.948	28523
817.089	28736
817.23	28618
817.371	28550
817.512	28588
817.653	28462
817.793	28561
817.934	28497
818.075	28611
818.216	28508
818.356	28493
818.497	28352
818.638	28215
818.778	28257
818.919	28162
819.06	28314
819.2	28672
819.341	28660
819.481	28527
819.622	28687
819.762	28877
819.903	28725
820.043	28702
820.184	28607
820.324	28675
820.465	28664
820.605	28592
820.746	28599
820.886	28447
821.026	28592
821.167	28577
821.307	28508
821.447	28493
821.588	28344
821.728	28188
821.868	28093
822.008	28010
822.149	28006
822.289	27759
822.429	27850
822.569	27568
822.709	27656
822.849	27359
822.99	27393
823.13	27329
823.27	27344
823.41	27165
823.55	27233
823.69	27256
823.83	27066
823.97	27146
824.11	27066
824.25	26902
824.389	27032
824.529	27051
824.669	27047
824.809	27131
824.949	27036
825.089	27161
825.228	27047
825.368	26792
825.508	26823
825.648	26940
825.787	26910
825.927	27013
826.067	26940
826.206	26796
826.346	26975
826.485	26921
826.625	26929
826.765	26895
826.904	26849
827.044	26655
827.183	26587
827.323	26541
827.462	26625
827.601	26583
827.741	26537
827.88	26583
828.02	26267
828.159	26431
828.298	26537
828.437	26450
828.577	26412
828.716	26514
828.855	26355
828.994	26218
829.134	26187
829.273	26263
829.412	26290
829.551	26103
829.69	26221
829.829	26111
829.968	26202
830.107	26225
830.246	26130
830.385	26031
830.524	26092
830.663	26005
830.802	25852
830.941	25666
831.08	25715
831.219	25761
831.357	25791
831.496	25868
831.635	25746
831.774	25605
831.913	25681
832.051	25563
832.19	25529
832.329	25544
832.467	25339
832.606	25369
832.744	25377
832.883	25384
833.022	25411
833.16	25419
833.299	25365
833.437	25316
833.576	25297
833.714	25491
833.852	25525
833.991	25521
834.129	25544
834.267	25544
834.406	25487
834.544	25460
834.682	25453
834.821	25369
834.959	25518
835.097	25308
835.235	25457
835.373	25354
835.511	25434
835.65	25183
835.788	25274
835.926	25194
836.064	25038
836.202	25072
836.34	25312
836.478	25285
836.615	25118
836.753	25145
836.891	25221
837.029	25145
837.167	25183
837.305	25126
837.443	25000
837.58	25065
837.718	25244
837.856	24951
837.993	24958
838.131	25046
838.269	25015
838.406	24951
838.544	24825
838.681	24665
838.819	24859
838.956	24323
839.094	24544
839.231	24639
839.369	24555
839.506	24867
839.643	24798
839.781	24395
839.918	24475
840.055	24448
840.193	24346
840.33	24483
840.467	24384
840.604	24433
840.742	24532
840.879	24254
841.016	24308
841.153	24262
841.29	24505
841.427	24311
841.564	24350
841.701	24429
841.838	24292
841.975	24262
842.112	24213
842.249	24106
842.385	24129
842.522	24266
842.659	24129
842.796	24026
842.933	23980
843.069	23961
843.206	23969
843.343	24064
843.479	23946
843.616	24022
843.752	23779
843.889	23798
844.025	23878
844.162	23908
844.298	23866
844.435	23828
844.571	23821
844.708	23935
844.844	23893
844.98	23897
845.117	23931
845.253	23733
845.389	23615
845.525	23589
845.661	23608
845.798	23459
845.934	23539
846.07	23436
846.206	23486
846.342	23562
846.478	23452
846.614	23334
846.75	23296
846.886	23273
847.022	23159
847.158	23242
847.294	23269
847.429	23155
847.565	23121
847.701	23436
847.837	22923
847.972	22919
848.108	23044
848.244	22957
848.379	22782
848.515	22782
848.65	22812
848.786	22672
848.921	22744
849.057	22862
849.192	22763
849.328	22721
849.463	22774
849.598	22630
849.734	22679
849.869	22660
850.004	22561
850.14	22470
850.275	22523
850.41	22421
850.545	22489
850.68	22379
850.815	22474
850.95	22474
851.085	22691
851.22	22512
851.355	22523
851.49	22531
851.625	22451
851.76	22440
851.895	22421
852.03	22409
852.165	22462
852.299	22580
852.434	22542
852.569	22649
852.703	22561
852.838	22474
852.973	22565
853.107	22637
853.242	22428
853.376	22291
853.511	22150
853.645	22223
853.78	22519
853.914	22402
854.048	22238
854.183	22242
854.317	22363
854.451	22497
854.585	22318
854.72	22280
854.854	22394
854.988	22238
855.122	22280
855.256	22200
855.39	22261
855.524	22196
855.658	22173
855.792	22318
855.926	22272
856.06	22344
856.194	22337
856.327	22257
856.461	22158
856.595	22230
856.729	22314
856.862	22329
856.996	22303
857.13	22322
857.263	22337
857.397	22485
857.53	22192
857.664	22303
857.797	22303
857.931	22363
858.064	22314
858.197	22371
858.331	22185
858.464	22067
858.597	22169
858.731	22234
858.864	22101
858.997	22162
859.13	22299
859.263	22196
859.396	22322
859.529	22310
859.662	22177
859.795	22196
859.928	22238
860.061	22356
860.194	22333
860.327	22371
860.46	22204
860.592	22363
860.725	22413
860.858	22344
860.99	22128
861.123	22177
861.256	22295
861.388	22185
861.521	23033
861.653	22147
861.786	22051
861.918	22021
862.05	22215
862.183	22246
862.315	22181
862.447	22360
862.58	22234
862.712	21953
862.844	21922
862.976	22124
863.108	22006
863.24	22493
863.372	21968
863.504	21819
863.636	21998
863.768	21987
863.9	21994
864.032	21854
864.164	21755
864.296	21915
864.428	21987
864.559	22029
864.691	21884
864.823	21880
864.954	21812
865.086	21899
865.217	21907
865.349	21793
865.48	21778
865.612	21762
865.743	21979
865.875	21831
866.006	21709
866.137	21869
866.269	21804
866.4	21857
866.531	21838
866.662	21694
866.793	21747
866.924	21667
867.055	21660
867.186	21656
867.317	21679
867.448	21561
867.579	21629
867.71	21656
867.841	21534
867.972	21724
868.103	21739
868.233	21656
868.364	21675
868.495	21747
868.625	21953
868.756	22139
868.886	21911
869.017	21991
869.147	22036
869.278	22105
869.408	21972
869.539	21949
869.669	21979
869.799	22010
869.929	22078
870.06	22105
870.19	22337
870.32	22265
870.45	22219
870.58	22314
870.71	22440
870.84	22466
870.97	22268
871.1	22268
871.23	22504
871.36	22573
871.489	22478
871.619	22500
871.749	22603
871.879	22531
872.008	22561
872.138	22462
872.267	22569
872.397	22474
872.526	22443
872.656	22318
872.785	22318
872.915	22580
873.044	22550
873.173	22546
873.303	22641
873.432	22641
873.561	22774
873.69	22557
873.819	22592
873.948	22721
874.077	22599
874.206	22485
874.335	22596
874.464	22672
874.593	22866
874.722	22782
874.851	22915
874.979	22816
875.108	22850
875.237	22691
875.365	22733
875.494	22782
875.623	22828
875.751	22687
875.88	22782
876.008	22873
876.136	22881
876.265	23109
876.393	23429
876.521	23200
876.65	23277
876.778	23132
876.906	23136
877.034	23071
877.162	23193
877.29	23102
877.418	23060
877.546	23075
877.674	23166
877.802	23147
877.93	23159
878.058	23060
878.185	23041
878.313	23079
878.441	23109
878.568	23029
878.696	23090
878.824	23189
878.951	23261
879.079	23315
879.206	23414
879.333	23326
879.461	23197
879.588	23303
879.715	23368
879.842	23372
879.97	23242
880.097	22961
880.224	23029
880.351	22885
880.478	22915
880.605	22942
880.732	22793
880.859	23174
880.986	22919
881.112	22984
881.239	22881
881.366	22702
881.493	22672
881.619	22478
881.746	22592
881.872	22523
881.999	22489
882.125	22478
882.252	22535
882.378	22535
882.505	22569
882.631	22363
882.757	22424
882.883	22413
883.01	22306
883.136	22181
883.262	22032
883.388	22048
883.514	22219
883.64	22280
883.766	22188
883.892	22059
884.018	22166
884.143	22063
884.269	22154
884.395	21945
884.52	21751
884.646	21865
884.772	21873
884.897	21766
885.023	21835
885.148	21911
885.274	22036
885.399	21953
885.524	21823
885.65	21842
885.775	21861
885.9	21781
886.025	21983
886.15	21880
886.275	21701
886.4	21732
886.525	21915
886.65	21869
886.775	21724
886.9	21895
887.025	22032
887.149	21800
887.274	21701
887.399	21614
887.523	21580
887.648	21348
887.773	21519
887.897	21751
888.021	21663
888.146	21447
888.27	21656
888.395	21682
888.519	21629
888.643	21614
888.767	21595
888.891	21538
889.015	21523
889.139	21466
889.263	21485
889.387	21439
889.511	21591
889.635	21557
889.759	21355
889.883	21291
890.006	21405
890.13	21557
890.254	21443
890.377	21199
890.501	21036
890.624	21066
890.748	21272
890.871	21081
890.995	20990
891.118	20948
891.241	21108
891.364	20963
891.488	21066
891.611	20963
891.734	21039
891.857	20910
891.98	20967
892.103	20956
892.226	20914
892.349	20933
892.471	20731
892.594	20838
892.717	20902
892.839	20762
892.962	20853
893.085	20948
893.207	20838
893.33	20750
893.452	20853
893.575	20910
893.697	20777
893.819	21047
893.941	20971
894.064	20937
894.186	20830
894.308	20853
894.43	20944
894.552	21028
894.674	20975
894.796	20716
894.918	20826
895.04	20811
895.161	20895
895.283	20853
895.405	20826
895.526	20864
895.648	20629
895.769	20762
895.891	20914
896.012	20937
896.134	20891
896.255	20868
896.376	20845
896.498	20910
896.619	20834
896.74	20941
896.861	20944
896.982	21207
897.103	21351
897.224	21169
897.345	21020
897.466	20929
897.587	21230
897.708	21135
897.828	21195
897.949	20975
898.07	20777
898.19	20952
898.311	21081
898.431	20986
898.552	21051
898.672	21001
898.792	20979
898.913	21001
899.033	20788
899.153	20743
899.273	20640
899.393	20663
899.513	20819
899.633	20731
899.753	20758
899.873	20632
899.993	20845
900.113	20697
900.232	20686
900.352	20735
900.472	20465
900.591	20488
900.711	20659
900.83	20488
900.95	20568
901.069	20587
901.189	20412
901.308	20168
901.427	20069
901.546	20039
901.665	20161
901.784	20214
901.904	19944
902.023	19750
902.141	19723
902.26	19712
902.379	19670
902.498	19514
902.617	19514
902.735	19457
902.854	19460
902.973	19441
903.091	19164
903.21	19148
903.328	19175
903.446	19118
903.565	19050
903.683	19023
903.801	18859
903.919	18939
904.038	18985
904.156	18779
904.274	18886
904.392	18856
904.51	18833
904.627	18768
904.745	18844
904.863	18897
904.981	18551
905.098	18467
905.216	18544
905.334	18479
905.451	18460
905.569	18426
905.686	18513
905.803	18448
905.921	18140
906.038	18422
906.155	18353
906.272	18194
906.389	18121
906.506	17931
906.623	18003
906.74	18026
906.857	17958
906.974	17832
907.091	18003
907.208	18155
907.324	17942
907.441	17798
907.557	17828
907.674	17680
907.79	17596
907.907	17634
908.023	17695
908.139	17668
908.256	17490
908.372	17604
908.488	17471
908.604	17425
908.72	17299
908.836	17391
908.952	17395
909.068	17318
909.184	17421
909.3	17345
909.415	17326
909.531	17269
909.647	17071
909.762	17090
909.878	17045
909.993	17155
910.108	16896
910.224	16946
910.339	17025
910.454	16904
910.57	16889
910.685	16713
910.8	17075
910.915	17079
911.03	16725
911.145	16645
911.259	16599
911.374	16664
911.489	16626
911.604	16558
911.718	16348
911.833	16272
911.947	16226
912.062	16101
912.176	16382
912.291	16341
912.405	16409
912.519	16618
912.633	16584
912.748	16322
912.862	16291
912.976	16093
913.09	16112
913.204	16135
913.318	16166
913.431	16257
913.545	16226
913.659	16139
913.772	16048
913.886	15956
914	15937
914.113	16082
914.226	16029
914.34	16097
914.453	15797
914.566	15994
914.68	15895
914.793	15903
914.906	15679
915.019	15564
915.132	15504
915.245	15542
915.358	15530
915.47	15599
915.583	15534
915.696	15504
915.809	15622
915.921	15694
916.034	15485
916.146	15447
916.259	15420
916.371	15542
916.483	15481
916.595	15344
916.708	15325
916.82	15378
916.932	15344
917.044	15283
917.156	15211
917.268	15169
917.38	15119
917.491	15112
917.603	15108
917.715	15199
917.826	15214
917.938	15104
918.049	14971
918.161	15081
918.272	15256
918.384	15241
918.495	15036
918.606	14956
918.717	14686
918.828	14864
918.939	14994
919.05	14834
919.161	14921
919.272	14689
919.383	14781
919.494	14921
919.604	15089
919.715	15005
919.826	14773
919.936	14929
920.047	14960
920.157	14887
920.267	15097
920.378	14895
920.488	14743
920.598	14990
920.708	15119
920.818	15032
920.928	14960
921.038	15081
921.148	15024
921.258	14712
921.368	14667
921.477	14629
921.587	14579
921.697	14514
921.806	14587
921.916	14381
922.025	14278
922.134	14221
922.244	14123
922.353	14252
922.462	14115
922.571	14031
922.68	13860
922.789	13917
922.898	13719
923.007	13822
923.116	13822
923.224	13852
923.333	13776
923.442	13647
923.55	13685
923.659	13666
923.767	13742
923.876	13620
923.984	13586
924.092	13521
924.201	13548
924.309	13670
924.417	13514
924.525	13430
924.633	13460
924.741	14259
924.849	13324
924.956	13411
925.064	13289
925.172	13198
925.279	13209
925.387	13232
925.494	13194
925.602	13327
925.709	13198
925.816	13171
925.924	13145
926.031	13206
926.138	13198
926.245	13160
926.352	13190
926.459	13160
926.566	13236
926.673	13069
926.779	13031
926.886	13031
926.993	12817
927.099	12768
927.206	12745
927.312	12715
927.419	12772
927.525	12764
927.631	12753
927.737	12578
927.843	12578
927.95	12521
928.056	12597
928.162	12563
928.267	12658
928.373	13297
928.479	12673
928.585	12388
928.69	12490
928.796	12578
928.901	12475
929.007	12346
929.112	12414
929.218	12490
929.323	12243
929.428	12270
929.533	12460
929.638	12159
929.743	12296
929.848	12247
929.953	12270
930.058	12182
930.163	11980
930.267	12003
930.372	12091
930.477	11961
930.581	12114
930.685	12079
930.79	11882
930.894	11836
930.998	11779
931.103	11939
931.207	11627
931.311	11581
931.415	11383
931.519	11231
931.623	11250
