Data from test_V78500241_3626.txt Node
Date: Fri Mar 25 16:06:55 CST 2022
User: usil
Spectrometer: V785-0024
Trigger mode: 0
Integration Time (sec): 4.000000E-1
Scans to average: 1
Nonlinearity correction enabled: false
Boxcar width: 0
Storing dark spectrum: false
XAxis mode: Wavelengths
Number of Pixels in Spectrum: 1024
>>>>>Begin Spectral Data<<<<<
801.071	28752
801.214	28698
801.356	28523
801.499	28352
801.641	28322
801.783	28436
801.926	28295
802.068	28322
802.211	28318
802.353	28238
802.496	28013
802.638	28032
802.78	28116
802.923	28051
803.065	27991
803.208	27960
803.35	28112
803.492	28314
803.635	28166
803.777	28025
803.919	28207
804.061	28607
804.204	28291
804.346	28299
804.488	28310
804.63	28303
804.773	28249
804.915	28261
805.057	28424
805.199	28401
805.341	28314
805.483	28421
805.626	28455
805.768	28344
805.91	28542
806.052	28436
806.194	28424
806.336	28683
806.478	28447
806.62	28478
806.762	28489
806.904	28862
807.046	28965
807.188	28862
807.33	28991
807.472	28881
807.614	28896
807.756	28801
807.898	28812
808.04	28702
808.182	28748
808.324	28816
808.465	28850
808.607	28888
808.749	29200
808.891	29216
809.033	29246
809.174	29166
809.316	29212
809.458	29086
809.6	29105
809.741	29239
809.883	29235
810.025	29436
810.166	29379
810.308	29482
810.45	29436
810.591	29463
810.733	29239
810.875	29018
811.016	29090
811.158	29079
811.299	29181
811.441	29326
811.582	29372
811.724	29006
811.865	29006
812.007	29197
812.148	29151
812.29	29231
812.431	29505
812.573	29558
812.714	29531
812.855	29657
812.997	29733
813.138	29824
813.279	29809
813.421	29653
813.562	29703
813.703	29539
813.845	29398
813.986	29071
814.127	28869
814.268	28873
814.41	28900
814.551	28778
814.692	28927
814.833	28683
814.974	28774
815.115	28839
815.256	28736
815.397	28843
815.539	28835
815.68	28672
815.821	28698
815.962	28687
816.103	28634
816.244	28432
816.385	28542
816.526	28455
816.666	28299
816.807	28204
816.948	28112
817.089	28375
817.23	28188
817.371	28040
817.512	28230
817.653	28268
817.793	28204
817.934	28025
818.075	28150
818.216	28268
818.356	28139
818.497	28093
818.638	27842
818.778	27941
818.919	27968
819.06	27941
819.2	28059
819.341	28226
819.481	28204
819.622	28325
819.762	28516
819.903	28413
820.043	28325
820.184	28249
820.324	28333
820.465	28481
820.605	28344
820.746	28322
820.886	28143
821.026	28367
821.167	28188
821.307	28337
821.447	28192
821.588	28287
821.728	28040
821.868	27918
822.008	27747
822.149	27770
822.289	27728
822.429	27424
822.569	27256
822.709	27408
822.849	27241
822.99	27112
823.13	27195
823.27	27150
823.41	27028
823.55	27032
823.69	27123
823.83	26925
823.97	26880
824.11	26857
824.25	26857
824.389	26750
824.529	26838
824.669	26769
824.809	26986
824.949	26880
825.089	26944
825.228	26899
825.368	26678
825.508	26735
825.648	26777
825.787	26975
825.927	26773
826.067	26743
826.206	26769
826.346	26743
826.485	26781
826.625	26853
826.765	26796
826.904	26708
827.044	26613
827.183	26613
827.323	26522
827.462	26434
827.601	26545
827.741	26400
827.88	26518
828.02	26332
828.159	26336
828.298	26526
828.437	26621
828.577	26358
828.716	26602
828.855	26317
828.994	26138
829.134	26278
829.273	26218
829.412	26046
829.551	26126
829.69	26176
829.829	26100
829.968	26176
830.107	26176
830.246	26180
830.385	26138
830.524	26035
830.663	25997
830.802	25814
830.941	25788
831.08	25727
831.219	25746
831.357	25811
831.496	25959
831.635	25769
831.774	25693
831.913	25666
832.051	25544
832.19	25537
832.329	25552
832.467	25377
832.606	25472
832.744	25365
832.883	25400
833.022	25396
833.16	25464
833.299	25419
833.437	25445
833.576	25647
833.714	25453
833.852	25518
833.991	25533
834.129	25590
834.267	25506
834.406	25476
834.544	25586
834.682	25529
834.821	25369
834.959	25765
835.097	25373
835.235	25571
835.373	25316
835.511	25529
835.65	25419
835.788	25350
835.926	25118
836.064	25190
836.202	25133
836.34	25282
836.478	25350
836.615	25259
836.753	25236
836.891	25438
837.029	25293
837.167	25168
837.305	25168
837.443	25194
837.58	25171
837.718	25156
837.856	25137
837.993	25076
838.131	25050
838.269	24962
838.406	25000
838.544	24981
838.681	24711
838.819	24654
838.956	24661
839.094	24620
839.231	24711
839.369	24791
839.506	24913
839.643	24833
839.781	24593
839.918	24544
840.055	24658
840.193	24502
840.33	24494
840.467	24521
840.604	24464
840.742	24772
840.879	24330
841.016	24399
841.153	24338
841.29	24536
841.427	24334
841.564	24620
841.701	24471
841.838	24437
841.975	24464
842.112	24350
842.249	24247
842.385	24197
842.522	24437
842.659	24292
842.796	24300
842.933	24216
843.069	24228
843.206	24114
843.343	24262
843.479	24136
843.616	24262
843.752	24030
843.889	24041
844.025	24186
844.162	24041
844.298	24167
844.435	23977
844.571	24034
844.708	24030
844.844	24121
844.98	24152
845.117	24098
845.253	23969
845.389	23885
845.525	23901
845.661	23904
845.798	23748
845.934	23840
846.07	23722
846.206	23752
846.342	23813
846.478	23722
846.614	23493
846.75	23402
846.886	23448
847.022	23474
847.158	23471
847.294	23376
847.429	23512
847.565	23429
847.701	23752
847.837	23197
847.972	23071
848.108	23315
848.244	23315
848.379	23048
848.515	23128
848.65	23090
848.786	23143
848.921	23014
849.057	23109
849.192	23121
849.328	23166
849.463	23178
849.598	22968
849.734	22976
849.869	23014
850.004	22733
850.14	22942
850.275	22900
850.41	22900
850.545	22706
850.68	22850
850.815	22892
850.95	22873
851.085	23041
851.22	22908
851.355	22740
851.49	22820
851.625	22828
851.76	22801
851.895	22850
852.03	22702
852.165	22820
852.299	22968
852.434	22809
852.569	22889
852.703	22885
852.838	22885
852.973	22972
853.107	23022
853.242	22740
853.376	22706
853.511	22531
853.645	22694
853.78	22672
853.914	22630
854.048	22565
854.183	22599
854.317	22637
854.451	22885
854.585	22786
854.72	22763
854.854	22812
854.988	22641
855.122	22573
855.256	22432
855.39	22634
855.524	22660
855.658	22698
855.792	22668
855.926	22569
856.06	22706
856.194	22694
856.327	22554
856.461	22577
856.595	22618
856.729	22622
856.862	22862
856.996	22672
857.13	22683
857.263	22744
857.397	22702
857.53	22694
857.664	22771
857.797	22752
857.931	22797
858.064	22706
858.197	22740
858.331	22679
858.464	22455
858.597	22557
858.731	22641
858.864	22717
858.997	22542
859.13	22622
859.263	22592
859.396	22573
859.529	22626
859.662	22702
859.795	22656
859.928	22645
860.061	22824
860.194	22843
860.327	22733
860.46	22641
860.592	22656
860.725	22835
860.858	22748
860.99	22573
861.123	22626
861.256	22580
861.388	22592
861.521	23372
861.653	22485
861.786	22466
861.918	22554
862.05	22615
862.183	22573
862.315	22462
862.447	22660
862.58	22516
862.712	22280
862.844	22295
862.976	22402
863.108	22329
863.24	22892
863.372	22341
863.504	22272
863.636	22375
863.768	22356
863.9	22379
864.032	22348
864.164	22246
864.296	22424
864.428	22470
864.559	22424
864.691	22402
864.823	22341
864.954	22413
865.086	22409
865.217	22265
865.349	22261
865.48	22086
865.612	22188
865.743	22249
865.875	22249
866.006	22242
866.137	22238
866.269	22120
866.4	22177
866.531	22200
866.662	22093
866.793	22173
866.924	22238
867.055	22242
867.186	22169
867.317	22059
867.448	22082
867.579	22242
867.71	22101
867.841	22173
867.972	22177
868.103	22109
868.233	22097
868.364	22185
868.495	22363
868.625	22325
868.756	22489
868.886	22295
869.017	22329
869.147	22462
869.278	22417
869.408	22428
869.539	22390
869.669	22497
869.799	22535
869.929	22325
870.06	22508
870.19	22923
870.32	22573
870.45	22835
870.58	22725
870.71	22991
870.84	22862
870.97	22790
871.1	22862
871.23	22911
871.36	22911
871.489	22976
871.619	23033
871.749	22938
871.879	23079
872.008	23064
872.138	22968
872.267	22877
872.397	22873
872.526	22968
872.656	22885
872.785	22831
872.915	23140
873.044	23162
873.173	22968
873.303	22976
873.432	23105
873.561	23048
873.69	23132
873.819	22946
873.948	22968
874.077	23014
874.206	22987
874.335	23181
874.464	23197
874.593	23174
874.722	23174
874.851	23292
874.979	23383
875.108	23246
875.237	23159
875.365	23124
875.494	23151
875.623	23216
875.751	23166
875.88	23296
876.008	23330
876.136	23414
876.265	23638
876.393	23665
876.521	23653
876.65	23707
876.778	23592
876.906	23596
877.034	23562
877.162	23611
877.29	23581
877.418	23543
877.546	23395
877.674	23589
877.802	23520
877.93	23486
878.058	23528
878.185	23417
878.313	23486
878.441	23478
878.568	23376
878.696	23543
878.824	23661
878.951	23680
879.079	23745
879.206	23726
879.333	23661
879.461	23748
879.588	23722
879.715	23779
879.842	23824
879.97	23741
880.097	23353
880.224	23436
880.351	23543
880.478	23505
880.605	23280
880.732	23372
880.859	23577
880.986	23330
881.112	23436
881.239	23239
881.366	23197
881.493	23124
881.619	22885
881.746	23006
881.872	22946
881.999	22919
882.125	22930
882.252	22885
882.378	22854
882.505	22991
882.631	22824
882.757	22622
882.883	22702
883.01	22561
883.136	22645
883.262	22447
883.388	22417
883.514	22645
883.64	22660
883.766	22542
883.892	22382
884.018	22462
884.143	22569
884.269	22550
884.395	22329
884.52	22249
884.646	22249
884.772	22169
884.897	22143
885.023	22181
885.148	22402
885.274	22428
885.399	22417
885.524	22310
885.65	22238
885.775	22246
885.9	22219
886.025	22341
886.15	22348
886.275	22158
886.4	22082
886.525	22219
886.65	22154
886.775	22166
886.9	22318
887.025	22466
887.149	22219
887.274	22029
887.399	21972
887.523	22105
887.648	22013
887.773	21949
887.897	22120
888.021	21937
888.146	21911
888.27	22177
888.395	22097
888.519	22032
888.643	21945
888.767	22074
888.891	21770
889.015	21869
889.139	21876
889.263	21774
889.387	21922
889.511	21964
889.635	21884
889.759	21770
889.883	21759
890.006	21854
890.13	21934
890.254	21766
890.377	21694
890.501	21496
890.624	21477
890.748	21545
890.871	21336
890.995	21348
891.118	21344
891.241	21428
891.364	21477
891.488	21500
891.611	21252
891.734	21351
891.857	21443
891.98	21359
892.103	21332
892.226	21329
892.349	21275
892.471	21039
892.594	21272
892.717	21188
892.839	21169
892.962	21218
893.085	21146
893.207	21157
893.33	21100
893.452	21055
893.575	21230
893.697	21241
893.819	21336
893.941	21351
894.064	21420
894.186	21214
894.308	21043
894.43	21264
894.552	21294
894.674	21344
894.796	21066
894.918	21161
895.04	21199
895.161	21169
895.283	21211
895.405	21199
895.526	21184
895.648	21150
895.769	21184
895.891	21237
896.012	21268
896.134	21302
896.255	21165
896.376	21176
896.498	21188
896.619	21249
896.74	21233
896.861	21135
896.982	21439
897.103	21580
897.224	21485
897.345	21393
897.466	21336
897.587	21363
897.708	21473
897.828	21466
897.949	21264
898.07	21298
898.19	21370
898.311	21443
898.431	21348
898.552	21458
898.672	21401
898.792	21393
898.913	21450
899.033	21272
899.153	21169
899.273	21157
899.393	21180
899.513	21222
899.633	21089
899.753	21089
899.873	21058
899.993	21218
900.113	21005
900.232	20982
900.352	21036
900.472	20990
900.591	20891
900.711	20925
900.83	20819
900.95	21017
901.069	20918
901.189	20785
901.308	20541
901.427	20396
901.546	20514
901.665	20465
901.784	20484
901.904	20309
902.023	20233
902.141	20065
902.26	20012
902.379	20054
902.498	19967
902.617	19963
902.735	19917
902.854	19947
902.973	19807
903.091	19761
903.21	19624
903.328	19624
903.446	19518
903.565	19582
903.683	19365
903.801	19350
903.919	19411
904.038	19365
904.156	19164
904.274	19343
904.392	19103
904.51	19084
904.627	19198
904.745	19179
904.863	19240
904.981	18932
905.098	18878
905.216	18738
905.334	18886
905.451	18844
905.569	18795
905.686	18909
905.803	18757
905.921	18730
906.038	18601
906.155	18536
906.272	18547
906.389	18483
906.506	18418
906.623	18410
906.74	18224
906.857	18201
906.974	18136
907.091	18422
907.208	18410
907.324	18330
907.441	18270
907.557	18064
907.674	18045
907.79	17988
907.907	17999
908.023	18041
908.139	17996
908.256	17950
908.372	17969
908.488	18038
908.604	17760
908.72	17878
908.836	17851
908.952	17805
909.068	17874
909.184	17832
909.3	17779
909.415	17733
909.531	17672
909.647	17570
909.762	17455
909.878	17474
909.993	17577
910.108	17493
910.224	17315
910.339	17421
910.454	17311
910.57	17277
910.685	17162
910.8	17474
910.915	17440
911.03	17189
911.145	17189
911.259	17052
911.374	17048
911.489	16980
911.604	16930
911.718	16771
911.833	16763
911.947	16702
912.062	16622
912.176	16778
912.291	16767
912.405	16801
912.519	16946
912.633	16942
912.748	16759
912.862	16656
912.976	16656
913.09	16516
913.204	16603
913.318	16592
913.431	16599
913.545	16687
913.659	16763
913.772	16538
913.886	16459
914	16455
914.113	16504
914.226	16500
914.34	16447
914.453	16223
914.566	16375
914.68	16306
914.793	16196
914.906	16048
915.019	15918
915.132	15873
915.245	15987
915.358	16013
915.47	15949
915.583	15953
915.696	16036
915.809	16158
915.921	16036
916.034	15835
916.146	15888
916.259	15968
916.371	15972
916.483	15930
916.595	15789
916.708	15857
916.82	15797
916.932	15751
917.044	15682
917.156	15713
917.268	15595
917.38	15580
917.491	15545
917.603	15614
917.715	15576
917.826	15720
917.938	15519
918.049	15439
918.161	15591
918.272	15633
918.384	15603
918.495	15492
918.606	15302
918.717	15241
918.828	15310
918.939	15401
919.05	15252
919.161	15294
919.272	15066
919.383	15127
919.494	15321
919.604	15386
919.715	15264
919.826	15199
919.936	15359
920.047	15408
920.157	15211
920.267	15435
920.378	15367
920.488	15264
920.598	15424
920.708	15618
920.818	15386
920.928	15344
921.038	15496
921.148	15481
921.258	15313
921.368	15138
921.477	14990
921.587	14994
921.697	14990
921.806	15013
921.916	14876
922.025	14693
922.134	14659
922.244	14613
922.353	14689
922.462	14541
922.571	14533
922.68	14332
922.789	14298
922.898	14298
923.007	14256
923.116	14454
923.224	14309
923.333	14153
923.442	14153
923.55	14031
923.659	14115
923.767	14103
923.876	13959
923.984	14126
924.092	13932
924.201	14012
924.309	13909
924.417	13944
924.525	13837
924.633	13940
924.741	14921
924.849	13765
924.956	13856
925.064	13674
925.172	13616
925.279	13658
925.387	13658
925.494	13693
925.602	13734
925.709	13616
925.816	13468
925.924	13514
926.031	13670
926.138	13537
926.245	13544
926.352	13457
926.459	13658
926.566	13548
926.673	13480
926.779	13422
926.886	13358
926.993	13206
927.099	13129
927.206	13065
927.312	13095
927.419	13110
927.525	13152
927.631	13175
927.737	13072
927.843	12920
927.95	12844
928.056	12962
928.162	12985
928.267	12993
928.373	13605
928.479	12985
928.585	12825
928.69	12966
928.796	13038
928.901	12875
929.007	12798
929.112	12814
929.218	12806
929.323	12684
929.428	12726
929.533	12779
929.638	12623
929.743	12612
929.848	12665
929.953	12639
930.058	12490
930.163	12399
930.267	12395
930.372	12525
930.477	12213
930.581	12509
930.685	12353
930.79	12262
930.894	12270
930.998	12243
931.103	12357
931.207	11923
931.311	11927
931.415	11779
931.519	11589
931.623	11471
