Data from test_V78500241_388.txt Node
Date: Fri Mar 25 15:44:29 CST 2022
User: usil
Spectrometer: V785-0024
Trigger mode: 0
Integration Time (sec): 4.000000E-1
Scans to average: 1
Nonlinearity correction enabled: false
Boxcar width: 0
Storing dark spectrum: false
XAxis mode: Wavelengths
Number of Pixels in Spectrum: 1024
>>>>>Begin Spectral Data<<<<<
801.071	29280
801.214	29471
801.356	29185
801.499	29113
801.641	28854
801.783	28934
801.926	28965
802.068	28915
802.211	28953
802.353	28759
802.496	28607
802.638	28622
802.78	28596
802.923	28531
803.065	28645
803.208	28493
803.35	28618
803.492	28710
803.635	28755
803.777	28736
803.919	28843
804.061	29041
804.204	28748
804.346	28755
804.488	28615
804.63	28790
804.773	28717
804.915	28835
805.057	28934
805.199	28725
805.341	28980
805.483	28888
805.626	28816
805.768	28755
805.91	28862
806.052	28930
806.194	28972
806.336	29128
806.478	29033
806.62	28847
806.762	29159
806.904	29242
807.046	29448
807.188	29356
807.33	29322
807.472	29463
807.614	29315
807.756	29284
807.898	29151
808.04	29140
808.182	29056
808.324	29208
808.465	29208
808.607	29444
808.749	29585
808.891	29649
809.033	29783
809.174	29589
809.316	29611
809.458	29703
809.6	29486
809.741	29885
809.883	29642
810.025	29817
810.166	29828
810.308	30003
810.45	29760
810.591	29882
810.733	29756
810.875	29638
811.016	29379
811.158	29505
811.299	29707
811.441	29775
811.582	29714
811.724	29436
811.865	29634
812.007	29566
812.148	29589
812.29	29592
812.431	29767
812.573	29916
812.714	29840
812.855	30121
812.997	30159
813.138	30407
813.279	30213
813.421	30114
813.562	30068
813.703	29973
813.845	29741
813.986	29535
814.127	29417
814.268	29250
814.41	29303
814.551	29197
814.692	29318
814.833	29261
814.974	29197
815.115	29128
815.256	29079
815.397	29132
815.539	29132
815.68	28965
815.821	28850
815.962	29037
816.103	29014
816.244	28923
816.385	28877
816.526	28809
816.666	28694
816.807	28417
816.948	28641
817.089	28782
817.23	28462
817.371	28481
817.512	28519
817.653	28447
817.793	28356
817.934	28474
818.075	28493
818.216	28489
818.356	28440
818.497	28360
818.638	28116
818.778	28173
818.919	28291
819.06	28363
819.2	28382
819.341	28489
819.481	28569
819.622	28489
819.762	28805
819.903	28592
820.043	28569
820.184	28615
820.324	28569
820.465	28569
820.605	28523
820.746	28557
820.886	28424
821.026	28596
821.167	28432
821.307	28584
821.447	28462
821.588	28371
821.728	28185
821.868	28017
822.008	27797
822.149	27998
822.289	27869
822.429	27580
822.569	27443
822.709	27587
822.849	27317
822.99	27439
823.13	27252
823.27	27256
823.41	27188
823.55	27146
823.69	27218
823.83	27222
823.97	27230
824.11	26925
824.25	26998
824.389	26960
824.529	27127
824.669	27017
824.809	27020
824.949	27066
825.089	27047
825.228	26975
825.368	26788
825.508	26929
825.648	26876
825.787	26918
825.927	26933
826.067	26948
826.206	26777
826.346	26823
826.485	26842
826.625	26910
826.765	26921
826.904	26727
827.044	26602
827.183	26689
827.323	26522
827.462	26655
827.601	26598
827.741	26503
827.88	26461
828.02	26427
828.159	26617
828.298	26526
828.437	26442
828.577	26347
828.716	26571
828.855	26511
828.994	26191
829.134	26328
829.273	26355
829.412	26164
829.551	26077
829.69	26043
829.829	26122
829.968	26324
830.107	26221
830.246	26054
830.385	26027
830.524	26225
830.663	26149
830.802	25906
830.941	25734
831.08	25776
831.219	25727
831.357	25814
831.496	26024
831.635	25776
831.774	25655
831.913	25662
832.051	25552
832.19	25525
832.329	25388
832.467	25487
832.606	25392
832.744	25464
832.883	25278
833.022	25339
833.16	25373
833.299	25331
833.437	25312
833.576	25464
833.714	25335
833.852	25525
833.991	25540
834.129	25613
834.267	25537
834.406	25434
834.544	25388
834.682	25537
834.821	25312
834.959	25563
835.097	25343
835.235	25483
835.373	25335
835.511	25457
835.65	25263
835.788	25175
835.926	25080
836.064	24954
836.202	25019
836.34	25217
836.478	25316
836.615	25213
836.753	25217
836.891	25274
837.029	25278
837.167	25137
837.305	25179
837.443	25114
837.58	25076
837.718	25148
837.856	25080
837.993	25057
838.131	24966
838.269	24878
838.406	24951
838.544	24886
838.681	24642
838.819	24730
838.956	24475
839.094	24502
839.231	24505
839.369	24817
839.506	25053
839.643	24661
839.781	24467
839.918	24422
840.055	24456
840.193	24574
840.33	24441
840.467	24399
840.604	24483
840.742	24681
840.879	24399
841.016	24350
841.153	24228
841.29	24433
841.427	24338
841.564	24380
841.701	24369
841.838	24228
841.975	24304
842.112	24304
842.249	24201
842.385	24098
842.522	24494
842.659	24095
842.796	23973
842.933	24053
843.069	24125
843.206	24060
843.343	24133
843.479	24174
843.616	24049
843.752	23904
843.889	23794
844.025	24030
844.162	23908
844.298	23927
844.435	23851
844.571	23722
844.708	23939
844.844	24022
844.98	23996
845.117	23965
845.253	23722
845.389	23798
845.525	23589
845.661	23714
845.798	23600
845.934	23630
846.07	23471
846.206	23596
846.342	23596
846.478	23570
846.614	23334
846.75	23242
846.886	23197
847.022	23509
847.158	23444
847.294	23265
847.429	23410
847.565	23223
847.701	23520
847.837	23022
847.972	22991
848.108	22984
848.244	23010
848.379	22892
848.515	22900
848.65	22866
848.786	22854
848.921	22828
849.057	22919
849.192	22938
849.328	22820
849.463	22850
849.598	22786
849.734	22706
849.869	22565
850.004	22645
850.14	22637
850.275	22527
850.41	22557
850.545	22462
850.68	22675
850.815	22596
850.95	22485
851.085	22793
851.22	22767
851.355	22615
851.49	22557
851.625	22596
851.76	22573
851.895	22531
852.03	22516
852.165	22580
852.299	22740
852.434	22596
852.569	22554
852.703	22584
852.838	22637
852.973	22771
853.107	22649
853.242	22470
853.376	22561
853.511	22242
853.645	22310
853.78	22478
853.914	22375
854.048	22443
854.183	22314
854.317	22367
854.451	22618
854.585	22470
854.72	22360
854.854	22371
854.988	22291
855.122	22398
855.256	22192
855.39	22470
855.524	22493
855.658	22424
855.792	22466
855.926	22466
856.06	22424
856.194	22447
856.327	22310
856.461	22295
856.595	22280
856.729	22268
856.862	22508
856.996	22523
857.13	22443
857.263	22462
857.397	22531
857.53	22382
857.664	22421
857.797	22497
857.931	22531
858.064	22382
858.197	22356
858.331	22344
858.464	22424
858.597	22325
858.731	22413
858.864	22413
858.997	22428
859.13	22466
859.263	22329
859.396	22489
859.529	22352
859.662	22337
859.795	22443
859.928	22398
860.061	22508
860.194	22478
860.327	22363
860.46	22394
860.592	22478
860.725	22470
860.858	22497
860.99	22291
861.123	22314
861.256	22318
861.388	22337
861.521	23121
861.653	22249
861.786	22131
861.918	22211
862.05	22306
862.183	22394
862.315	22356
862.447	22481
862.58	22257
862.712	22067
862.844	21998
862.976	22196
863.108	22188
863.24	22542
863.372	22093
863.504	22040
863.636	22021
863.768	22078
863.9	22021
864.032	21915
864.164	22032
864.296	22101
864.428	22128
864.559	22139
864.691	22063
864.823	22090
864.954	22051
865.086	22048
865.217	21865
865.349	21759
865.48	22021
865.612	22078
865.743	22086
865.875	21937
866.006	21915
866.137	21903
866.269	21968
866.4	21880
866.531	21823
866.662	21876
866.793	21926
866.924	21857
867.055	21983
867.186	21892
867.317	21930
867.448	21892
867.579	21869
867.71	21857
867.841	21812
867.972	21785
868.103	21785
868.233	21869
868.364	21846
868.495	21998
868.625	22021
868.756	22158
868.886	21987
869.017	22166
869.147	22162
869.278	22177
869.408	22082
869.539	22109
869.669	22143
869.799	22139
869.929	22223
870.06	22226
870.19	22348
870.32	22402
870.45	22424
870.58	22504
870.71	22599
870.84	22577
870.97	22462
871.1	22497
871.23	22698
871.36	22748
871.489	22516
871.619	22569
871.749	22546
871.879	22717
872.008	22763
872.138	22653
872.267	22679
872.397	22615
872.526	22557
872.656	22485
872.785	22382
872.915	22721
873.044	22759
873.173	22717
873.303	22816
873.432	22717
873.561	22759
873.69	22698
873.819	22626
873.948	22774
874.077	22615
874.206	22557
874.335	22744
874.464	22755
874.593	22934
874.722	22915
874.851	22972
874.979	23003
875.108	22923
875.237	22839
875.365	22835
875.494	23025
875.623	22911
875.751	22847
875.88	22934
876.008	23105
876.136	23140
876.265	23223
876.393	23493
876.521	23330
876.65	23349
876.778	23345
876.906	23204
877.034	23140
877.162	23254
877.29	23242
877.418	23254
877.546	23258
877.674	23250
877.802	23307
877.93	23368
878.058	23181
878.185	23178
878.313	23174
878.441	23246
878.568	23124
878.696	23193
878.824	23181
878.951	23436
879.079	23337
879.206	23482
879.333	23345
879.461	23326
879.588	23376
879.715	23364
879.842	23528
879.97	23379
880.097	23117
880.224	23140
880.351	23075
880.478	23037
880.605	23067
880.732	22923
880.859	23185
880.986	23044
881.112	23090
881.239	22892
881.366	22839
881.493	22729
881.619	22717
881.746	22733
881.872	22679
881.999	22664
882.125	22588
882.252	22660
882.378	22577
882.505	22778
882.631	22478
882.757	22352
882.883	22478
883.01	22242
883.136	22379
883.262	22185
883.388	22029
883.514	22367
883.64	22379
883.766	22211
883.892	22109
884.018	22162
884.143	22276
884.269	22337
884.395	22048
884.52	21918
884.646	22040
884.772	21907
884.897	21713
885.023	21998
885.148	21953
885.274	22150
885.399	22090
885.524	21949
885.65	22036
885.775	21987
885.9	21888
886.025	22067
886.15	21994
886.275	21926
886.4	21865
886.525	21880
886.65	21869
886.775	21934
886.9	22131
887.025	22036
887.149	22006
887.274	21610
887.399	21736
887.523	21717
887.648	21561
887.773	21637
887.897	21869
888.021	21660
888.146	21644
888.27	21751
888.395	21880
888.519	21759
888.643	21625
888.767	21774
888.891	21587
889.015	21469
889.139	21545
889.263	21473
889.387	21431
889.511	21614
889.635	21629
889.759	21538
889.883	21378
890.006	21511
890.13	21542
890.254	21302
890.377	21374
890.501	21260
890.624	21146
890.748	21344
890.871	21127
890.995	21066
891.118	20956
891.241	21100
891.364	21123
891.488	21165
891.611	21089
891.734	21062
891.857	21119
891.98	21013
892.103	21093
892.226	20963
892.349	20937
892.471	20708
892.594	20941
892.717	21017
892.839	20902
892.962	21043
893.085	21005
893.207	20967
893.33	20689
893.452	21013
893.575	21066
893.697	20746
893.819	20982
893.941	21157
894.064	21226
894.186	20864
894.308	20853
894.43	21020
894.552	21116
894.674	20963
894.796	20727
894.918	20811
895.04	20845
895.161	20998
895.283	21032
895.405	20914
895.526	20960
895.648	20918
895.769	20948
895.891	20777
896.012	21005
896.134	21066
896.255	20914
896.376	20857
896.498	20853
896.619	20944
896.74	20960
896.861	20971
896.982	21317
897.103	21439
897.224	21169
897.345	21142
897.466	21131
897.587	21180
897.708	21241
897.828	21275
897.949	20986
898.07	20967
898.19	21127
898.311	21211
898.431	21100
898.552	21127
898.672	21207
898.792	21241
898.913	21043
899.033	21055
899.153	20941
899.273	20857
899.393	20876
899.513	20834
899.633	20876
899.753	20914
899.873	20674
899.993	20864
900.113	20765
900.232	20815
900.352	20796
900.472	20617
900.591	20545
900.711	20659
900.83	20594
900.95	20788
901.069	20655
901.189	20507
901.308	20358
901.427	20320
901.546	20183
901.665	20138
901.784	20256
901.904	19963
902.023	19890
902.141	19765
902.26	19715
902.379	19761
902.498	19651
902.617	19708
902.735	19700
902.854	19693
902.973	19655
903.091	19362
903.21	19354
903.328	19422
903.446	19263
903.565	19206
903.683	19091
903.801	19095
903.919	19088
904.038	19023
904.156	18951
904.274	18905
904.392	18795
904.51	18905
904.627	18954
904.745	18947
904.863	18890
904.981	18661
905.098	18582
905.216	18513
905.334	18536
905.451	18616
905.569	18521
905.686	18604
905.803	18460
905.921	18410
906.038	18365
906.155	18247
906.272	18254
906.389	18270
906.506	18064
906.623	18110
906.74	18057
906.857	17908
906.974	17893
907.091	18060
907.208	18194
907.324	18159
907.441	17958
907.557	17802
907.674	17745
907.79	17733
907.907	17802
908.023	17726
908.139	17802
908.256	17611
908.372	17577
908.488	17649
908.604	17585
908.72	17421
908.836	17524
908.952	17296
909.068	17554
909.184	17604
909.3	17547
909.415	17433
909.531	17474
909.647	17185
909.762	17162
909.878	17045
909.993	17105
910.108	17056
910.224	17147
910.339	17124
910.454	16953
910.57	16965
910.685	16786
910.8	17056
910.915	17045
911.03	16968
911.145	16683
911.259	16710
911.374	16767
911.489	16679
911.604	16592
911.718	16466
911.833	16512
911.947	16356
912.062	16367
912.176	16561
912.291	16478
912.405	16421
912.519	16660
912.633	16687
912.748	16459
912.862	16413
912.976	16181
913.09	16147
913.204	16223
913.318	16352
913.431	16348
913.545	16234
913.659	16310
913.772	16299
913.886	16074
914	15964
914.113	16067
914.226	16272
914.34	16211
914.453	15941
914.566	16090
914.68	15987
914.793	15930
914.906	15747
915.019	15625
915.132	15660
915.245	15637
915.358	15652
915.47	15724
915.583	15599
915.696	15648
915.809	15736
915.921	15728
916.034	15614
916.146	15587
916.259	15515
916.371	15606
916.483	15667
916.595	15511
916.708	15481
916.82	15428
916.932	15424
917.044	15443
917.156	15443
917.268	15279
917.38	15340
917.491	15222
917.603	15313
917.715	15332
917.826	15431
917.938	15203
918.049	15180
918.161	15218
918.272	15416
918.384	15268
918.495	15241
918.606	15058
918.717	15005
918.828	15058
918.939	15055
919.05	15020
919.161	14960
919.272	14773
919.383	14925
919.494	14994
919.604	15241
919.715	15028
919.826	14895
919.936	14956
920.047	15013
920.157	14975
920.267	15119
920.378	15013
920.488	14902
920.598	15077
920.708	15241
920.818	15077
920.928	15089
921.038	15233
921.148	15195
921.258	14925
921.368	14765
921.477	14560
921.587	14655
921.697	14587
921.806	14663
921.916	14537
922.025	14412
922.134	14233
922.244	14252
922.353	14259
922.462	14252
922.571	14119
922.68	13989
922.789	14005
922.898	13978
923.007	13909
923.116	13936
923.224	13852
923.333	13875
923.442	13807
923.55	13693
923.659	13761
923.767	13868
923.876	13727
923.984	13704
924.092	13696
924.201	13658
924.309	13662
924.417	13651
924.525	13590
924.633	13632
924.741	14613
924.849	13373
924.956	13480
925.064	13320
925.172	13282
925.279	13377
925.387	13339
925.494	13270
925.602	13460
925.709	13377
925.816	13137
925.924	13304
926.031	13304
926.138	13240
926.245	13365
926.352	13171
926.459	13297
926.566	13327
926.673	13236
926.779	13069
926.886	13141
926.993	12894
927.099	12882
927.206	12916
927.312	12833
927.419	13000
927.525	12848
927.631	12958
927.737	12776
927.843	12795
927.95	12578
928.056	12711
928.162	12639
928.267	12821
928.373	13358
928.479	12802
928.585	12528
928.69	12646
928.796	12681
928.901	12563
929.007	12414
929.112	12513
929.218	12483
929.323	12388
929.428	12407
929.533	12544
929.638	12304
929.743	12414
929.848	12376
929.953	12346
930.058	12205
930.163	12152
930.267	12083
930.372	12289
930.477	11973
930.581	12380
930.685	12091
930.79	11923
930.894	11954
930.998	11878
931.103	12045
931.207	11615
931.311	11646
931.415	11543
931.519	11395
931.623	11315
