Data from test_V78500241_342.txt Node
Date: Fri Mar 25 15:44:10 CST 2022
User: usil
Spectrometer: V785-0024
Trigger mode: 0
Integration Time (sec): 4.000000E-1
Scans to average: 1
Nonlinearity correction enabled: false
Boxcar width: 0
Storing dark spectrum: false
XAxis mode: Wavelengths
Number of Pixels in Spectrum: 1024
>>>>>Begin Spectral Data<<<<<
801.071	29764
801.214	29859
801.356	29497
801.499	29493
801.641	29383
801.783	29425
801.926	29482
802.068	29433
802.211	29239
802.353	29239
802.496	29090
802.638	29098
802.78	28888
802.923	29193
803.065	28976
803.208	29128
803.35	29197
803.492	29147
803.635	29204
803.777	29200
803.919	29417
804.061	29360
804.204	29280
804.346	29246
804.488	29166
804.63	29474
804.773	29227
804.915	29216
805.057	29387
805.199	29280
805.341	29467
805.483	29410
805.626	29242
805.768	29414
805.91	29356
806.052	29429
806.194	29425
806.336	29646
806.478	29455
806.62	29634
806.762	29547
806.904	29722
807.046	29969
807.188	29836
807.33	29843
807.472	29912
807.614	29718
807.756	29733
807.898	29608
808.04	29623
808.182	29642
808.324	29764
808.465	29627
808.607	29935
808.749	30133
808.891	30216
809.033	30087
809.174	30015
809.316	30155
809.458	30178
809.6	30121
809.741	30186
809.883	30148
810.025	30391
810.166	30391
810.308	30433
810.45	30228
810.591	30308
810.733	30197
810.875	30125
811.016	30041
811.158	30038
811.299	30209
811.441	30407
811.582	30190
811.724	29999
811.865	30125
812.007	30129
812.148	30098
812.29	30247
812.431	30300
812.573	30437
812.714	30547
812.855	30612
812.997	30859
813.138	30760
813.279	30757
813.421	30669
813.562	30574
813.703	30426
813.845	30407
813.986	30045
814.127	29939
814.268	29672
814.41	29745
814.551	29836
814.692	29912
814.833	29718
814.974	29718
815.115	29779
815.256	29684
815.397	29562
815.539	29627
815.68	29490
815.821	29452
815.962	29452
816.103	29474
816.244	29433
816.385	29284
816.526	29220
816.666	29121
816.807	29056
816.948	29018
817.089	29071
817.23	29010
817.371	28991
817.512	28927
817.653	28961
817.793	28980
817.934	28953
818.075	28961
818.216	29090
818.356	28953
818.497	28965
818.638	28672
818.778	28744
818.919	28744
819.06	28911
819.2	28812
819.341	28881
819.481	28767
819.622	29121
819.762	29155
819.903	29387
820.043	29269
820.184	29159
820.324	29102
820.465	29109
820.605	29083
820.746	28995
820.886	29064
821.026	29102
821.167	28923
821.307	28987
821.447	28873
821.588	28927
821.728	28649
821.868	28443
822.008	28325
822.149	28367
822.289	28306
822.429	28162
822.569	28147
822.709	28070
822.849	28029
822.99	27968
823.13	27899
823.27	27774
823.41	27774
823.55	27595
823.69	27720
823.83	27595
823.97	27618
824.11	27507
824.25	27519
824.389	27606
824.529	27603
824.669	27507
824.809	27599
824.949	27686
825.089	27572
825.228	27564
825.368	27393
825.508	27408
825.648	27405
825.787	27378
825.927	27424
826.067	27298
826.206	27435
826.346	27367
826.485	27401
826.625	27279
826.765	27344
826.904	27344
827.044	27112
827.183	27055
827.323	27043
827.462	27032
827.601	27066
827.741	27009
827.88	27081
828.02	26937
828.159	27089
828.298	27116
828.437	27009
828.577	27077
828.716	27116
828.855	27020
828.994	26796
829.134	26864
829.273	26697
829.412	26465
829.551	26746
829.69	26575
829.829	26731
829.968	26697
830.107	26800
830.246	26762
830.385	26708
830.524	26571
830.663	26541
830.802	26271
830.941	26267
831.08	26476
831.219	26461
831.357	26404
831.496	26400
831.635	26358
831.774	26237
831.913	26206
832.051	26103
832.19	26039
832.329	26081
832.467	26046
832.606	26035
832.744	25951
832.883	25997
833.022	25986
833.16	26027
833.299	26122
833.437	25966
833.576	25936
833.714	25936
833.852	26088
833.991	26119
834.129	26065
834.267	26046
834.406	25925
834.544	25890
834.682	25986
834.821	25871
834.959	26149
835.097	25898
835.235	25993
835.373	25791
835.511	25890
835.65	25712
835.788	25826
835.926	25651
836.064	25670
836.202	25666
836.34	25761
836.478	25936
836.615	25681
836.753	25662
836.891	25932
837.029	25594
837.167	25723
837.305	25655
837.443	25708
837.58	25647
837.718	25742
837.856	25655
837.993	25529
838.131	25544
838.269	25468
838.406	25445
838.544	25308
838.681	25190
838.819	25175
838.956	24935
839.094	25019
839.231	25110
839.369	25129
839.506	25472
839.643	25259
839.781	25061
839.918	24795
840.055	25076
840.193	24973
840.33	25008
840.467	25012
840.604	25008
840.742	25114
840.879	24654
841.016	24913
841.153	24783
841.29	25008
841.427	24825
841.564	24996
841.701	24852
841.838	24848
841.975	24791
842.112	24764
842.249	24749
842.385	24665
842.522	24905
842.659	24669
842.796	24582
842.933	24715
843.069	24483
843.206	24547
843.343	24692
843.479	24585
843.616	24616
843.752	24319
843.889	24471
844.025	24521
844.162	24334
844.298	24429
844.435	24380
844.571	24422
844.708	24342
844.844	24407
844.98	24460
845.117	24357
845.253	24140
845.389	24155
845.525	24159
845.661	24102
845.798	24041
845.934	24133
846.07	24030
846.206	23992
846.342	24136
846.478	24057
846.614	23775
846.75	23665
846.886	23794
847.022	23786
847.158	23737
847.294	23767
847.429	23672
847.565	23809
847.701	23969
847.837	23452
847.972	23383
848.108	23528
848.244	23463
848.379	23402
848.515	23315
848.65	23216
848.786	23277
848.921	23349
849.057	23391
849.192	23444
849.328	23383
849.463	23296
849.598	23258
849.734	23197
849.869	23178
850.004	23109
850.14	23136
850.275	23102
850.41	23060
850.545	22908
850.68	23052
850.815	23124
850.95	23044
851.085	23170
851.22	23200
851.355	23128
851.49	23003
851.625	22972
851.76	23090
851.895	23014
852.03	23014
852.165	22991
852.299	23086
852.434	23193
852.569	23022
852.703	23155
852.838	23025
852.973	23124
853.107	23189
853.242	22972
853.376	22915
853.511	22809
853.645	22831
853.78	22923
853.914	22847
854.048	22816
854.183	22759
854.317	22885
854.451	23094
854.585	22793
854.72	22801
854.854	22877
854.988	22611
855.122	22843
855.256	22733
855.39	22816
855.524	22877
855.658	22934
855.792	22797
855.926	22873
856.06	22782
856.194	22881
856.327	22759
856.461	22938
856.595	22725
856.729	22778
856.862	22930
856.996	22797
857.13	22965
857.263	23003
857.397	22942
857.53	22782
857.664	22801
857.797	23006
857.931	22889
858.064	22850
858.197	23048
858.331	22790
858.464	22774
858.597	22694
858.731	22691
858.864	22763
858.997	22683
859.13	22774
859.263	22885
859.396	22953
859.529	22835
859.662	22782
859.795	22725
859.928	22763
860.061	23010
860.194	22904
860.327	22995
860.46	22790
860.592	22831
860.725	22961
860.858	22869
860.99	22824
861.123	22649
861.256	22664
861.388	22725
861.521	23516
861.653	22653
861.786	22687
861.918	22656
862.05	22626
862.183	22858
862.315	22816
862.447	22793
862.58	22710
862.712	22500
862.844	22516
862.976	22607
863.108	22561
863.24	22793
863.372	22363
863.504	22443
863.636	22542
863.768	22618
863.9	22497
864.032	22379
864.164	22470
864.296	22580
864.428	22664
864.559	22443
864.691	22637
864.823	22390
864.954	22523
865.086	22478
865.217	22432
865.349	22219
865.48	22363
865.612	22363
865.743	22500
865.875	22390
866.006	22306
866.137	22489
866.269	22310
866.4	22318
866.531	22219
866.662	22242
866.793	22124
866.924	22306
867.055	22295
867.186	22280
867.317	22188
867.448	22177
867.579	22196
867.71	22242
867.841	22185
867.972	22223
868.103	22192
868.233	22230
868.364	22249
868.495	22386
868.625	22443
868.756	22588
868.886	22363
869.017	22596
869.147	22637
869.278	22546
869.408	22637
869.539	22535
869.669	22565
869.799	22508
869.929	22691
870.06	22622
870.19	22752
870.32	22744
870.45	22793
870.58	22866
870.71	22980
870.84	22927
870.97	22786
871.1	22748
871.23	22965
871.36	23102
871.489	22938
871.619	23071
871.749	22923
871.879	23208
872.008	23239
872.138	23075
872.267	23174
872.397	22942
872.526	22812
872.656	22965
872.785	22965
872.915	23113
873.044	23067
873.173	23136
873.303	23231
873.432	23166
873.561	23197
873.69	23121
873.819	23098
873.948	23200
874.077	23056
874.206	23044
874.335	23098
874.464	23299
874.593	23337
874.722	23212
874.851	23395
874.979	23250
875.108	23372
875.237	23311
875.365	23204
875.494	23265
875.623	23356
875.751	23227
875.88	23345
876.008	23471
876.136	23539
876.265	23790
876.393	23726
876.521	23817
876.65	23687
876.778	23718
876.906	23543
877.034	23570
877.162	23642
877.29	23554
877.418	23687
877.546	23722
877.674	23657
877.802	23627
877.93	23771
878.058	23577
878.185	23551
878.313	23668
878.441	23581
878.568	23474
878.696	23391
878.824	23783
878.951	23802
879.079	23741
879.206	23885
879.333	23649
879.461	23752
879.588	23741
879.715	23779
879.842	23889
879.97	23752
880.097	23421
880.224	23501
880.351	23558
880.478	23493
880.605	23349
880.732	23547
880.859	23668
880.986	23429
881.112	23543
881.239	23326
881.366	23181
881.493	23102
881.619	23060
881.746	23128
881.872	23117
881.999	23064
882.125	22900
882.252	23056
882.378	23010
882.505	23246
882.631	22896
882.757	22755
882.883	22782
883.01	22755
883.136	22786
883.262	22641
883.388	22660
883.514	22683
883.64	22805
883.766	22565
883.892	22577
884.018	22512
884.143	22694
884.269	22828
884.395	22474
884.52	22394
884.646	22272
884.772	22333
884.897	22310
885.023	22303
885.148	22573
885.274	22447
885.399	22325
885.524	22352
885.65	22398
885.775	22333
885.9	22360
886.025	22413
886.15	22287
886.275	22306
886.4	22120
886.525	22257
886.65	22177
886.775	22158
886.9	22337
887.025	22500
887.149	22318
887.274	22048
887.399	22162
887.523	22166
887.648	22021
887.773	21968
887.897	22078
888.021	22055
888.146	22044
888.27	22314
888.395	22067
888.519	22082
888.643	22097
888.767	22032
888.891	21960
889.015	21759
889.139	21960
889.263	21873
889.387	22013
889.511	22154
889.635	21918
889.759	21770
889.883	21789
890.006	21827
890.13	21846
890.254	21694
890.377	21610
890.501	21572
890.624	21466
890.748	21648
890.871	21458
890.995	21473
891.118	21454
891.241	21359
891.364	21485
891.488	21424
891.611	21458
891.734	21408
891.857	21511
891.98	21355
892.103	21397
892.226	21355
892.349	21321
892.471	21214
892.594	21306
892.717	21256
892.839	21222
892.962	21310
893.085	21408
893.207	21275
893.33	21272
893.452	21173
893.575	21408
893.697	21302
893.819	21462
893.941	21488
894.064	21298
894.186	21180
894.308	21203
894.43	21408
894.552	21412
894.674	21389
894.796	21161
894.918	21302
895.04	21222
895.161	21325
895.283	21294
895.405	21268
895.526	21268
895.648	21279
895.769	21393
895.891	21332
896.012	21310
896.134	21336
896.255	21207
896.376	21405
896.498	21336
896.619	21336
896.74	21310
896.861	21477
896.982	21709
897.103	21854
897.224	21557
897.345	21454
897.466	21382
897.587	21553
897.708	21572
897.828	21469
897.949	21443
898.07	21199
898.19	21424
898.311	21595
898.431	21447
898.552	21450
898.672	21542
898.792	21466
898.913	21481
899.033	21306
899.153	21112
899.273	21089
899.393	21096
899.513	21291
899.633	21081
899.753	21154
899.873	21150
899.993	21233
900.113	21009
900.232	21135
900.352	21081
900.472	20899
900.591	20929
900.711	20979
900.83	20948
900.95	21066
901.069	21077
901.189	20921
901.308	20606
901.427	20594
901.546	20488
901.665	20499
901.784	20484
901.904	20393
902.023	20252
902.141	20050
902.26	19978
902.379	19982
902.498	19997
902.617	20008
902.735	19944
902.854	20084
902.973	19909
903.091	19704
903.21	19643
903.328	19685
903.446	19537
903.565	19480
903.683	19518
903.801	19289
903.919	19320
904.038	19327
904.156	19168
904.274	19255
904.392	19171
904.51	19164
904.627	19198
904.745	19228
904.863	19331
904.981	19000
905.098	18821
905.216	18878
905.334	18993
905.451	18852
905.569	18764
905.686	18852
905.803	18894
905.921	18745
906.038	18658
906.155	18513
906.272	18540
906.389	18620
906.506	18429
906.623	18369
906.74	18251
906.857	18251
906.974	18308
907.091	18334
907.208	18464
907.324	18342
907.441	18232
907.557	18095
907.674	18060
907.79	18106
907.907	17942
908.023	17988
908.139	18087
908.256	17965
908.372	18049
908.488	17843
908.604	17684
908.72	17695
908.836	17642
908.952	17729
909.068	17878
909.184	17840
909.3	17718
909.415	17741
909.531	17771
909.647	17520
909.762	17444
909.878	17436
909.993	17497
910.108	17452
910.224	17356
910.339	17330
910.454	17376
910.57	17231
910.685	17124
910.8	17425
910.915	17296
911.03	17132
911.145	17052
911.259	17048
911.374	17056
911.489	17014
911.604	16828
911.718	16733
911.833	16698
911.947	16679
912.062	16607
912.176	16748
912.291	16812
912.405	16752
912.519	16965
912.633	16881
912.748	16774
912.862	16630
912.976	16535
913.09	16451
913.204	16436
913.318	16531
913.431	16679
913.545	16645
913.659	16577
913.772	16485
913.886	16325
914	16253
914.113	16428
914.226	16558
914.34	16417
914.453	16116
914.566	16382
914.68	16177
914.793	16196
914.906	15899
915.019	15941
915.132	15865
915.245	15827
915.358	15937
915.47	15857
915.583	15876
915.696	15979
915.809	15934
915.921	15964
916.034	15759
916.146	15739
916.259	15857
916.371	15785
916.483	15812
916.595	15759
916.708	15701
916.82	15728
916.932	15766
917.044	15599
917.156	15580
917.268	15557
917.38	15545
917.491	15500
917.603	15564
917.715	15572
917.826	15580
917.938	15507
918.049	15294
918.161	15450
918.272	15549
918.384	15637
918.495	15477
918.606	15291
918.717	15165
918.828	15351
918.939	15245
919.05	15192
919.161	15272
919.272	14929
919.383	15089
919.494	15222
919.604	15443
919.715	15245
919.826	15123
919.936	15154
920.047	15317
920.157	15135
920.267	15405
920.378	15138
920.488	15184
920.598	15382
920.708	15507
920.818	15408
920.928	15389
921.038	15477
921.148	15389
921.258	15161
921.368	14986
921.477	14906
921.587	14929
921.697	14838
921.806	14963
921.916	14758
922.025	14583
922.134	14522
922.244	14431
922.353	14606
922.462	14442
922.571	14320
922.68	14225
922.789	14088
922.898	14202
923.007	14161
923.116	14210
923.224	14081
923.333	14134
923.442	13982
923.55	13974
923.659	13955
923.767	13970
923.876	13849
923.984	14031
924.092	13967
924.201	13921
924.309	13864
924.417	13875
924.525	13803
924.633	13734
924.741	14602
924.849	13624
924.956	13620
925.064	13483
925.172	13552
925.279	13586
925.387	13624
925.494	13586
925.602	13655
925.709	13567
925.816	13495
925.924	13537
926.031	13586
926.138	13441
926.245	13529
926.352	13407
926.459	13495
926.566	13559
926.673	13506
926.779	13297
926.886	13312
926.993	13133
927.099	13175
927.206	13046
927.312	12989
927.419	13038
927.525	13118
927.631	13149
927.737	13038
927.843	12920
927.95	12806
928.056	12928
928.162	12939
928.267	12916
928.373	13491
928.479	13031
928.585	12711
928.69	12909
928.796	12848
928.901	12783
929.007	12532
929.112	12757
929.218	12681
929.323	12639
929.428	12578
929.533	12734
929.638	12563
929.743	12540
929.848	12616
929.953	12582
930.058	12456
930.163	12243
930.267	12281
930.372	12502
930.477	12243
930.581	12429
930.685	12285
930.79	12140
930.894	12175
930.998	12041
931.103	12266
931.207	11923
931.311	11779
931.415	11722
931.519	11570
931.623	11486
