Data from test_V78500241_1427.txt Node
Date: Fri Mar 25 15:51:41 CST 2022
User: usil
Spectrometer: V785-0024
Trigger mode: 0
Integration Time (sec): 4.000000E-1
Scans to average: 1
Nonlinearity correction enabled: false
Boxcar width: 0
Storing dark spectrum: false
XAxis mode: Wavelengths
Number of Pixels in Spectrum: 1024
>>>>>Begin Spectral Data<<<<<
801.071	28272
801.214	28280
801.356	28173
801.499	28147
801.641	27888
801.783	27922
801.926	27972
802.068	27778
802.211	27914
802.353	27690
802.496	27690
802.638	27477
802.78	27568
802.923	27477
803.065	27469
803.208	27572
803.35	27728
803.492	27694
803.635	27827
803.777	27800
803.919	27892
804.061	28006
804.204	27914
804.346	27816
804.488	27720
804.63	27797
804.773	27717
804.915	27865
805.057	27865
805.199	27732
805.341	27956
805.483	27998
805.626	27945
805.768	27865
805.91	27949
806.052	27956
806.194	27850
806.336	28128
806.478	28040
806.62	28082
806.762	28112
806.904	28173
807.046	28398
807.188	28375
807.33	28356
807.472	28382
807.614	28398
807.756	28428
807.898	28268
808.04	28196
808.182	28116
808.324	28333
808.465	28363
808.607	28500
808.749	28687
808.891	28736
809.033	28843
809.174	28618
809.316	28596
809.458	28713
809.6	28550
809.741	28702
809.883	28824
810.025	28873
810.166	28873
810.308	28938
810.45	28862
810.591	28675
810.733	28569
810.875	28615
811.016	28535
811.158	28694
811.299	28828
811.441	28687
811.582	28694
811.724	28649
811.865	28596
812.007	28615
812.148	28801
812.29	28660
812.431	28809
812.573	29075
812.714	29037
812.855	29090
812.997	29166
813.138	29303
813.279	29204
813.421	29143
813.562	29086
813.703	29067
813.845	28900
813.986	28561
814.127	28447
814.268	28249
814.41	28405
814.551	28295
814.692	28375
814.833	28306
814.974	28447
815.115	28375
815.256	28344
815.397	28318
815.539	28029
815.68	28074
815.821	28074
815.962	28131
816.103	28112
816.244	27983
816.385	27876
816.526	27930
816.666	27717
816.807	27770
816.948	27728
817.089	27800
817.23	27755
817.371	27614
817.512	27686
817.653	27507
817.793	27614
817.934	27591
818.075	27583
818.216	27705
818.356	27530
818.497	27458
818.638	27340
818.778	27450
818.919	27408
819.06	27462
819.2	27519
819.341	27682
819.481	27568
819.622	27751
819.762	27854
819.903	27869
820.043	27755
820.184	27793
820.324	27759
820.465	27831
820.605	27739
820.746	27800
820.886	27549
821.026	27770
821.167	27831
821.307	27724
821.447	27701
821.588	27587
821.728	27599
821.868	27192
822.008	27123
822.149	27188
822.289	27039
822.429	26769
822.569	26750
822.709	26883
822.849	26636
822.99	26735
823.13	26693
823.27	26473
823.41	26355
823.55	26320
823.69	26358
823.83	26393
823.97	26317
824.11	26301
824.25	26069
824.389	26229
824.529	26374
824.669	26240
824.809	26336
824.949	26355
825.089	26347
825.228	26138
825.368	26103
825.508	26092
825.648	26103
825.787	26134
825.927	26145
826.067	25989
826.206	26005
826.346	26278
826.485	26244
826.625	26096
826.765	26202
826.904	26130
827.044	25879
827.183	25864
827.323	25871
827.462	25841
827.601	25780
827.741	25727
827.88	25811
828.02	25681
828.159	25898
828.298	25951
828.437	26024
828.577	25803
828.716	25871
828.855	25879
828.994	25643
829.134	25510
829.273	25567
829.412	25491
829.551	25491
829.69	25441
829.829	25567
829.968	25597
830.107	25537
830.246	25514
830.385	25453
830.524	25518
830.663	25316
830.802	25350
830.941	25114
831.08	25099
831.219	25179
831.357	25194
831.496	25354
831.635	24966
831.774	25183
831.913	25118
832.051	24909
832.19	24909
832.329	25012
832.467	24814
832.606	24825
832.744	24753
832.883	24886
833.022	24620
833.16	24753
833.299	24798
833.437	24817
833.576	24798
833.714	24863
833.852	24829
833.991	24890
834.129	25008
834.267	24954
834.406	24859
834.544	24973
834.682	24863
834.821	24791
834.959	25019
835.097	24787
835.235	24962
835.373	24920
835.511	24814
835.65	24696
835.788	24726
835.926	24665
836.064	24532
836.202	24566
836.34	24669
836.478	24772
836.615	24681
836.753	24711
836.891	24700
837.029	24734
837.167	24654
837.305	24616
837.443	24623
837.58	24467
837.718	24631
837.856	24502
837.993	24426
838.131	24589
838.269	24384
838.406	24300
838.544	24270
838.681	24140
838.819	24148
838.956	23950
839.094	23980
839.231	23965
839.369	24106
839.506	24285
839.643	24277
839.781	24053
839.918	23927
840.055	24022
840.193	23980
840.33	23942
840.467	23863
840.604	23904
840.742	24190
840.879	23714
841.016	23832
841.153	23699
841.29	23950
841.427	23927
841.564	24087
841.701	23885
841.838	23828
841.975	23931
842.112	23946
842.249	23596
842.385	23638
842.522	23836
842.659	23722
842.796	23687
842.933	23638
843.069	23630
843.206	23535
843.343	23653
843.479	23672
843.616	23566
843.752	23341
843.889	23493
844.025	23566
844.162	23463
844.298	23566
844.435	23326
844.571	23353
844.708	23471
844.844	23642
844.98	23551
845.117	23417
845.253	23334
845.389	23216
845.525	23398
845.661	23151
845.798	23143
845.934	23273
846.07	23231
846.206	23143
846.342	23284
846.478	23098
846.614	22987
846.75	22908
846.886	22911
847.022	22889
847.158	22828
847.294	22850
847.429	22934
847.565	22850
847.701	22965
847.837	22740
847.972	22634
848.108	22748
848.244	22725
848.379	22470
848.515	22386
848.65	22436
848.786	22440
848.921	22569
849.057	22691
849.192	22550
849.328	22512
849.463	22356
849.598	22432
849.734	22337
849.869	22295
850.004	22169
850.14	22139
850.275	22192
850.41	22169
850.545	22261
850.68	22204
850.815	22200
850.95	22196
851.085	22402
851.22	22424
851.355	22177
851.49	22249
851.625	22086
851.76	22188
851.895	22029
852.03	22101
852.165	22116
852.299	22196
852.434	22249
852.569	22268
852.703	22200
852.838	22291
852.973	22265
853.107	22303
853.242	22185
853.376	22036
853.511	21915
853.645	22013
853.78	22223
853.914	22002
854.048	22017
854.183	21956
854.317	22086
854.451	22265
854.585	22112
854.72	21983
854.854	22139
854.988	21880
855.122	22116
855.256	21941
855.39	22010
855.524	22109
855.658	22067
855.792	22112
855.926	22025
856.06	22112
856.194	22105
856.327	22036
856.461	22021
856.595	21835
856.729	22021
856.862	22109
856.996	22006
857.13	22036
857.263	22306
857.397	22261
857.53	22048
857.664	22093
857.797	22162
857.931	22105
858.064	22090
858.197	22131
858.331	22010
858.464	21964
858.597	21983
858.731	21945
858.864	21915
858.997	22059
859.13	22067
859.263	22040
859.396	22055
859.529	22032
859.662	21876
859.795	21945
859.928	21941
860.061	22215
860.194	22226
860.327	22173
860.46	21987
860.592	22188
860.725	22318
860.858	22230
860.99	21998
861.123	22013
861.256	21979
861.388	21968
861.521	22672
861.653	21857
861.786	21743
861.918	21785
862.05	21960
862.183	21930
862.315	22070
862.447	22063
862.58	22067
862.712	21838
862.844	21785
862.976	21926
863.108	21949
863.24	22421
863.372	21747
863.504	21785
863.636	21720
863.768	21709
863.9	21766
864.032	21720
864.164	21641
864.296	21785
864.428	21861
864.559	21903
864.691	21873
864.823	21778
864.954	21698
865.086	21736
865.217	21667
865.349	21500
865.48	21709
865.612	21610
865.743	21713
865.875	21694
866.006	21610
866.137	21682
866.269	21618
866.4	21629
866.531	21591
866.662	21473
866.793	21625
866.924	21595
867.055	21622
867.186	21580
867.317	21481
867.448	21439
867.579	21488
867.71	21458
867.841	21462
867.972	21549
868.103	21549
868.233	21564
868.364	21523
868.495	21759
868.625	21793
868.756	21934
868.886	21747
869.017	21747
869.147	21907
869.278	21998
869.408	21907
869.539	21789
869.669	21949
869.799	21846
869.929	21895
870.06	21842
870.19	22086
870.32	22173
870.45	22116
870.58	22169
870.71	22341
870.84	22474
870.97	22272
871.1	22211
871.23	22402
871.36	22390
871.489	22200
871.619	22348
871.749	22523
871.879	22523
872.008	22584
872.138	22356
872.267	22375
872.397	22390
872.526	22086
872.656	22200
872.785	22314
872.915	22462
873.044	22462
873.173	22436
873.303	22527
873.432	22352
873.561	22493
873.69	22451
873.819	22466
873.948	22508
874.077	22318
874.206	22348
874.335	22535
874.464	22596
874.593	22637
874.722	22691
874.851	22713
874.979	22626
875.108	22649
875.237	22729
875.365	22535
875.494	22668
875.623	22637
875.751	22565
875.88	22744
876.008	22816
876.136	22862
876.265	23071
876.393	23098
876.521	23098
876.65	23223
876.778	23041
876.906	22881
877.034	22919
877.162	22976
877.29	22900
877.418	23022
877.546	23006
877.674	23037
877.802	22987
877.93	22847
878.058	22953
878.185	22889
878.313	22923
878.441	22927
878.568	22771
878.696	22911
878.824	23113
878.951	23102
879.079	23277
879.206	23303
879.333	23140
879.461	23010
879.588	23132
879.715	23147
879.842	23269
879.97	23067
880.097	22752
880.224	22801
880.351	22927
880.478	22987
880.605	22877
880.732	22771
880.859	23044
880.986	22854
881.112	22927
881.239	22725
881.366	22538
881.493	22474
881.619	22382
881.746	22428
881.872	22470
881.999	22379
882.125	22284
882.252	22299
882.378	22356
882.505	22451
882.631	22234
882.757	21975
882.883	22185
883.01	21987
883.136	22067
883.262	21895
883.388	21774
883.514	22116
883.64	22253
883.766	22044
883.892	21911
884.018	21842
884.143	22143
884.269	22135
884.395	21956
884.52	21759
884.646	21808
884.772	21732
884.897	21595
885.023	21762
885.148	21865
885.274	21953
885.399	21637
885.524	21633
885.65	21641
885.775	21789
885.9	21854
886.025	21743
886.15	21720
886.275	21549
886.4	21641
886.525	21599
886.65	21667
886.775	21709
886.9	21880
887.025	22017
887.149	21644
887.274	21538
887.399	21454
887.523	21443
887.648	21397
887.773	21408
887.897	21530
888.021	21420
888.146	21329
888.27	21481
888.395	21595
888.519	21538
888.643	21576
888.767	21519
888.891	21348
889.015	21245
889.139	21397
889.263	21154
889.387	21355
889.511	21538
889.635	21374
889.759	21264
889.883	21241
890.006	21291
890.13	21340
890.254	21005
890.377	21123
890.501	21036
890.624	20937
890.748	21024
890.871	20910
890.995	20849
891.118	20769
891.241	20918
891.364	20918
891.488	20986
891.611	20883
891.734	20838
891.857	20902
891.98	20762
892.103	20880
892.226	20849
892.349	20724
892.471	20678
892.594	20746
892.717	20716
892.839	20613
892.962	20720
893.085	20807
893.207	20674
893.33	20632
893.452	20537
893.575	20724
893.697	20735
893.819	20800
893.941	20792
894.064	20800
894.186	20777
894.308	20682
894.43	20864
894.552	20914
894.674	20689
894.796	20705
894.918	20583
895.04	20629
895.161	20682
895.283	20773
895.405	20651
895.526	20727
895.648	20678
895.769	20716
895.891	20807
896.012	20758
896.134	20716
896.255	20686
896.376	20609
896.498	20659
896.619	20781
896.74	20651
896.861	20788
896.982	21116
897.103	21077
897.224	20971
897.345	20941
897.466	20857
897.587	20864
897.708	20944
897.828	21039
897.949	20727
898.07	20823
898.19	20796
898.311	20887
898.431	20830
898.552	20925
898.672	20781
898.792	20979
898.913	20861
899.033	20781
899.153	20762
899.273	20659
899.393	20655
899.513	20560
899.633	20659
899.753	20689
899.873	20602
899.993	20651
900.113	20503
900.232	20621
900.352	20556
900.472	20488
900.591	20419
900.711	20317
900.83	20278
900.95	20499
901.069	20503
901.189	20313
901.308	20115
901.427	19871
901.546	20046
901.665	20024
901.784	20046
901.904	19818
902.023	19666
902.141	19426
902.26	19556
902.379	19590
902.498	19540
902.617	19480
902.735	19476
902.854	19445
902.973	19396
903.091	19259
903.21	19183
903.328	19183
903.446	19107
903.565	19053
903.683	18894
903.801	18825
903.919	18962
904.038	18856
904.156	18726
904.274	18757
904.392	18627
904.51	18760
904.627	18715
904.745	18753
904.863	18795
904.981	18448
905.098	18407
905.216	18319
905.334	18448
905.451	18403
905.569	18350
905.686	18429
905.803	18311
905.921	18216
906.038	18327
906.155	18178
906.272	18072
906.389	18068
906.506	17996
906.623	17832
906.74	17954
906.857	17874
906.974	17828
907.091	17977
907.208	17961
907.324	17870
907.441	17748
907.557	17726
907.674	17630
907.79	17638
907.907	17467
908.023	17615
908.139	17642
908.256	17642
908.372	17581
908.488	17505
908.604	17398
908.72	17406
908.836	17330
908.952	17334
909.068	17360
909.184	17395
909.3	17315
909.415	17334
909.531	17406
909.647	17029
909.762	17045
909.878	17045
909.993	17113
910.108	17045
910.224	16953
910.339	17048
910.454	16820
910.57	16911
910.685	16653
910.8	16972
910.915	17045
911.03	16793
911.145	16554
911.259	16538
911.374	16615
911.489	16519
911.604	16519
911.718	16382
911.833	16352
911.947	16352
912.062	16219
912.176	16253
912.291	16352
912.405	16432
912.519	16493
912.633	16584
912.748	16371
912.862	16291
912.976	16177
913.09	16131
913.204	16109
913.318	16200
913.431	16173
913.545	16169
913.659	16284
913.772	16116
913.886	16067
914	16097
914.113	16021
914.226	16036
914.34	16010
914.453	15869
914.566	15975
914.68	15922
914.793	15762
914.906	15587
915.019	15629
915.132	15572
915.245	15641
915.358	15534
915.47	15568
915.583	15641
915.696	15595
915.809	15686
915.921	15652
916.034	15587
916.146	15447
916.259	15439
916.371	15561
916.483	15496
916.595	15397
916.708	15336
916.82	15359
916.932	15393
917.044	15408
917.156	15313
917.268	15127
917.38	15287
917.491	15359
917.603	15176
917.715	15203
917.826	15268
917.938	15146
918.049	15100
918.161	15112
918.272	15207
918.384	15237
918.495	15146
918.606	15051
918.717	14948
918.828	14891
918.939	14933
919.05	14914
919.161	14937
919.272	14765
919.383	14815
919.494	14986
919.604	15009
919.715	14948
919.826	14925
919.936	14830
920.047	14914
920.157	14956
920.267	15108
920.378	14902
920.488	15032
920.598	15070
920.708	15157
920.818	15070
920.928	15051
921.038	15180
921.148	15032
921.258	14941
921.368	14781
921.477	14727
921.587	14697
921.697	14503
921.806	14708
921.916	14545
922.025	14358
922.134	14142
922.244	14183
922.353	14408
922.462	14256
922.571	14016
922.68	13989
922.789	13963
922.898	13997
923.007	13795
923.116	14001
923.224	13932
923.333	13795
923.442	13841
923.55	13784
923.659	13772
923.767	13803
923.876	13632
923.984	13761
924.092	13594
924.201	13647
924.309	13639
924.417	13571
924.525	13552
924.633	13582
924.741	14374
924.849	13308
924.956	13457
925.064	13362
925.172	13213
925.279	13304
925.387	13270
925.494	13190
925.602	13346
925.709	13460
925.816	13194
925.924	13274
926.031	13407
926.138	13274
926.245	13289
926.352	13080
926.459	13255
926.566	13304
926.673	13099
926.779	13084
926.886	12962
926.993	12882
927.099	12856
927.206	12840
927.312	12665
927.419	12890
927.525	12779
927.631	12852
927.737	12798
927.843	12639
927.95	12566
928.056	12642
928.162	12658
928.267	12688
928.373	13312
928.479	12639
928.585	12483
928.69	12639
928.796	12646
928.901	12513
929.007	12445
929.112	12471
929.218	12494
929.323	12452
929.428	12372
929.533	12456
929.638	12334
929.743	12330
929.848	12407
929.953	12323
930.058	12159
930.163	12068
930.267	12125
930.372	12117
930.477	12049
930.581	12281
930.685	12125
930.79	11927
930.894	11992
930.998	11901
931.103	12057
931.207	11691
931.311	11566
931.415	11573
931.519	11356
931.623	11296
