Data from test_V78500241_3574.txt Node
Date: Fri Mar 25 16:06:33 CST 2022
User: usil
Spectrometer: V785-0024
Trigger mode: 0
Integration Time (sec): 4.000000E-1
Scans to average: 1
Nonlinearity correction enabled: false
Boxcar width: 0
Storing dark spectrum: false
XAxis mode: Wavelengths
Number of Pixels in Spectrum: 1024
>>>>>Begin Spectral Data<<<<<
801.071	28938
801.214	28930
801.356	28455
801.499	28618
801.641	28242
801.783	28401
801.926	28424
802.068	28519
802.211	28424
802.353	28333
802.496	28139
802.638	28040
802.78	28124
802.923	27888
803.065	27846
803.208	28059
803.35	28082
803.492	28223
803.635	28367
803.777	28154
803.919	28352
804.061	28523
804.204	28272
804.346	28306
804.488	28204
804.63	28405
804.773	28375
804.915	28523
805.057	28500
805.199	28379
805.341	28436
805.483	28508
805.626	28382
805.768	28455
805.91	28561
806.052	28481
806.194	28470
806.336	28675
806.478	28493
806.62	28592
806.762	28497
806.904	28923
807.046	29048
807.188	28976
807.33	29041
807.472	28839
807.614	28957
807.756	28919
807.898	28774
808.04	28831
808.182	28748
808.324	28774
808.465	28858
808.607	29212
808.749	29208
808.891	29280
809.033	29296
809.174	29372
809.316	29117
809.458	29159
809.6	29105
809.741	29334
809.883	29269
810.025	29471
810.166	29531
810.308	29551
810.45	29360
810.591	29505
810.733	29261
810.875	29181
811.016	29128
811.158	29124
811.299	29421
811.441	29387
811.582	29292
811.724	29254
811.865	29235
812.007	29151
812.148	29368
812.29	29280
812.431	29383
812.573	29467
812.714	29627
812.855	29733
812.997	29851
813.138	29904
813.279	29897
813.421	29775
813.562	29748
813.703	29455
813.845	29410
813.986	29185
814.127	29003
814.268	28911
814.41	28946
814.551	28866
814.692	28972
814.833	28835
814.974	28972
815.115	28980
815.256	28748
815.397	28793
815.539	28888
815.68	28744
815.821	28691
815.962	28843
816.103	28759
816.244	28683
816.385	28504
816.526	28546
816.666	28314
816.807	28276
816.948	28284
817.089	28287
817.23	28303
817.371	28150
817.512	28223
817.653	28169
817.793	28318
817.934	28284
818.075	28128
818.216	28234
818.356	28276
818.497	28086
818.638	27914
818.778	28002
818.919	27930
819.06	28105
819.2	28234
819.341	28215
819.481	28280
819.622	28447
819.762	28573
819.903	28451
820.043	28325
820.184	28447
820.324	28246
820.465	28443
820.605	28451
820.746	28310
820.886	28204
821.026	28276
821.167	28310
821.307	28295
821.447	28363
821.588	28268
821.728	28002
821.868	27876
822.008	27819
822.149	27671
822.289	27629
822.429	27488
822.569	27534
822.709	27424
822.849	27138
822.99	27203
823.13	27138
823.27	27275
823.41	27017
823.55	26807
823.69	27070
823.83	27119
823.97	27112
824.11	26781
824.25	26853
824.389	26838
824.529	26918
824.669	26975
824.809	27100
824.949	27192
825.089	27039
825.228	26952
825.368	26724
825.508	26758
825.648	26777
825.787	26769
825.927	26796
826.067	26849
826.206	26792
826.346	26826
826.485	26906
826.625	26674
826.765	27024
826.904	26921
827.044	26587
827.183	26518
827.323	26358
827.462	26625
827.601	26632
827.741	26522
827.88	26621
828.02	26374
828.159	26377
828.298	26453
828.437	26682
828.577	26469
828.716	26549
828.855	26484
828.994	26187
829.134	26191
829.273	26313
829.412	26103
829.551	26065
829.69	26172
829.829	26172
829.968	26183
830.107	26320
830.246	26275
830.385	26191
830.524	26115
830.663	26069
830.802	25898
830.941	25890
831.08	25738
831.219	25982
831.357	25947
831.496	25951
831.635	25849
831.774	25727
831.913	25712
832.051	25651
832.19	25575
832.329	25666
832.467	25613
832.606	25537
832.744	25430
832.883	25400
833.022	25457
833.16	25472
833.299	25567
833.437	25369
833.576	25468
833.714	25460
833.852	25578
833.991	25537
834.129	25609
834.267	25468
834.406	25556
834.544	25533
834.682	25506
834.821	25510
834.959	25742
835.097	25426
835.235	25514
835.373	25578
835.511	25400
835.65	25388
835.788	25373
835.926	25308
836.064	25183
836.202	25240
836.34	25301
836.478	25495
836.615	25293
836.753	25293
836.891	25430
837.029	25350
837.167	25209
837.305	25225
837.443	25217
837.58	25339
837.718	25293
837.856	25274
837.993	25168
838.131	25152
838.269	25019
838.406	24989
838.544	24970
838.681	24913
838.819	24787
838.956	24711
839.094	24715
839.231	24642
839.369	24878
839.506	25107
839.643	24913
839.781	24692
839.918	24544
840.055	24585
840.193	24555
840.33	24620
840.467	24517
840.604	24414
840.742	24844
840.879	24521
841.016	24536
841.153	24422
841.29	24563
841.427	24566
841.564	24597
841.701	24551
841.838	24448
841.975	24380
842.112	24490
842.249	24376
842.385	24357
842.522	24593
842.659	24426
842.796	24292
842.933	24254
843.069	24289
843.206	24213
843.343	24289
843.479	24410
843.616	24262
843.752	24057
843.889	24098
844.025	24285
844.162	24030
844.298	24163
844.435	24091
844.571	24045
844.708	24174
844.844	24292
844.98	24194
845.117	24197
845.253	24007
845.389	23996
845.525	24026
845.661	23946
845.798	23771
845.934	23893
846.07	23908
846.206	23878
846.342	23885
846.478	23745
846.614	23649
846.75	23566
846.886	23364
847.022	23699
847.158	23562
847.294	23695
847.429	23486
847.565	23547
847.701	23885
847.837	23292
847.972	23124
848.108	23280
848.244	23284
848.379	23185
848.515	23083
848.65	23140
848.786	23124
848.921	23079
849.057	23174
849.192	23151
849.328	23113
849.463	23060
849.598	23113
849.734	22976
849.869	22930
850.004	22987
850.14	22999
850.275	22873
850.41	22759
850.545	22850
850.68	22729
850.815	22908
850.95	22991
851.085	23136
851.22	22911
851.355	22953
851.49	22850
851.625	22824
851.76	22831
851.895	22786
852.03	22767
852.165	22923
852.299	22786
852.434	23041
852.569	22938
852.703	22942
852.838	22919
852.973	22915
853.107	23006
853.242	22801
853.376	22839
853.511	22588
853.645	22679
853.78	22805
853.914	22698
854.048	22691
854.183	22637
854.317	22763
854.451	22869
854.585	22706
854.72	22767
854.854	22862
854.988	22618
855.122	22710
855.256	22603
855.39	22725
855.524	22713
855.658	22786
855.792	22653
855.926	22801
856.06	22774
856.194	22664
856.327	22702
856.461	22660
856.595	22660
856.729	22740
856.862	22847
856.996	22721
857.13	22869
857.263	22869
857.397	22755
857.53	22500
857.664	22713
857.797	22744
857.931	22896
858.064	22649
858.197	22691
858.331	22717
858.464	22660
858.597	22546
858.731	22679
858.864	22592
858.997	22698
859.13	22588
859.263	22618
859.396	22771
859.529	22592
859.662	22664
859.795	22801
859.928	22759
860.061	22866
860.194	22934
860.327	22710
860.46	22645
860.592	22816
860.725	22736
860.858	22850
860.99	22740
861.123	22588
861.256	22546
861.388	22778
861.521	23410
861.653	22683
861.786	22497
861.918	22466
862.05	22592
862.183	22523
862.315	22588
862.447	22653
862.58	22672
862.712	22451
862.844	22462
862.976	22413
863.108	22432
863.24	22873
863.372	22398
863.504	22459
863.636	22386
863.768	22394
863.9	22462
864.032	22371
864.164	22253
864.296	22459
864.428	22436
864.559	22481
864.691	22432
864.823	22409
864.954	22337
865.086	22306
865.217	22192
865.349	22325
865.48	22344
865.612	22363
865.743	22436
865.875	22253
866.006	22333
866.137	22394
866.269	22314
866.4	22261
866.531	22207
866.662	22196
866.793	22139
866.924	22192
867.055	22192
867.186	22162
867.317	22093
867.448	22143
867.579	22242
867.71	22131
867.841	22166
867.972	22223
868.103	22150
868.233	22261
868.364	22177
868.495	22341
868.625	22459
868.756	22516
868.886	22322
869.017	22497
869.147	22512
869.278	22637
869.408	22462
869.539	22413
869.669	22561
869.799	22466
869.929	22546
870.06	22508
870.19	22717
870.32	22885
870.45	22771
870.58	22847
870.71	22873
870.84	23003
870.97	22866
871.1	22831
871.23	22980
871.36	22942
871.489	22938
871.619	22980
871.749	22904
871.879	23075
872.008	23140
872.138	22904
872.267	23025
872.397	22999
872.526	22881
872.656	22885
872.785	22824
872.915	23071
873.044	23178
873.173	23064
873.303	23029
873.432	23162
873.561	23220
873.69	23159
873.819	23143
873.948	23064
874.077	23067
874.206	23029
874.335	22995
874.464	23162
874.593	23273
874.722	23193
874.851	23273
874.979	23341
875.108	23292
875.237	23159
875.365	23277
875.494	23242
875.623	23383
875.751	23296
875.88	23341
876.008	23368
876.136	23539
876.265	23695
876.393	23866
876.521	23729
876.65	23748
876.778	23608
876.906	23729
877.034	23539
877.162	23611
877.29	23570
877.418	23729
877.546	23634
877.674	23573
877.802	23623
877.93	23638
878.058	23562
878.185	23535
878.313	23600
878.441	23539
878.568	23524
878.696	23501
878.824	23619
878.951	23676
879.079	23870
879.206	23889
879.333	23767
879.461	23611
879.588	23691
879.715	23809
879.842	23866
879.97	23646
880.097	23395
880.224	23391
880.351	23497
880.478	23387
880.605	23474
880.732	23463
880.859	23668
880.986	23383
881.112	23414
881.239	23360
881.366	23216
881.493	23056
881.619	23010
881.746	23090
881.872	23113
881.999	22908
882.125	22930
882.252	22923
882.378	22934
882.505	23117
882.631	22809
882.757	22687
882.883	22672
883.01	22683
883.136	22672
883.262	22645
883.388	22428
883.514	22634
883.64	22626
883.766	22622
883.892	22440
884.018	22402
884.143	22615
884.269	22679
884.395	22325
884.52	22284
884.646	22253
884.772	22234
884.897	22154
885.023	22348
885.148	22443
885.274	22390
885.399	22382
885.524	22268
885.65	22375
885.775	22257
885.9	22341
886.025	22462
886.15	22314
886.275	22375
886.4	22143
886.525	22177
886.65	22276
886.775	22093
886.9	22306
887.025	22466
887.149	22287
887.274	22150
887.399	22086
887.523	22086
887.648	22143
887.773	22017
887.897	22147
888.021	22070
888.146	21994
888.27	22234
888.395	22101
888.519	22090
888.643	22074
888.767	22139
888.891	21945
889.015	21732
889.139	21816
889.263	21682
889.387	21892
889.511	22078
889.635	21873
889.759	21888
889.883	21812
890.006	21831
890.13	21968
890.254	21831
890.377	21808
890.501	21599
890.624	21530
890.748	21690
890.871	21466
890.995	21279
891.118	21336
891.241	21420
891.364	21473
891.488	21686
891.611	21405
891.734	21435
891.857	21439
891.98	21344
892.103	21481
892.226	21416
892.349	21252
892.471	21195
892.594	21340
892.717	21241
892.839	21184
892.962	21310
893.085	21389
893.207	21260
893.33	21165
893.452	21275
893.575	21386
893.697	21344
893.819	21408
893.941	21443
894.064	21443
894.186	21294
894.308	21199
894.43	21329
894.552	21481
894.674	21386
894.796	21062
894.918	21157
895.04	21161
895.161	21355
895.283	21214
895.405	21104
895.526	21252
895.648	21112
895.769	21382
895.891	21294
896.012	21306
896.134	21306
896.255	21325
896.376	21131
896.498	21275
896.619	21363
896.74	21252
896.861	21287
896.982	21553
897.103	21690
897.224	21637
897.345	21332
897.466	21481
897.587	21351
897.708	21671
897.828	21405
897.949	21348
898.07	21355
898.19	21416
898.311	21545
898.431	21321
898.552	21340
898.672	21641
898.792	21477
898.913	21332
899.033	21370
899.153	21233
899.273	21161
899.393	21272
899.513	21127
899.633	21161
899.753	21222
899.873	21093
899.993	21287
900.113	21161
900.232	21169
900.352	21013
900.472	20906
900.591	20861
900.711	20864
900.83	20876
900.95	20910
901.069	21028
901.189	20906
901.308	20511
901.427	20454
901.546	20609
901.665	20583
901.784	20465
901.904	20362
902.023	20290
902.141	20183
902.26	20050
902.379	20119
902.498	20062
902.617	20088
902.735	20161
902.854	19967
902.973	19921
903.091	19753
903.21	19681
903.328	19677
903.446	19616
903.565	19468
903.683	19571
903.801	19320
903.919	19438
904.038	19453
904.156	19133
904.274	19293
904.392	19194
904.51	19152
904.627	19137
904.745	19183
904.863	19278
904.981	18875
905.098	18859
905.216	18863
905.334	18871
905.451	18886
905.569	18829
905.686	18875
905.803	18913
905.921	18741
906.038	18787
906.155	18741
906.272	18658
906.389	18551
906.506	18391
906.623	18471
906.74	18445
906.857	18330
906.974	18376
907.091	18475
907.208	18479
907.324	18391
907.441	18350
907.557	18133
907.674	18102
907.79	18041
907.907	18106
908.023	18091
908.139	18171
908.256	17973
908.372	18079
908.488	17939
908.604	17817
908.72	17817
908.836	17855
908.952	17771
909.068	17836
909.184	17897
909.3	17889
909.415	17855
909.531	17832
909.647	17585
909.762	17543
909.878	17566
909.993	17516
910.108	17421
910.224	17535
910.339	17501
910.454	17356
910.57	17303
910.685	17170
910.8	17577
910.915	17471
911.03	17429
911.145	17083
911.259	17048
911.374	17102
911.489	17117
911.604	17041
911.718	16854
911.833	16881
911.947	16744
912.062	16710
912.176	16862
912.291	16816
912.405	16793
912.519	16995
912.633	17037
912.748	16858
912.862	16820
912.976	16687
913.09	16588
913.204	16649
913.318	16607
913.431	16752
913.545	16752
913.659	16683
913.772	16603
913.886	16535
914	16459
914.113	16561
914.226	16535
914.34	16436
914.453	16356
914.566	16333
914.68	16363
914.793	16272
914.906	15983
915.019	15987
915.132	15945
915.245	15987
915.358	16021
915.47	15987
915.583	15945
915.696	15926
915.809	16120
915.921	16040
916.034	15831
916.146	15880
916.259	15956
916.371	15926
916.483	15994
916.595	15838
916.708	15838
916.82	15793
916.932	15755
917.044	15759
917.156	15705
917.268	15671
917.38	15690
917.491	15572
917.603	15591
917.715	15591
917.826	15682
917.938	15542
918.049	15386
918.161	15557
918.272	15663
918.384	15671
918.495	15587
918.606	15412
918.717	15272
918.828	15405
918.939	15340
919.05	15310
919.161	15389
919.272	15173
919.383	15214
919.494	15348
919.604	15492
919.715	15264
919.826	15218
919.936	15237
920.047	15424
920.157	15294
920.267	15507
920.378	15355
920.488	15291
920.598	15511
920.708	15599
920.818	15469
920.928	15363
921.038	15671
921.148	15530
921.258	15264
921.368	15127
921.477	15119
921.587	15001
921.697	14853
921.806	14963
921.916	14914
922.025	14735
922.134	14617
922.244	14602
922.353	14674
922.462	14457
922.571	14374
922.68	14286
922.789	14317
922.898	14355
923.007	14275
923.116	14400
923.224	14282
923.333	14256
923.442	14111
923.55	14092
923.659	14187
923.767	14111
923.876	14024
923.984	14180
924.092	14081
924.201	14096
924.309	14024
924.417	14111
924.525	13993
924.633	13955
924.741	14773
924.849	13757
924.956	13852
925.064	13784
925.172	13715
925.279	13620
925.387	13712
925.494	13742
925.602	13704
925.709	13616
925.816	13582
925.924	13620
926.031	13639
926.138	13563
926.245	13639
926.352	13438
926.459	13742
926.566	13666
926.673	13521
926.779	13362
926.886	13354
926.993	13301
927.099	13228
927.206	13179
927.312	13133
927.419	13312
927.525	13175
927.631	13225
927.737	13088
927.843	13069
927.95	12977
928.056	13015
928.162	13004
928.267	13076
928.373	13677
928.479	13114
928.585	12901
928.69	12928
928.796	12932
928.901	12901
929.007	12711
929.112	12897
929.218	12882
929.323	12745
929.428	12722
929.533	12787
929.638	12658
929.743	12642
929.848	12669
929.953	12635
930.058	12658
930.163	12391
930.267	12475
930.372	12532
930.477	12384
930.581	12608
930.685	12464
930.79	12224
930.894	12311
930.998	12243
931.103	12422
931.207	12030
931.311	11939
931.415	11878
931.519	11741
931.623	11585
