Data from test_V78500241_2115.txt Node
Date: Fri Mar 25 15:56:27 CST 2022
User: usil
Spectrometer: V785-0024
Trigger mode: 0
Integration Time (sec): 4.000000E-1
Scans to average: 1
Nonlinearity correction enabled: false
Boxcar width: 0
Storing dark spectrum: false
XAxis mode: Wavelengths
Number of Pixels in Spectrum: 1024
>>>>>Begin Spectral Data<<<<<
801.071	28809
801.214	28812
801.356	28630
801.499	28497
801.641	28371
801.783	28478
801.926	28561
802.068	28390
802.211	28409
802.353	28306
802.496	28147
802.638	28090
802.78	28029
802.923	28021
803.065	27979
803.208	28070
803.35	27972
803.492	28185
803.635	28268
803.777	28310
803.919	28489
804.061	28740
804.204	28337
804.346	28226
804.488	28253
804.63	28382
804.773	28200
804.915	28462
805.057	28527
805.199	28386
805.341	28451
805.483	28580
805.626	28694
805.768	28348
805.91	28634
806.052	28432
806.194	28417
806.336	28694
806.478	28649
806.62	28535
806.762	28809
806.904	28843
807.046	29014
807.188	28957
807.33	28987
807.472	29083
807.614	28934
807.756	29006
807.898	28744
808.04	28831
808.182	28702
808.324	28930
808.465	28797
808.607	29052
808.749	29174
808.891	29280
809.033	29543
809.174	29311
809.316	29273
809.458	29098
809.6	29246
809.741	29311
809.883	29349
810.025	29436
810.166	29501
810.308	29406
810.45	29421
810.591	29383
810.733	29322
810.875	29250
811.016	29273
811.158	29189
811.299	29421
811.441	29398
811.582	29391
811.724	29189
811.865	29174
812.007	29311
812.148	29151
812.29	29113
812.431	29429
812.573	29699
812.714	29634
812.855	29714
812.997	29729
813.138	29984
813.279	29665
813.421	29756
813.562	29783
813.703	29467
813.845	29562
813.986	29208
814.127	29060
814.268	28953
814.41	28965
814.551	29117
814.692	28972
814.833	28885
814.974	28809
815.115	28934
815.256	28904
815.397	28995
815.539	28972
815.68	28805
815.821	28797
815.962	28649
816.103	28573
816.244	28561
816.385	28630
816.526	28500
816.666	28325
816.807	28219
816.948	28284
817.089	28371
817.23	28322
817.371	28287
817.512	28390
817.653	28265
817.793	28147
817.934	28276
818.075	28287
818.216	28287
818.356	28356
818.497	28143
818.638	27838
818.778	28074
818.919	28090
819.06	28067
819.2	28268
819.341	28325
819.481	28154
819.622	28451
819.762	28580
819.903	28447
820.043	28508
820.184	28424
820.324	28360
820.465	28440
820.605	28546
820.746	28432
820.886	28268
821.026	28325
821.167	28299
821.307	28459
821.447	28310
821.588	28219
821.728	28093
821.868	27884
822.008	27797
822.149	27743
822.289	27755
822.429	27488
822.569	27458
822.709	27367
822.849	27272
822.99	27226
823.13	27252
823.27	27150
823.41	26998
823.55	26902
823.69	27089
823.83	27055
823.97	27138
824.11	26921
824.25	26849
824.389	26902
824.529	26952
824.669	26963
824.809	27017
824.949	26895
825.089	27123
825.228	26944
825.368	26750
825.508	26735
825.648	26777
825.787	26857
825.927	26796
826.067	26746
826.206	26815
826.346	26800
826.485	26887
826.625	26853
826.765	26830
826.904	26910
827.044	26556
827.183	26678
827.323	26545
827.462	26541
827.601	26560
827.741	26404
827.88	26621
828.02	26427
828.159	26438
828.298	26488
828.437	26480
828.577	26313
828.716	26431
828.855	26298
828.994	26233
829.134	26298
829.273	26286
829.412	26149
829.551	26164
829.69	26202
829.829	26145
829.968	26339
830.107	26191
830.246	26145
830.385	26168
830.524	26202
830.663	25944
830.802	25799
830.941	25841
831.08	25791
831.219	25959
831.357	25833
831.496	25947
831.635	25818
831.774	25803
831.913	25742
832.051	25556
832.19	25666
832.329	25491
832.467	25411
832.606	25441
832.744	25460
832.883	25422
833.022	25301
833.16	25422
833.299	25559
833.437	25495
833.576	25575
833.714	25453
833.852	25563
833.991	25571
834.129	25502
834.267	25605
834.406	25506
834.544	25651
834.682	25563
834.821	25548
834.959	25605
835.097	25552
835.235	25575
835.373	25559
835.511	25548
835.65	25377
835.788	25400
835.926	25369
836.064	25225
836.202	25240
836.34	25194
836.478	25449
836.615	25362
836.753	25411
836.891	25346
837.029	25263
837.167	25320
837.305	25327
837.443	25137
837.58	25198
837.718	25190
837.856	25217
837.993	25107
838.131	25088
838.269	24981
838.406	24985
838.544	25088
838.681	24848
838.819	24768
838.956	24540
839.094	24578
839.231	24681
839.369	24711
839.506	25126
839.643	24829
839.781	24677
839.918	24563
840.055	24574
840.193	24589
840.33	24448
840.467	24658
840.604	24532
840.742	24871
840.879	24475
841.016	24475
841.153	24475
841.29	24631
841.427	24448
841.564	24563
841.701	24551
841.838	24456
841.975	24376
842.112	24388
842.249	24448
842.385	24277
842.522	24448
842.659	24414
842.796	24376
842.933	24277
843.069	24285
843.206	24186
843.343	24285
843.479	24232
843.616	24365
843.752	24095
843.889	24057
844.025	24148
844.162	24072
844.298	24110
844.435	24057
844.571	23980
844.708	24053
844.844	24346
844.98	24292
845.117	24076
845.253	23946
845.389	23961
845.525	23908
845.661	24034
845.798	23802
845.934	23748
846.07	23817
846.206	23775
846.342	23866
846.478	23722
846.614	23596
846.75	23474
846.886	23516
847.022	23653
847.158	23665
847.294	23531
847.429	23463
847.565	23433
847.701	23752
847.837	23250
847.972	23227
848.108	23376
848.244	23433
848.379	23029
848.515	23048
848.65	23014
848.786	23060
848.921	23094
849.057	23204
849.192	23124
849.328	23284
849.463	23109
849.598	23014
849.734	23014
849.869	22896
850.004	22790
850.14	22869
850.275	22919
850.41	22786
850.545	22759
850.68	22828
850.815	22858
850.95	22850
851.085	22968
851.22	22900
851.355	22995
851.49	22889
851.625	22877
851.76	22816
851.895	22923
852.03	22744
852.165	22736
852.299	22854
852.434	22957
852.569	22995
852.703	22839
852.838	22885
852.973	23010
853.107	22961
853.242	22812
853.376	22740
853.511	22603
853.645	22630
853.78	22778
853.914	22797
854.048	22752
854.183	22653
854.317	22637
854.451	22911
854.585	22706
854.72	22653
854.854	22793
854.988	22634
855.122	22812
855.256	22599
855.39	22710
855.524	22626
855.658	22557
855.792	22634
855.926	22675
856.06	22797
856.194	22672
856.327	22615
856.461	22710
856.595	22557
856.729	22626
856.862	22660
856.996	22763
857.13	22797
857.263	22694
857.397	22656
857.53	22774
857.664	22862
857.797	22725
857.931	22702
858.064	22679
858.197	22843
858.331	22687
858.464	22603
858.597	22649
858.731	22641
858.864	22538
858.997	22596
859.13	22717
859.263	22839
859.396	22793
859.529	22713
859.662	22615
859.795	22660
859.928	22637
860.061	22812
860.194	22961
860.327	22710
860.46	22660
860.592	22759
860.725	22672
860.858	22797
860.99	22641
861.123	22630
861.256	22664
861.388	22599
861.521	23231
861.653	22531
861.786	22341
861.918	22485
862.05	22596
862.183	22668
862.315	22603
862.447	22713
862.58	22497
862.712	22523
862.844	22440
862.976	22462
863.108	22554
863.24	22736
863.372	22234
863.504	22432
863.636	22367
863.768	22356
863.9	22443
864.032	22390
864.164	22417
864.296	22428
864.428	22405
864.559	22497
864.691	22451
864.823	22398
864.954	22398
865.086	22344
865.217	22322
865.349	22101
865.48	22257
865.612	22280
865.743	22356
865.875	22192
866.006	22238
866.137	22280
866.269	22192
866.4	22246
866.531	22207
866.662	22185
866.793	22128
866.924	22215
867.055	22207
867.186	22344
867.317	22109
867.448	22131
867.579	22082
867.71	22181
867.841	22093
867.972	22177
868.103	22200
868.233	22162
868.364	22371
868.495	22291
868.625	22474
868.756	22573
868.886	22451
869.017	22356
869.147	22557
869.278	22569
869.408	22386
869.539	22535
869.669	22512
869.799	22485
869.929	22626
870.06	22561
870.19	22649
870.32	22679
870.45	22729
870.58	22801
870.71	22961
870.84	22835
870.97	22793
871.1	22801
871.23	22976
871.36	23071
871.489	22911
871.619	23014
871.749	23060
871.879	22934
872.008	23033
872.138	22984
872.267	23033
872.397	22885
872.526	22824
872.656	22786
872.785	22717
872.915	23037
873.044	23117
873.173	23041
873.303	23143
873.432	22972
873.561	23220
873.69	23022
873.819	23060
873.948	23128
874.077	23060
874.206	23090
874.335	23014
874.464	23071
874.593	23261
874.722	23258
874.851	23197
874.979	23337
875.108	23516
875.237	23200
875.365	23197
875.494	23121
875.623	23315
875.751	23235
875.88	23166
876.008	23345
876.136	23322
876.265	23649
876.393	23752
876.521	23661
876.65	23843
876.778	23745
876.906	23642
877.034	23509
877.162	23665
877.29	23611
877.418	23619
877.546	23714
877.674	23592
877.802	23512
877.93	23604
878.058	23501
878.185	23478
878.313	23478
878.441	23600
878.568	23376
878.696	23581
878.824	23604
878.951	23623
879.079	23653
879.206	23863
879.333	23802
879.461	23729
879.588	23623
879.715	23790
879.842	23889
879.97	23642
880.097	23440
880.224	23364
880.351	23623
880.478	23486
880.605	23334
880.732	23471
880.859	23684
880.986	23421
881.112	23425
881.239	23246
881.366	23105
881.493	23117
881.619	23014
881.746	22942
881.872	22972
881.999	23056
882.125	22946
882.252	22949
882.378	22957
882.505	23014
882.631	22816
882.757	22577
882.883	22706
883.01	22679
883.136	22603
883.262	22432
883.388	22318
883.514	22596
883.64	22683
883.766	22497
883.892	22379
884.018	22500
884.143	22447
884.269	22577
884.395	22299
884.52	22284
884.646	22318
884.772	22226
884.897	22211
885.023	22329
885.148	22398
885.274	22363
885.399	22310
885.524	22215
885.65	22371
885.775	22337
885.9	22272
886.025	22318
886.15	22299
886.275	22196
886.4	22112
886.525	22261
886.65	22238
886.775	22139
886.9	22421
887.025	22375
887.149	22162
887.274	22032
887.399	22044
887.523	22074
887.648	21945
887.773	21960
887.897	22070
888.021	22051
888.146	21918
888.27	22211
888.395	22185
888.519	22025
888.643	22002
888.767	22013
888.891	21899
889.015	21838
889.139	21854
889.263	21766
889.387	21975
889.511	22051
889.635	21964
889.759	21774
889.883	21736
890.006	21789
890.13	21884
890.254	21732
890.377	21736
890.501	21705
890.624	21622
890.748	21682
890.871	21450
890.995	21279
891.118	21260
891.241	21431
891.364	21283
891.488	21469
891.611	21302
891.734	21260
891.857	21401
891.98	21424
892.103	21401
892.226	21249
892.349	21313
892.471	21074
892.594	21283
892.717	21310
892.839	21344
892.962	21298
893.085	21473
893.207	21268
893.33	21123
893.452	21230
893.575	21298
893.697	21192
893.819	21428
893.941	21389
894.064	21389
894.186	21233
894.308	21108
894.43	21332
894.552	21370
894.674	21431
894.796	21127
894.918	21222
895.04	21233
895.161	21260
895.283	21291
895.405	21252
895.526	21294
895.648	21230
895.769	21226
895.891	21287
896.012	21226
896.134	21173
896.255	21192
896.376	21298
896.498	21237
896.619	21218
896.74	21249
896.861	21348
896.982	21603
897.103	21698
897.224	21504
897.345	21515
897.466	21382
897.587	21469
897.708	21561
897.828	21435
897.949	21332
898.07	21291
898.19	21367
898.311	21511
898.431	21485
898.552	21443
898.672	21618
898.792	21443
898.913	21344
899.033	21329
899.153	21241
899.273	21154
899.393	21070
899.513	21214
899.633	21214
899.753	21195
899.873	21077
899.993	21237
900.113	21062
900.232	21085
900.352	21089
900.472	21051
900.591	20982
900.711	21093
900.83	20899
900.95	21032
901.069	20899
901.189	20857
901.308	20621
901.427	20488
901.546	20499
901.665	20530
901.784	20613
901.904	20328
902.023	20145
902.141	20107
902.26	20138
902.379	19936
902.498	20024
902.617	19967
902.735	20027
902.854	19951
902.973	19974
903.091	19719
903.21	19666
903.328	19639
903.446	19571
903.565	19483
903.683	19430
903.801	19335
903.919	19457
904.038	19373
904.156	19175
904.274	19335
904.392	19236
904.51	19126
904.627	19209
904.745	19202
904.863	19240
904.981	18932
905.098	18772
905.216	18859
905.334	18852
905.451	18905
905.569	18833
905.686	18810
905.803	18973
905.921	18639
906.038	18673
906.155	18692
906.272	18445
906.389	18585
906.506	18433
906.623	18376
906.74	18418
906.857	18247
906.974	18311
907.091	18315
907.208	18498
907.324	18441
907.441	18353
907.557	18174
907.674	18091
907.79	18007
907.907	18049
908.023	18228
908.139	17996
908.256	18019
908.372	18060
908.488	18015
908.604	17859
908.72	17695
908.836	17840
908.952	17805
909.068	17840
909.184	17855
909.3	17855
909.415	17863
909.531	17737
909.647	17524
909.762	17452
909.878	17455
909.993	17463
910.108	17448
910.224	17452
910.339	17414
910.454	17406
910.57	17387
910.685	17258
910.8	17509
910.915	17364
911.03	17322
911.145	17067
911.259	16995
911.374	17086
911.489	16965
911.604	16995
911.718	16839
911.833	16816
911.947	16721
912.062	16683
912.176	16873
912.291	16767
912.405	16736
912.519	16904
912.633	16999
912.748	16839
912.862	16790
912.976	16634
913.09	16478
913.204	16569
913.318	16664
913.431	16679
913.545	16702
913.659	16866
913.772	16546
913.886	16459
914	16481
914.113	16542
914.226	16508
914.34	16371
914.453	16314
914.566	16390
914.68	16295
914.793	16219
914.906	16071
915.019	15964
915.132	15998
915.245	16074
915.358	15998
915.47	15979
915.583	15854
915.696	15934
915.809	16067
915.921	16048
916.034	15895
916.146	15895
916.259	15953
916.371	15998
916.483	15934
916.595	15854
916.708	15892
916.82	15869
916.932	15732
917.044	15709
917.156	15751
917.268	15549
917.38	15599
917.491	15610
917.603	15614
917.715	15629
917.826	15713
917.938	15519
918.049	15393
918.161	15553
918.272	15652
918.384	15622
918.495	15545
918.606	15329
918.717	15321
918.828	15435
918.939	15458
919.05	15268
919.161	15317
919.272	15123
919.383	15237
919.494	15340
919.604	15504
919.715	15454
919.826	15195
919.936	15241
920.047	15298
920.157	15306
920.267	15344
920.378	15408
920.488	15245
920.598	15450
920.708	15584
920.818	15450
920.928	15378
921.038	15587
921.148	15526
921.258	15214
921.368	15157
921.477	15017
921.587	14925
921.697	14963
921.806	15039
921.916	14849
922.025	14739
922.134	14689
922.244	14632
922.353	14697
922.462	14495
922.571	14332
922.68	14305
922.789	14290
922.898	14358
923.007	14248
923.116	14317
923.224	14240
923.333	14237
923.442	14153
923.55	14142
923.659	14153
923.767	14180
923.876	13993
923.984	14111
924.092	13932
924.201	14050
924.309	14020
924.417	13921
924.525	13940
924.633	13947
924.741	14629
924.849	13643
924.956	13898
925.064	13700
925.172	13658
925.279	13613
925.387	13712
925.494	13636
925.602	13864
925.709	13761
925.816	13510
925.924	13597
926.031	13643
926.138	13521
926.245	13533
926.352	13449
926.459	13639
926.566	13651
926.673	13468
926.779	13438
926.886	13369
926.993	13236
927.099	13110
927.206	13168
927.312	13213
927.419	13225
927.525	13145
927.631	13240
927.737	13038
927.843	13061
927.95	12928
928.056	12958
928.162	13053
928.267	13000
928.373	13700
928.479	13050
928.585	12806
928.69	12916
928.796	12962
928.901	12817
929.007	12745
929.112	12840
929.218	12795
929.323	12703
929.428	12642
929.533	12821
929.638	12540
929.743	12627
929.848	12760
929.953	12547
930.058	12589
930.163	12369
930.267	12471
930.372	12513
930.477	12376
930.581	12585
930.685	12555
930.79	12228
930.894	12304
930.998	12262
931.103	12334
931.207	11977
931.311	11954
931.415	11809
931.519	11657
931.623	11608
