Data from test_V78500241_1655.txt Node
Date: Fri Mar 25 15:53:15 CST 2022
User: usil
Spectrometer: V785-0024
Trigger mode: 0
Integration Time (sec): 4.000000E-1
Scans to average: 1
Nonlinearity correction enabled: false
Boxcar width: 0
Storing dark spectrum: false
XAxis mode: Wavelengths
Number of Pixels in Spectrum: 1024
>>>>>Begin Spectral Data<<<<<
801.071	27960
801.214	27873
801.356	27675
801.499	27576
801.641	27500
801.783	27454
801.926	27614
802.068	27420
802.211	27336
802.353	27260
802.496	27165
802.638	27157
802.78	27218
802.923	27070
803.065	27017
803.208	27116
803.35	27222
803.492	27249
803.635	27504
803.777	27252
803.919	27378
804.061	27717
804.204	27435
804.346	27294
804.488	27336
804.63	27279
804.773	27268
804.915	27264
805.057	27325
805.199	27298
805.341	27310
805.483	27564
805.626	27553
805.768	27340
805.91	27606
806.052	27507
806.194	27313
806.336	27511
806.478	27576
806.62	27450
806.762	27682
806.904	27759
807.046	27861
807.188	27941
807.33	27934
807.472	27907
807.614	27789
807.756	27793
807.898	27728
808.04	27766
808.182	27835
808.324	27930
808.465	27778
808.607	27949
808.749	28131
808.891	28223
809.033	28284
809.174	28131
809.316	28166
809.458	28223
809.6	28006
809.741	28291
809.883	28211
810.025	28401
810.166	28314
810.308	28443
810.45	28417
810.591	28265
810.733	28120
810.875	28067
811.016	27972
811.158	28074
811.299	28303
811.441	28150
811.582	28329
811.724	28090
811.865	28139
812.007	28021
812.148	28158
812.29	28215
812.431	28230
812.573	28459
812.714	28596
812.855	28634
812.997	28797
813.138	28774
813.279	28706
813.421	28569
813.562	28634
813.703	28375
813.845	28394
813.986	27987
814.127	27850
814.268	27884
814.41	27793
814.551	27857
814.692	27823
814.833	27888
814.974	27762
815.115	27972
815.256	27736
815.397	27629
815.539	27641
815.68	27717
815.821	27530
815.962	27625
816.103	27633
816.244	27526
816.385	27443
816.526	27351
816.666	27241
816.807	26971
816.948	27173
817.089	27207
817.23	27214
817.371	27169
817.512	27005
817.653	27024
817.793	27085
817.934	26986
818.075	27032
818.216	27032
818.356	27039
818.497	27142
818.638	26765
818.778	26724
818.919	26826
819.06	26975
819.2	26899
819.341	27131
819.481	27058
819.622	27272
819.762	27580
819.903	27401
820.043	27154
820.184	27363
820.324	27283
820.465	27203
820.605	27226
820.746	27165
820.886	27047
821.026	27184
821.167	27127
821.307	27184
821.447	27131
821.588	27032
821.728	26975
821.868	26861
822.008	26545
822.149	26598
822.289	26522
822.429	26351
822.569	26267
822.709	26351
822.849	26157
822.99	26172
823.13	26092
823.27	26031
823.41	25906
823.55	25875
823.69	25921
823.83	25898
823.97	25784
824.11	25708
824.25	25556
824.389	25765
824.529	25830
824.669	25632
824.809	25807
824.949	25795
825.089	25856
825.228	25757
825.368	25693
825.508	25556
825.648	25624
825.787	25616
825.927	25571
826.067	25529
826.206	25529
826.346	25548
826.485	25514
826.625	25563
826.765	25761
826.904	25689
827.044	25282
827.183	25400
827.323	25251
827.462	25259
827.601	25251
827.741	25297
827.88	25293
828.02	25266
828.159	25247
828.298	25346
828.437	25343
828.577	25278
828.716	25339
828.855	25179
828.994	24992
829.134	25042
829.273	25069
829.412	24966
829.551	24875
829.69	24970
829.829	24962
829.968	25187
830.107	25034
830.246	25129
830.385	24859
830.524	24810
830.663	24821
830.802	24589
830.941	24490
831.08	24528
831.219	24757
831.357	24612
831.496	24791
831.635	24627
831.774	24528
831.913	24486
832.051	24464
832.19	24357
832.329	24384
832.467	24315
832.606	24422
832.744	24133
832.883	24251
833.022	24232
833.16	24167
833.299	24258
833.437	24277
833.576	24285
833.714	24388
833.852	24346
833.991	24361
834.129	24357
834.267	24403
834.406	24369
834.544	24273
834.682	24300
834.821	24273
834.959	24460
835.097	24273
835.235	24486
835.373	24372
835.511	24247
835.65	24060
835.788	24159
835.926	23996
836.064	23885
836.202	23961
836.34	24136
836.478	24243
836.615	24018
836.753	24171
836.891	24323
837.029	24095
837.167	23958
837.305	24041
837.443	24091
837.58	23950
837.718	24064
837.856	24095
837.993	24041
838.131	23946
838.269	23783
838.406	23912
838.544	23676
838.681	23592
838.819	23596
838.956	23391
839.094	23474
839.231	23554
839.369	23707
839.506	23794
839.643	23653
839.781	23467
839.918	23326
840.055	23486
840.193	23341
840.33	23425
840.467	23410
840.604	23356
840.742	23592
840.879	23280
841.016	23303
841.153	23231
841.29	23440
841.427	23368
841.564	23467
841.701	23482
841.838	23292
841.975	23216
842.112	23299
842.249	23151
842.385	23121
842.522	23398
842.659	23124
842.796	23166
842.933	23067
843.069	23128
843.206	23060
843.343	23143
843.479	23223
843.616	23117
843.752	22934
843.889	22946
844.025	23033
844.162	22843
844.298	22892
844.435	22980
844.571	22877
844.708	23048
844.844	23151
844.98	23010
845.117	23029
845.253	22892
845.389	22866
845.525	22858
845.661	22672
845.798	22554
845.934	22645
846.07	22557
846.206	22649
846.342	22668
846.478	22573
846.614	22291
846.75	22306
846.886	22398
847.022	22424
847.158	22341
847.294	22398
847.429	22382
847.565	22348
847.701	22577
847.837	22055
847.972	22006
848.108	22223
848.244	22295
848.379	22059
848.515	21884
848.65	21956
848.786	21915
848.921	21941
849.057	22173
849.192	22017
849.328	21915
849.463	21899
849.598	21846
849.734	21880
849.869	21812
850.004	21766
850.14	21686
850.275	21660
850.41	21686
850.545	21736
850.68	21652
850.815	21637
850.95	21698
851.085	21895
851.22	21876
851.355	21728
851.49	21629
851.625	21614
851.76	21614
851.895	21637
852.03	21663
852.165	21671
852.299	21766
852.434	21846
852.569	21690
852.703	21774
852.838	21804
852.973	21717
853.107	21774
853.242	21625
853.376	21553
853.511	21439
853.645	21622
853.78	21743
853.914	21595
854.048	21549
854.183	21542
854.317	21481
854.451	21667
854.585	21553
854.72	21439
854.854	21663
854.988	21530
855.122	21564
855.256	21359
855.39	21652
855.524	21492
855.658	21705
855.792	21492
855.926	21580
856.06	21629
856.194	21629
856.327	21526
856.461	21523
856.595	21447
856.729	21511
856.862	21660
856.996	21557
857.13	21606
857.263	21656
857.397	21644
857.53	21507
857.664	21458
857.797	21606
857.931	21652
858.064	21580
858.197	21720
858.331	21580
858.464	21420
858.597	21435
858.731	21443
858.864	21549
858.997	21420
859.13	21492
859.263	21523
859.396	21610
859.529	21504
859.662	21370
859.795	21606
859.928	21698
860.061	21713
860.194	21823
860.327	21576
860.46	21553
860.592	21827
860.725	21759
860.858	21557
860.99	21637
861.123	21378
861.256	21507
861.388	21549
861.521	22211
861.653	21591
861.786	21420
861.918	21298
862.05	21386
862.183	21359
862.315	21435
862.447	21545
862.58	21572
862.712	21138
862.844	21180
862.976	21325
863.108	21367
863.24	21705
863.372	21226
863.504	21233
863.636	21306
863.768	21325
863.9	21173
864.032	21237
864.164	21173
864.296	21264
864.428	21355
864.559	21268
864.691	21420
864.823	21332
864.954	21268
865.086	21222
865.217	21138
865.349	21108
865.48	21047
865.612	21245
865.743	21272
865.875	21142
866.006	21195
866.137	21161
866.269	21096
866.4	21123
866.531	21066
866.662	20933
866.793	21085
866.924	20933
867.055	21024
867.186	21096
867.317	21119
867.448	21043
867.579	21104
867.71	21036
867.841	21051
867.972	21047
868.103	21077
868.233	21104
868.364	21119
868.495	21233
868.625	21233
868.756	21428
868.886	21249
869.017	21275
869.147	21458
869.278	21393
869.408	21386
869.539	21492
869.669	21435
869.799	21412
869.929	21378
870.06	21405
870.19	21599
870.32	21534
870.45	21747
870.58	21770
870.71	21705
870.84	21857
870.97	21736
871.1	21781
871.23	21869
871.36	22006
871.489	21789
871.619	22002
871.749	21869
871.879	21991
872.008	22120
872.138	22093
872.267	21895
872.397	21739
872.526	21808
872.656	21705
872.785	21854
872.915	21987
873.044	21964
873.173	21960
873.303	21899
873.432	22013
873.561	21998
873.69	21915
873.819	21899
873.948	22097
874.077	21972
874.206	21956
874.335	21857
874.464	22036
874.593	22185
874.722	22169
874.851	22188
874.979	22158
875.108	22230
875.237	22090
875.365	22040
875.494	22086
875.623	22295
875.751	22154
875.88	22246
876.008	22261
876.136	22341
876.265	22500
876.393	22611
876.521	22687
876.65	22637
876.778	22493
876.906	22527
877.034	22459
877.162	22538
877.29	22432
877.418	22546
877.546	22409
877.674	22413
877.802	22489
877.93	22557
878.058	22531
878.185	22402
878.313	22519
878.441	22531
878.568	22318
878.696	22424
878.824	22394
878.951	22580
879.079	22535
879.206	22755
879.333	22702
879.461	22565
879.588	22615
879.715	22599
879.842	22809
879.97	22428
880.097	22314
880.224	22344
880.351	22367
880.478	22284
880.605	22272
880.732	22341
880.859	22432
880.986	22287
881.112	22325
881.239	22177
881.366	21949
881.493	21949
881.619	21888
881.746	21911
881.872	21842
881.999	21869
882.125	21827
882.252	22006
882.378	21865
882.505	21918
882.631	21747
882.757	21530
882.883	21614
883.01	21538
883.136	21599
883.262	21572
883.388	21557
883.514	21603
883.64	21515
883.766	21428
883.892	21272
884.018	21473
884.143	21504
884.269	21618
884.395	21245
884.52	21199
884.646	21214
884.772	21241
884.897	21138
885.023	21294
885.148	21332
885.274	21386
885.399	21351
885.524	21332
885.65	21283
885.775	21302
885.9	21237
886.025	21218
886.15	21287
886.275	21245
886.4	21127
886.525	21214
886.65	21089
886.775	21146
886.9	21382
887.025	21416
887.149	21256
887.274	21070
887.399	20994
887.523	20979
887.648	20830
887.773	21001
887.897	21032
888.021	21020
888.146	20921
888.27	21146
888.395	21039
888.519	20994
888.643	20895
888.767	21089
888.891	21009
889.015	20731
889.139	20842
889.263	20735
889.387	20975
889.511	21001
889.635	20849
889.759	20781
889.883	20754
890.006	20796
890.13	20880
890.254	20693
890.377	20773
890.501	20560
890.624	20461
890.748	20629
890.871	20400
890.995	20415
891.118	20362
891.241	20339
891.364	20427
891.488	20423
891.611	20210
891.734	20400
891.857	20461
891.98	20313
892.103	20393
892.226	20324
892.349	20305
892.471	20202
892.594	20317
892.717	20355
892.839	20248
892.962	20263
893.085	20461
893.207	20259
893.33	20161
893.452	20218
893.575	20343
893.697	20214
893.819	20442
893.941	20473
894.064	20298
894.186	20180
894.308	20263
894.43	20332
894.552	20400
894.674	20237
894.796	20172
894.918	20271
895.04	20221
895.161	20415
895.283	20385
895.405	20176
895.526	20263
895.648	20248
895.769	20252
895.891	20343
896.012	20267
896.134	20332
896.255	20199
896.376	20240
896.498	20358
896.619	20240
896.74	20313
896.861	20377
896.982	20617
897.103	20621
897.224	20442
897.345	20423
897.466	20427
897.587	20446
897.708	20663
897.828	20457
897.949	20362
898.07	20309
898.19	20400
898.311	20511
898.431	20473
898.552	20442
898.672	20419
898.792	20568
898.913	20571
899.033	20389
899.153	20202
899.273	20115
899.393	20183
899.513	20301
899.633	20244
899.753	20301
899.873	20218
899.993	20263
900.113	20145
900.232	20195
900.352	20107
900.472	20107
900.591	20001
900.711	20130
900.83	19993
900.95	20134
901.069	20138
901.189	19879
901.308	19620
901.427	19670
901.546	19635
901.665	19559
901.784	19529
901.904	19468
902.023	19487
902.141	19183
902.26	19141
902.379	19228
902.498	19225
902.617	19012
902.735	19141
902.854	19099
902.973	18985
903.091	18772
903.21	18856
903.328	18753
903.446	18745
903.565	18570
903.683	18528
903.801	18380
903.919	18506
904.038	18608
904.156	18460
904.274	18445
904.392	18315
904.51	18254
904.627	18353
904.745	18357
904.863	18346
904.981	18125
905.098	17931
905.216	18045
905.334	18045
905.451	18045
905.569	18022
905.686	17984
905.803	17969
905.921	17828
906.038	17984
906.155	17817
906.272	17680
906.389	17733
906.506	17444
906.623	17623
906.74	17562
906.857	17436
906.974	17425
907.091	17638
907.208	17707
907.324	17581
907.441	17440
907.557	17242
907.674	17288
907.79	17178
907.907	17258
908.023	17208
908.139	17269
908.256	17178
908.372	17102
908.488	17128
908.604	17067
908.72	16976
908.836	17045
908.952	16892
909.068	17075
909.184	17033
909.3	17014
909.415	16991
909.531	16961
909.647	16820
909.762	16561
909.878	16626
909.993	16698
910.108	16618
910.224	16550
910.339	16622
910.454	16573
910.57	16470
910.685	16451
910.8	16755
910.915	16679
911.03	16474
911.145	16344
911.259	16223
911.374	16246
911.489	16120
911.604	16196
911.718	16086
911.833	16063
911.947	15953
912.062	15854
912.176	16010
912.291	16006
912.405	16006
912.519	16177
912.633	16147
912.748	16025
912.862	15876
912.976	15903
913.09	15705
913.204	15850
913.318	15816
913.431	16025
913.545	15945
913.659	15960
913.772	15812
913.886	15736
914	15584
914.113	15686
914.226	15751
914.34	15637
914.453	15458
914.566	15675
914.68	15481
914.793	15488
914.906	15336
915.019	15184
915.132	15195
915.245	15241
915.358	15321
915.47	15249
915.583	15180
915.696	15203
915.809	15279
915.921	15374
916.034	15131
916.146	15043
916.259	15154
916.371	15100
916.483	15135
916.595	15100
916.708	15062
916.82	15017
916.932	15032
917.044	15028
917.156	15032
917.268	14891
917.38	14849
917.491	14819
917.603	14868
917.715	14895
917.826	14925
917.938	14868
918.049	14769
918.161	14750
918.272	14994
918.384	15055
918.495	14811
918.606	14758
918.717	14617
918.828	14667
918.939	14629
919.05	14564
919.161	14587
919.272	14503
919.383	14469
919.494	14617
919.604	14800
919.715	14625
919.826	14541
919.936	14556
920.047	14598
920.157	14678
920.267	14792
920.378	14667
920.488	14613
920.598	14716
920.708	14941
920.818	14670
920.928	14693
921.038	14891
921.148	14876
921.258	14606
921.368	14427
921.477	14358
921.587	14252
921.697	14298
921.806	14362
921.916	14187
922.025	13944
922.134	13951
922.244	13936
922.353	13989
922.462	13856
922.571	13879
922.68	13712
922.789	13662
922.898	13586
923.007	13578
923.116	13677
923.224	13727
923.333	13620
923.442	13464
923.55	13457
923.659	13407
923.767	13582
923.876	13388
923.984	13472
924.092	13312
924.201	13407
924.309	13415
924.417	13362
924.525	13282
924.633	13282
924.741	13963
924.849	13091
924.956	13209
925.064	13038
925.172	13095
925.279	13053
925.387	13103
925.494	13053
925.602	13069
925.709	13118
925.816	12943
925.924	12943
926.031	13076
926.138	13008
926.245	13031
926.352	12962
926.459	12989
926.566	13015
926.673	12859
926.779	12806
926.886	12757
926.993	12551
927.099	12665
927.206	12555
927.312	12627
927.419	12631
927.525	12612
927.631	12650
927.737	12471
927.843	12388
927.95	12311
928.056	12388
928.162	12441
928.267	12509
928.373	13126
928.479	12445
928.585	12262
928.69	12369
928.796	12471
928.901	12281
929.007	12163
929.112	12365
929.218	12235
929.323	12182
929.428	12155
929.533	12266
929.638	12114
929.743	12034
929.848	12178
929.953	12041
930.058	11973
930.163	11847
930.267	11771
930.372	12053
930.477	11889
930.581	12064
930.685	11843
930.79	11688
930.894	11764
930.998	11672
931.103	11817
931.207	11478
931.311	11345
931.415	11189
931.519	11128
931.623	11033
