Data from test_V78500241_3333.txt Node
Date: Fri Mar 25 16:04:53 CST 2022
User: usil
Spectrometer: V785-0024
Trigger mode: 0
Integration Time (sec): 4.000000E-1
Scans to average: 1
Nonlinearity correction enabled: false
Boxcar width: 0
Storing dark spectrum: false
XAxis mode: Wavelengths
Number of Pixels in Spectrum: 1024
>>>>>Begin Spectral Data<<<<<
801.071	28211
801.214	28166
801.356	27956
801.499	28097
801.641	27800
801.783	27774
801.926	27823
802.068	27895
802.211	27808
802.353	27819
802.496	27549
802.638	27435
802.78	27576
802.923	27439
803.065	27435
803.208	27370
803.35	27545
803.492	27675
803.635	27759
803.777	27652
803.919	27873
804.061	28017
804.204	27835
804.346	27599
804.488	27648
804.63	27705
804.773	27690
804.915	27755
805.057	27865
805.199	27766
805.341	27751
805.483	27831
805.626	27869
805.768	27789
805.91	27956
806.052	27956
806.194	27774
806.336	28048
806.478	27979
806.62	27865
806.762	28097
806.904	28261
807.046	28561
807.188	28287
807.33	28325
807.472	28497
807.614	28363
807.756	28329
807.898	28067
808.04	28188
808.182	28173
808.324	28059
808.465	28333
808.607	28432
808.749	28459
808.891	28596
809.033	28656
809.174	28622
809.316	28573
809.458	28641
809.6	28557
809.741	28626
809.883	28786
810.025	28850
810.166	28835
810.308	28927
810.45	28805
810.591	28713
810.733	28694
810.875	28573
811.016	28451
811.158	28447
811.299	28733
811.441	28733
811.582	28809
811.724	28527
811.865	28672
812.007	28538
812.148	28569
812.29	28596
812.431	28729
812.573	28744
812.714	29010
812.855	29060
812.997	29254
813.138	29353
813.279	29105
813.421	29041
813.562	28995
813.703	28930
813.845	28774
813.986	28523
814.127	28360
814.268	28371
814.41	28238
814.551	28272
814.692	28322
814.833	28341
814.974	28230
815.115	28287
815.256	28154
815.397	28154
815.539	28352
815.68	28055
815.821	27937
815.962	28063
816.103	28101
816.244	28006
816.385	27861
816.526	27812
816.666	27625
816.807	27450
816.948	27656
817.089	27701
817.23	27618
817.371	27485
817.512	27557
817.653	27599
817.793	27466
817.934	27530
818.075	27534
818.216	27648
818.356	27519
818.497	27363
818.638	27298
818.778	27279
818.919	27329
819.06	27492
819.2	27374
819.341	27553
819.481	27717
819.622	27762
819.762	27880
819.903	27755
820.043	27789
820.184	27675
820.324	27717
820.465	27720
820.605	27648
820.746	27701
820.886	27557
821.026	27675
821.167	27587
821.307	27663
821.447	27542
821.588	27485
821.728	27378
821.868	27275
822.008	27074
822.149	27085
822.289	27062
822.429	26743
822.569	26743
822.709	26792
822.849	26564
822.99	26549
823.13	26708
823.27	26522
823.41	26446
823.55	26343
823.69	26457
823.83	26442
823.97	26336
824.11	26122
824.25	26122
824.389	26130
824.529	26183
824.669	26161
824.809	26180
824.949	26271
825.089	26202
825.228	26313
825.368	26039
825.508	26077
825.648	26107
825.787	26153
825.927	26161
826.067	26005
826.206	25917
826.346	26172
826.485	26161
826.625	26065
826.765	26248
826.904	26153
827.044	26008
827.183	25833
827.323	25868
827.462	26016
827.601	25883
827.741	25738
827.88	25887
828.02	25681
828.159	25788
828.298	25788
828.437	25875
828.577	25731
828.716	25909
828.855	25628
828.994	25441
829.134	25468
829.273	25502
829.412	25343
829.551	25358
829.69	25552
829.829	25430
829.968	25518
830.107	25578
830.246	25567
830.385	25396
830.524	25422
830.663	25266
830.802	25129
830.941	25141
831.08	25023
831.219	25202
831.357	25152
831.496	25255
831.635	25069
831.774	25084
831.913	25065
832.051	25008
832.19	24958
832.329	24882
832.467	24772
832.606	24738
832.744	24871
832.883	24760
833.022	24795
833.16	24856
833.299	24863
833.437	24821
833.576	24871
833.714	24894
833.852	24928
833.991	24951
834.129	24939
834.267	24951
834.406	24920
834.544	24970
834.682	24837
834.821	24821
834.959	25076
835.097	24776
835.235	24928
835.373	24935
835.511	24825
835.65	24760
835.788	24631
835.926	24574
836.064	24486
836.202	24574
836.34	24817
836.478	24749
836.615	24677
836.753	24734
836.891	24821
837.029	24715
837.167	24677
837.305	24582
837.443	24505
837.58	24547
837.718	24601
837.856	24475
837.993	24479
838.131	24498
838.269	24388
838.406	24563
838.544	24376
838.681	24194
838.819	24220
838.956	24022
839.094	23996
839.231	24026
839.369	24232
839.506	24578
839.643	24308
839.781	23992
839.918	23817
840.055	23999
840.193	24003
840.33	23745
840.467	23942
840.604	23942
840.742	24216
840.879	23802
841.016	23817
841.153	23775
841.29	23916
841.427	23859
841.564	23916
841.701	23935
841.838	23783
841.975	23710
842.112	23809
842.249	23551
842.385	23676
842.522	23798
842.659	23748
842.796	23505
842.933	23619
843.069	23520
843.206	23600
843.343	23710
843.479	23608
843.616	23630
843.752	23379
843.889	23288
844.025	23497
844.162	23455
844.298	23497
844.435	23421
844.571	23322
844.708	23543
844.844	23543
844.98	23566
845.117	23459
845.253	23398
845.389	23208
845.525	23307
845.661	23307
845.798	23124
845.934	23208
846.07	23174
846.206	23121
846.342	23258
846.478	23124
846.614	22976
846.75	22774
846.886	22889
847.022	22908
847.158	22877
847.294	22881
847.429	22828
847.565	22949
847.701	23064
847.837	22645
847.972	22542
848.108	22793
848.244	22687
848.379	22493
848.515	22337
848.65	22402
848.786	22497
848.921	22516
849.057	22535
849.192	22634
849.328	22592
849.463	22413
849.598	22466
849.734	22211
849.869	22306
850.004	22219
850.14	22265
850.275	22363
850.41	22147
850.545	22143
850.68	22238
850.815	22257
850.95	22276
851.085	22348
851.22	22268
851.355	22223
851.49	22219
851.625	22219
851.76	22299
851.895	22139
852.03	22253
852.165	22090
852.299	22413
852.434	22344
852.569	22287
852.703	22310
852.838	22246
852.973	22284
853.107	22280
853.242	22150
853.376	22105
853.511	22048
853.645	22002
853.78	22196
853.914	21972
854.048	21987
854.183	22078
854.317	22086
854.451	22265
854.585	22059
854.72	22048
854.854	22226
854.988	21998
855.122	22010
855.256	21918
855.39	22029
855.524	22211
855.658	22135
855.792	22044
855.926	21922
856.06	22238
856.194	22124
856.327	21960
856.461	22017
856.595	21926
856.729	22059
856.862	22139
856.996	22078
857.13	22128
857.263	22036
857.397	22226
857.53	22070
857.664	22048
857.797	22143
857.931	22078
858.064	22139
858.197	22249
858.331	22093
858.464	21945
858.597	21873
858.731	22032
858.864	21915
858.997	21987
859.13	22090
859.263	22074
859.396	22226
859.529	21987
859.662	22086
859.795	22048
859.928	22017
860.061	22059
860.194	22204
860.327	22112
860.46	22063
860.592	22188
860.725	22135
860.858	22147
860.99	22093
861.123	21972
861.256	22002
861.388	22120
861.521	22744
861.653	22010
861.786	21854
861.918	22006
862.05	21903
862.183	21994
862.315	22036
862.447	22059
862.58	21979
862.712	21781
862.844	21774
862.976	21804
863.108	21823
863.24	22348
863.372	21728
863.504	21736
863.636	21705
863.768	21838
863.9	21831
864.032	21641
864.164	21698
864.296	21774
864.428	21743
864.559	21797
864.691	21717
864.823	21880
864.954	21812
865.086	21610
865.217	21595
865.349	21580
865.48	21694
865.612	21595
865.743	21728
865.875	21694
866.006	21606
866.137	21751
866.269	21625
866.4	21595
866.531	21603
866.662	21534
866.793	21622
866.924	21458
867.055	21698
867.186	21603
867.317	21545
867.448	21568
867.579	21553
867.71	21488
867.841	21526
867.972	21542
868.103	21473
868.233	21610
868.364	21553
868.495	21724
868.625	21808
868.756	21972
868.886	21736
869.017	21835
869.147	21911
869.278	21861
869.408	21846
869.539	21854
869.669	21945
869.799	21895
869.929	21838
870.06	21922
870.19	22242
870.32	22158
870.45	22196
870.58	22291
870.71	22333
870.84	22219
870.97	22188
871.1	22181
871.23	22508
871.36	22531
871.489	22234
871.619	22295
871.749	22470
871.879	22386
872.008	22481
872.138	22417
872.267	22360
872.397	22386
872.526	22280
872.656	22375
872.785	22196
872.915	22455
873.044	22474
873.173	22672
873.303	22440
873.432	22561
873.561	22440
873.69	22516
873.819	22462
873.948	22523
874.077	22443
874.206	22379
874.335	22561
874.464	22573
874.593	22660
874.722	22748
874.851	22573
874.979	22645
875.108	22660
875.237	22630
875.365	22538
875.494	22561
875.623	22839
875.751	22622
875.88	22721
876.008	22679
876.136	22858
876.265	23124
876.393	23086
876.521	23166
876.65	23162
876.778	23140
876.906	22968
877.034	22953
877.162	23083
877.29	22885
877.418	23083
877.546	23056
877.674	23037
877.802	22930
877.93	22908
878.058	23037
878.185	22946
878.313	22889
878.441	23048
878.568	22820
878.696	22854
878.824	22995
878.951	23204
879.079	23162
879.206	23345
879.333	23056
879.461	22984
879.588	23136
879.715	23185
879.842	23273
879.97	23208
880.097	22949
880.224	22873
880.351	22900
880.478	22877
880.605	22767
880.732	22866
880.859	23041
880.986	22793
881.112	22866
881.239	22698
881.366	22580
881.493	22485
881.619	22356
881.746	22428
881.872	22409
881.999	22440
882.125	22360
882.252	22424
882.378	22371
882.505	22538
882.631	22169
882.757	22070
882.883	22162
883.01	22120
883.136	22070
883.262	21987
883.388	21998
883.514	22116
883.64	22223
883.766	22029
883.892	21835
884.018	21850
884.143	22029
884.269	22067
884.395	21808
884.52	21755
884.646	21759
884.772	21625
884.897	21622
885.023	21717
885.148	21937
885.274	21945
885.399	21724
885.524	21743
885.65	21781
885.775	21679
885.9	21641
886.025	21732
886.15	21736
886.275	21686
886.4	21675
886.525	21629
886.65	21599
886.775	21561
886.9	21808
887.025	21778
887.149	21614
887.274	21481
887.399	21424
887.523	21424
887.648	21473
887.773	21351
887.897	21435
888.021	21542
888.146	21420
888.27	21591
888.395	21576
888.519	21450
888.643	21408
888.767	21538
888.891	21264
889.015	21313
889.139	21401
889.263	21218
889.387	21458
889.511	21477
889.635	21477
889.759	21233
889.883	21169
890.006	21275
890.13	21374
890.254	21112
890.377	21119
890.501	21001
890.624	20971
890.748	21051
890.871	21020
890.995	20811
891.118	20792
891.241	20765
891.364	20948
891.488	20975
891.611	20883
891.734	20758
891.857	20906
891.98	20849
892.103	20758
892.226	20765
892.349	20785
892.471	20621
892.594	20765
892.717	20750
892.839	20727
892.962	20632
893.085	20823
893.207	20708
893.33	20621
893.452	20511
893.575	20644
893.697	20788
893.819	20891
893.941	20853
894.064	20937
894.186	20712
894.308	20587
894.43	20648
894.552	20724
894.674	20876
894.796	20613
894.918	20705
895.04	20743
895.161	20651
895.283	20754
895.405	20644
895.526	20716
895.648	20651
895.769	20674
895.891	20750
896.012	20838
896.134	20811
896.255	20686
896.376	20632
896.498	20678
896.619	20762
896.74	20674
896.861	20651
896.982	21032
897.103	21173
897.224	20902
897.345	20960
897.466	20830
897.587	20800
897.708	21100
897.828	21005
897.949	20891
898.07	20887
898.19	20826
898.311	21055
898.431	20944
898.552	21036
898.672	21032
898.792	20960
898.913	20864
899.033	20746
899.153	20804
899.273	20587
899.393	20629
899.513	20682
899.633	20659
899.753	20659
899.873	20792
899.993	20629
900.113	20621
900.232	20598
900.352	20575
900.472	20431
900.591	20298
900.711	20438
900.83	20381
900.95	20450
901.069	20480
901.189	20301
901.308	20103
901.427	20134
901.546	19970
901.665	20043
901.784	20046
901.904	19860
902.023	19811
902.141	19575
902.26	19533
902.379	19563
902.498	19525
902.617	19407
902.735	19506
902.854	19430
902.973	19396
903.091	19278
903.21	19152
903.328	19266
903.446	19137
903.565	18928
903.683	18985
903.801	18844
903.919	18829
904.038	18901
904.156	18802
904.274	18772
904.392	18787
904.51	18661
904.627	18681
904.745	18741
904.863	18837
904.981	18422
905.098	18391
905.216	18403
905.334	18410
905.451	18311
905.569	18483
905.686	18445
905.803	18300
905.921	18129
906.038	18201
906.155	18213
906.272	18072
906.389	18171
906.506	17999
906.623	17950
906.74	17916
906.857	17817
906.974	17805
907.091	18030
907.208	18015
907.324	17923
907.441	17809
907.557	17642
907.674	17649
907.79	17592
907.907	17497
908.023	17623
908.139	17611
908.256	17699
908.372	17505
908.488	17551
908.604	17387
908.72	17387
908.836	17307
908.952	17254
909.068	17436
909.184	17444
909.3	17288
909.415	17337
909.531	17337
909.647	17132
909.762	17075
909.878	17052
909.993	16991
910.108	17041
910.224	17014
910.339	16904
910.454	16968
910.57	16919
910.685	16790
910.8	17189
910.915	16972
911.03	16869
911.145	16725
911.259	16645
911.374	16630
911.489	16573
911.604	16516
911.718	16386
911.833	16481
911.947	16234
912.062	16162
912.176	16333
912.291	16432
912.405	16402
912.519	16451
912.633	16573
912.748	16497
912.862	16443
912.976	16238
913.09	16029
913.204	16207
913.318	16143
913.431	16246
913.545	16238
913.659	16299
913.772	16143
913.886	16082
914	16048
914.113	16090
914.226	16017
914.34	16051
914.453	15770
914.566	16029
914.68	15926
914.793	15850
914.906	15720
915.019	15530
915.132	15424
915.245	15542
915.358	15713
915.47	15606
915.583	15568
915.696	15637
915.809	15747
915.921	15648
916.034	15515
916.146	15473
916.259	15447
916.371	15538
916.483	15557
916.595	15435
916.708	15447
916.82	15401
916.932	15340
917.044	15291
917.156	15264
917.268	15260
917.38	15199
917.491	15169
917.603	15211
917.715	15317
917.826	15233
917.938	15104
918.049	15119
918.161	15222
918.272	15272
918.384	15260
918.495	15131
918.606	15013
918.717	14868
918.828	15055
918.939	15070
919.05	14887
919.161	14864
919.272	14785
919.383	14811
919.494	15001
919.604	15123
919.715	14967
919.826	14823
919.936	14868
920.047	15039
920.157	14902
920.267	15116
920.378	14933
920.488	14971
920.598	15032
920.708	15135
920.818	15024
920.928	15009
921.038	15157
921.148	15192
921.258	14845
921.368	14857
921.477	14659
921.587	14625
921.697	14492
921.806	14590
921.916	14488
922.025	14461
922.134	14282
922.244	14248
922.353	14301
922.462	14130
922.571	14062
922.68	13997
922.789	13947
922.898	13925
923.007	13868
923.116	13928
923.224	13894
923.333	13997
923.442	13807
923.55	13731
923.659	13704
923.767	13765
923.876	13704
923.984	13803
924.092	13700
924.201	13681
924.309	13689
924.417	13685
924.525	13571
924.633	13575
924.741	14476
924.849	13434
924.956	13491
925.064	13369
925.172	13240
925.279	13335
925.387	13358
925.494	13308
925.602	13430
925.709	13327
925.816	13221
925.924	13171
926.031	13324
926.138	13183
926.245	13373
926.352	13110
926.459	13289
926.566	13304
926.673	13114
926.779	13099
926.886	13072
926.993	12970
927.099	12871
927.206	12837
927.312	12757
927.419	12951
927.525	12951
927.631	12875
927.737	12783
927.843	12658
927.95	12502
928.056	12692
928.162	12669
928.267	12779
928.373	13217
928.479	12741
928.585	12547
928.69	12589
928.796	12646
928.901	12502
929.007	12319
929.112	12547
929.218	12456
929.323	12513
929.428	12475
929.533	12544
929.638	12304
929.743	12304
929.848	12384
929.953	12418
930.058	12216
930.163	12064
930.267	12194
930.372	12216
930.477	12053
930.581	12296
930.685	12091
930.79	11969
930.894	11939
930.998	11999
931.103	12045
931.207	11657
931.311	11707
931.415	11589
931.519	11318
931.623	11318
