Data from test_V78500241_1045.txt Node
Date: Fri Mar 25 15:49:02 CST 2022
User: usil
Spectrometer: V785-0024
Trigger mode: 0
Integration Time (sec): 4.000000E-1
Scans to average: 1
Nonlinearity correction enabled: false
Boxcar width: 0
Storing dark spectrum: false
XAxis mode: Wavelengths
Number of Pixels in Spectrum: 1024
>>>>>Begin Spectral Data<<<<<
801.071	28268
801.214	28291
801.356	28013
801.499	27918
801.641	27690
801.783	27911
801.926	27785
802.068	27667
802.211	27614
802.353	27557
802.496	27686
802.638	27492
802.78	27511
802.923	27355
803.065	27420
803.208	27576
803.35	27507
803.492	27633
803.635	27629
803.777	27519
803.919	27774
804.061	27937
804.204	27774
804.346	27526
804.488	27606
804.63	27629
804.773	27557
804.915	27781
805.057	27743
805.199	27618
805.341	27743
805.483	27911
805.626	27873
805.768	27709
805.91	27755
806.052	27759
806.194	27854
806.336	28036
806.478	27930
806.62	28048
806.762	27888
806.904	28162
807.046	28455
807.188	28196
807.33	28261
807.472	28394
807.614	28207
807.756	28246
807.898	28242
808.04	28173
808.182	28109
808.324	28109
808.465	28185
808.607	28382
808.749	28504
808.891	28698
809.033	28702
809.174	28535
809.316	28565
809.458	28398
809.6	28485
809.741	28645
809.883	28592
810.025	28949
810.166	28740
810.308	28816
810.45	28900
810.591	28824
810.733	28485
810.875	28531
811.016	28375
811.158	28428
811.299	28767
811.441	28721
811.582	28812
811.724	28630
811.865	28398
812.007	28500
812.148	28615
812.29	28656
812.431	28675
812.573	28843
812.714	28995
812.855	29037
812.997	29155
813.138	29353
813.279	29178
813.421	29178
813.562	28995
813.703	29014
813.845	28687
813.986	28531
814.127	28295
814.268	28318
814.41	28257
814.551	28135
814.692	28322
814.833	28162
814.974	28188
815.115	28177
815.256	28150
815.397	28063
815.539	28135
815.68	28002
815.821	28002
815.962	28128
816.103	28010
816.244	27823
816.385	27865
816.526	27694
816.666	27603
816.807	27523
816.948	27694
817.089	27564
817.23	27698
817.371	27553
817.512	27648
817.653	27504
817.793	27523
817.934	27576
818.075	27576
818.216	27515
818.356	27351
818.497	27408
818.638	27272
818.778	27287
818.919	27298
819.06	27325
819.2	27329
819.341	27545
819.481	27473
819.622	27504
819.762	27850
819.903	27827
820.043	27682
820.184	27861
820.324	27793
820.465	27785
820.605	27747
820.746	27667
820.886	27507
821.026	27568
821.167	27694
821.307	27694
821.447	27591
821.588	27473
821.728	27389
821.868	27184
822.008	27135
822.149	27013
822.289	26963
822.429	26667
822.569	26625
822.709	26640
822.849	26499
822.99	26602
823.13	26617
823.27	26541
823.41	26377
823.55	26271
823.69	26385
823.83	26347
823.97	26469
824.11	26237
824.25	26016
824.389	26252
824.529	26343
824.669	26240
824.809	26256
824.949	26233
825.089	26191
825.228	26229
825.368	26103
825.508	26050
825.648	26005
825.787	26103
825.927	26020
826.067	26050
826.206	26058
826.346	26035
826.485	26103
826.625	26058
826.765	26073
826.904	26069
827.044	25822
827.183	25765
827.323	25635
827.462	25750
827.601	25742
827.741	25742
827.88	25864
828.02	25826
828.159	25791
828.298	25776
828.437	25803
828.577	25734
828.716	25700
828.855	25761
828.994	25483
829.134	25609
829.273	25495
829.412	25441
829.551	25430
829.69	25403
829.829	25327
829.968	25457
830.107	25514
830.246	25552
830.385	25358
830.524	25415
830.663	25232
830.802	25320
830.941	25072
831.08	24992
831.219	25126
831.357	25107
831.496	25335
831.635	25038
831.774	25000
831.913	24943
832.051	24928
832.19	24916
832.329	24951
832.467	24734
832.606	24840
832.744	24673
832.883	24768
833.022	24798
833.16	24802
833.299	24844
833.437	24817
833.576	24916
833.714	24787
833.852	24745
833.991	25008
834.129	24939
834.267	24894
834.406	24878
834.544	24882
834.682	24867
834.821	24757
834.959	25046
835.097	24810
835.235	24867
835.373	24825
835.511	24760
835.65	24585
835.788	24741
835.926	24566
836.064	24532
836.202	24578
836.34	24612
836.478	24810
836.615	24578
836.753	24620
836.891	24798
837.029	24608
837.167	24608
837.305	24475
837.443	24521
837.58	24566
837.718	24517
837.856	24593
837.993	24433
838.131	24414
838.269	24372
838.406	24361
838.544	24437
838.681	24068
838.819	24197
838.956	23961
839.094	23836
839.231	23969
839.369	24163
839.506	24190
839.643	24228
839.781	24072
839.918	23828
840.055	23977
840.193	23992
840.33	23859
840.467	23847
840.604	23863
840.742	24190
840.879	23798
841.016	23824
841.153	23802
841.29	23992
841.427	23760
841.564	23901
841.701	23973
841.838	23805
841.975	23748
842.112	23756
842.249	23737
842.385	23638
842.522	23843
842.659	23638
842.796	23661
842.933	23524
843.069	23592
843.206	23611
843.343	23718
843.479	23615
843.616	23577
843.752	23452
843.889	23265
844.025	23509
844.162	23444
844.298	23497
844.435	23326
844.571	23349
844.708	23368
844.844	23733
844.98	23630
845.117	23501
845.253	23284
845.389	23330
845.525	23360
845.661	23326
845.798	23159
845.934	23079
846.07	23056
846.206	23166
846.342	23231
846.478	23155
846.614	22866
846.75	22771
846.886	22812
847.022	22892
847.158	22858
847.294	22740
847.429	22873
847.565	22656
847.701	22999
847.837	22542
847.972	22622
848.108	22603
848.244	22573
848.379	22428
848.515	22474
848.65	22421
848.786	22470
848.921	22348
849.057	22626
849.192	22474
849.328	22512
849.463	22512
849.598	22405
849.734	22257
849.869	22188
850.004	22086
850.14	22188
850.275	22188
850.41	22276
850.545	22105
850.68	22200
850.815	22246
850.95	22322
851.085	22500
851.22	22367
851.355	22223
851.49	22223
851.625	22158
851.76	22173
851.895	22067
852.03	22074
852.165	22265
852.299	22230
852.434	22234
852.569	22272
852.703	22291
852.838	22207
852.973	22295
853.107	22356
853.242	22097
853.376	21994
853.511	21876
853.645	21937
853.78	22181
853.914	22124
854.048	22021
854.183	21960
854.317	22078
854.451	22287
854.585	22093
854.72	22013
854.854	22044
854.988	22063
855.122	22109
855.256	21899
855.39	22070
855.524	22029
855.658	22078
855.792	22086
855.926	21994
856.06	22021
856.194	22109
856.327	21907
856.461	21941
856.595	21983
856.729	21975
856.862	22124
856.996	21983
857.13	22093
857.263	22109
857.397	22101
857.53	21953
857.664	22169
857.797	22067
857.931	22112
858.064	22040
858.197	22070
858.331	21964
858.464	21994
858.597	21998
858.731	22029
858.864	21918
858.997	21983
859.13	22040
859.263	22010
859.396	22135
859.529	21968
859.662	21930
859.795	22025
859.928	21972
860.061	22234
860.194	22215
860.327	22101
860.46	22002
860.592	22124
860.725	22166
860.858	22128
860.99	22059
861.123	21956
861.256	22025
861.388	22128
861.521	22755
861.653	21922
861.786	21793
861.918	21751
862.05	22036
862.183	21934
862.315	21998
862.447	21903
862.58	22021
862.712	21835
862.844	21671
862.976	21869
863.108	21762
863.24	22135
863.372	21739
863.504	21819
863.636	21747
863.768	21781
863.9	21739
864.032	21599
864.164	21648
864.296	21797
864.428	21873
864.559	21804
864.691	21743
864.823	21622
864.954	21694
865.086	21644
865.217	21797
865.349	21591
865.48	21709
865.612	21644
865.743	21781
865.875	21583
866.006	21641
866.137	21538
866.269	21549
866.4	21606
866.531	21591
866.662	21473
866.793	21450
866.924	21447
867.055	21492
867.186	21530
867.317	21564
867.448	21435
867.579	21454
867.71	21363
867.841	21481
867.972	21656
868.103	21523
868.233	21530
868.364	21591
868.495	21610
868.625	21660
868.756	21861
868.886	21705
869.017	21724
869.147	21823
869.278	21785
869.408	21899
869.539	21827
869.669	21911
869.799	21918
869.929	21865
870.06	21975
870.19	22147
870.32	22029
870.45	22166
870.58	22097
870.71	22303
870.84	22211
870.97	22219
871.1	22128
871.23	22352
871.36	22333
871.489	22223
871.619	22299
871.749	22375
871.879	22443
872.008	22561
872.138	22329
872.267	22280
872.397	22185
872.526	22200
872.656	22238
872.785	22169
872.915	22329
873.044	22447
873.173	22341
873.303	22421
873.432	22542
873.561	22504
873.69	22394
873.819	22352
873.948	22443
874.077	22459
874.206	22337
874.335	22375
874.464	22474
874.593	22759
874.722	22569
874.851	22615
874.979	22599
875.108	22641
875.237	22710
875.365	22596
875.494	22634
875.623	22679
875.751	22675
875.88	22508
876.008	22664
876.136	22759
876.265	23048
876.393	23098
876.521	23067
876.65	23159
876.778	22949
876.906	22984
877.034	22904
877.162	22987
877.29	22938
877.418	22877
877.546	22949
877.674	22881
877.802	22911
877.93	23041
878.058	22812
878.185	22847
878.313	22934
878.441	22938
878.568	22839
878.696	22835
878.824	22847
878.951	23064
879.079	23162
879.206	23212
879.333	23174
879.461	22984
879.588	23098
879.715	23277
879.842	23296
879.97	22991
880.097	22801
880.224	22729
880.351	22771
880.478	22843
880.605	22706
880.732	22736
880.859	22915
880.986	22767
881.112	22755
881.239	22596
881.366	22367
881.493	22398
881.619	22356
881.746	22474
881.872	22409
881.999	22371
882.125	22280
882.252	22432
882.378	22295
882.505	22421
882.631	22219
882.757	22021
882.883	22055
883.01	22120
883.136	21964
883.262	21865
883.388	21827
883.514	22002
883.64	22090
883.766	21884
883.892	21781
884.018	21736
884.143	21869
884.269	21953
884.395	21705
884.52	21675
884.646	21679
884.772	21530
884.897	21507
885.023	21679
885.148	21842
885.274	21698
885.399	21797
885.524	21648
885.65	21690
885.775	21583
885.9	21545
886.025	21701
886.15	21603
886.275	21622
886.4	21614
886.525	21625
886.65	21591
886.775	21633
886.9	21819
887.025	21755
887.149	21633
887.274	21466
887.399	21374
887.523	21454
887.648	21408
887.773	21412
887.897	21549
888.021	21545
888.146	21389
888.27	21557
888.395	21462
888.519	21488
888.643	21454
888.767	21340
888.891	21214
889.015	21264
889.139	21321
889.263	21108
889.387	21237
889.511	21492
889.635	21428
889.759	21180
889.883	21252
890.006	21085
890.13	21268
890.254	21131
890.377	21218
890.501	21020
890.624	20921
890.748	20918
890.871	20899
890.995	20788
891.118	20750
891.241	20883
891.364	20902
891.488	21085
891.611	20697
891.734	20853
891.857	20743
891.98	20796
892.103	20838
892.226	20746
892.349	20708
892.471	20617
892.594	20754
892.717	20640
892.839	20617
892.962	20773
893.085	20842
893.207	20701
893.33	20617
893.452	20689
893.575	20648
893.697	20674
893.819	20781
893.941	20876
894.064	20842
894.186	20625
894.308	20564
894.43	20731
894.552	20731
894.674	20705
894.796	20457
894.918	20568
895.04	20568
895.161	20743
895.283	20640
895.405	20549
895.526	20598
895.648	20705
895.769	20689
895.891	20575
896.012	20697
896.134	20765
896.255	20689
896.376	20602
896.498	20629
896.619	20762
896.74	20636
896.861	20720
896.982	21074
897.103	21119
897.224	20982
897.345	20842
897.466	20815
897.587	20891
897.708	21020
897.828	20967
897.949	20849
898.07	20758
898.19	20777
898.311	20960
898.431	20815
898.552	20990
898.672	20956
898.792	20948
898.913	20921
899.033	20727
899.153	20625
899.273	20659
899.393	20606
899.513	20621
899.633	20708
899.753	20522
899.873	20465
899.993	20522
900.113	20655
900.232	20644
900.352	20617
900.472	20522
900.591	20431
900.711	20412
900.83	20412
900.95	20537
901.069	20434
901.189	20355
901.308	20065
901.427	19940
901.546	19959
901.665	19940
901.784	19852
901.904	19837
902.023	19811
902.141	19643
902.26	19510
902.379	19582
902.498	19449
902.617	19350
902.735	19400
902.854	19388
902.973	19476
903.091	19236
903.21	19187
903.328	19152
903.446	19091
903.565	18993
903.683	19015
903.801	18779
903.919	18825
904.038	18913
904.156	18658
904.274	18772
904.392	18620
904.51	18593
904.627	18654
904.745	18669
904.863	18764
904.981	18509
905.098	18369
905.216	18289
905.334	18452
905.451	18418
905.569	18254
905.686	18327
905.803	18228
905.921	18159
906.038	18239
906.155	18095
906.272	18003
906.389	18121
906.506	17923
906.623	17813
906.74	17897
906.857	17843
906.974	17832
907.091	18003
907.208	17942
907.324	17847
907.441	17703
907.557	17733
907.674	17581
907.79	17528
907.907	17505
908.023	17638
908.139	17608
908.256	17657
908.372	17425
908.488	17566
908.604	17414
908.72	17349
908.836	17337
908.952	17334
909.068	17307
909.184	17444
909.3	17303
909.415	17303
909.531	17227
909.647	17003
909.762	17086
909.878	17010
909.993	16949
910.108	16911
910.224	16942
910.339	16961
910.454	16949
910.57	16824
910.685	16744
910.8	17067
910.915	17029
911.03	16896
911.145	16759
911.259	16637
911.374	16630
911.489	16592
911.604	16485
911.718	16417
911.833	16367
911.947	16242
912.062	16238
912.176	16291
912.291	16379
912.405	16386
912.519	16569
912.633	16489
912.748	16344
912.862	16284
912.976	16086
913.09	16055
913.204	16242
913.318	16162
913.431	16272
913.545	16135
913.659	16162
913.772	16173
913.886	15922
914	15903
914.113	15960
914.226	16093
914.34	16010
914.453	15880
914.566	16006
914.68	15888
914.793	15717
914.906	15549
915.019	15439
915.132	15412
915.245	15519
915.358	15561
915.47	15568
915.583	15519
915.696	15610
915.809	15622
915.921	15614
916.034	15534
916.146	15485
916.259	15374
916.371	15511
916.483	15447
916.595	15428
916.708	15329
916.82	15416
916.932	15344
917.044	15382
917.156	15378
917.268	15176
917.38	15249
917.491	15214
917.603	15135
917.715	15218
917.826	15291
917.938	15108
918.049	15074
918.161	15081
918.272	15241
918.384	15180
918.495	15169
918.606	14921
918.717	14861
918.828	15047
918.939	15066
919.05	14788
919.161	14929
919.272	14697
919.383	14796
919.494	14960
919.604	15085
919.715	14804
919.826	14743
919.936	14929
920.047	14941
920.157	14853
920.267	15036
920.378	14918
920.488	14773
920.598	15028
920.708	15252
920.818	15066
920.928	14956
921.038	15131
921.148	15058
921.258	14807
921.368	14765
921.477	14674
921.587	14556
921.697	14503
921.806	14621
921.916	14400
922.025	14370
922.134	14358
922.244	14233
922.353	14256
922.462	14164
922.571	14062
922.68	13978
922.789	13864
922.898	13757
923.007	13814
923.116	13982
923.224	13913
923.333	13833
923.442	13750
923.55	13696
923.659	13772
923.767	13753
923.876	13639
923.984	13753
924.092	13563
924.201	13647
924.309	13632
924.417	13613
924.525	13605
924.633	13548
924.741	14317
924.849	13384
924.956	13422
925.064	13373
925.172	13263
925.279	13240
925.387	13263
925.494	13274
925.602	13335
925.709	13388
925.816	13133
925.924	13156
926.031	13373
926.138	13160
926.245	13255
926.352	13122
926.459	13304
926.566	13274
926.673	13190
926.779	13053
926.886	13050
926.993	12890
927.099	12924
927.206	12726
927.312	12875
927.419	12886
927.525	12867
927.631	12844
927.737	12730
927.843	12616
927.95	12536
928.056	12608
928.162	12798
928.267	12719
928.373	13179
928.479	12635
928.585	12429
928.69	12646
928.796	12608
928.901	12528
929.007	12342
929.112	12498
929.218	12452
929.323	12338
929.428	12357
929.533	12486
929.638	12273
929.743	12391
929.848	12418
929.953	12304
930.058	12178
930.163	12091
930.267	12060
930.372	12152
930.477	12030
930.581	12209
930.685	12098
930.79	11958
930.894	12015
930.998	11882
931.103	12083
931.207	11726
931.311	11562
931.415	11516
931.519	11311
931.623	11220
