Data from test_V78500241_2880.txt Node
Date: Fri Mar 25 16:01:45 CST 2022
User: usil
Spectrometer: V785-0024
Trigger mode: 0
Integration Time (sec): 4.000000E-1
Scans to average: 1
Nonlinearity correction enabled: false
Boxcar width: 0
Storing dark spectrum: false
XAxis mode: Wavelengths
Number of Pixels in Spectrum: 1024
>>>>>Begin Spectral Data<<<<<
801.071	28478
801.214	28516
801.356	28337
801.499	28207
801.641	28082
801.783	28162
801.926	28188
802.068	28139
802.211	27968
802.353	28093
802.496	27865
802.638	27823
802.78	27835
802.923	27762
803.065	27610
803.208	27713
803.35	27899
803.492	27903
803.635	28093
803.777	27838
803.919	27960
804.061	28367
804.204	28230
804.346	27937
804.488	27884
804.63	27987
804.773	27968
804.915	28188
805.057	28147
805.199	28067
805.341	28029
805.483	28188
805.626	28219
805.768	27873
805.91	28204
806.052	28188
806.194	28158
806.336	28344
806.478	28147
806.62	28120
806.762	28284
806.904	28459
807.046	28706
807.188	28569
807.33	28736
807.472	28805
807.614	28706
807.756	28653
807.898	28523
808.04	28436
808.182	28394
808.324	28497
808.465	28531
808.607	28736
808.749	28854
808.891	28892
809.033	28881
809.174	28980
809.316	28778
809.458	28786
809.6	28710
809.741	28885
809.883	29052
810.025	29064
810.166	29181
810.308	29155
810.45	29014
810.591	29083
810.733	28999
810.875	28850
811.016	28904
811.158	28767
811.299	29022
811.441	28908
811.582	29060
811.724	28831
811.865	28786
812.007	28972
812.148	28908
812.29	28839
812.431	29079
812.573	29216
812.714	29235
812.855	29368
812.997	29463
813.138	29649
813.279	29452
813.421	29402
813.562	29410
813.703	29345
813.845	29170
813.986	28820
814.127	28672
814.268	28622
814.41	28546
814.551	28561
814.692	28691
814.833	28569
814.974	28466
815.115	28588
815.256	28546
815.397	28497
815.539	28417
815.68	28424
815.821	28310
815.962	28436
816.103	28432
816.244	28272
816.385	28166
816.526	28223
816.666	28051
816.807	27884
816.948	27895
817.089	27979
817.23	27945
817.371	27922
817.512	27930
817.653	27846
817.793	27789
817.934	27827
818.075	27827
818.216	27778
818.356	27747
818.497	27816
818.638	27671
818.778	27660
818.919	27713
819.06	27606
819.2	27800
819.341	27914
819.481	27884
819.622	28082
819.762	28188
819.903	28135
820.043	28188
820.184	28040
820.324	28063
820.465	28135
820.605	28021
820.746	27930
820.886	27755
821.026	28059
821.167	27804
821.307	27956
821.447	27994
821.588	27873
821.728	27732
821.868	27538
822.008	27431
822.149	27287
822.289	27378
822.429	27062
822.569	26948
822.709	27055
822.849	26952
822.99	26819
823.13	26853
823.27	26701
823.41	26701
823.55	26568
823.69	26712
823.83	26769
823.97	26560
824.11	26545
824.25	26571
824.389	26476
824.529	26556
824.669	26636
824.809	26659
824.949	26621
825.089	26625
825.228	26560
825.368	26393
825.508	26381
825.648	26442
825.787	26408
825.927	26465
826.067	26389
826.206	26400
826.346	26450
826.485	26473
826.625	26438
826.765	26571
826.904	26374
827.044	26202
827.183	26138
827.323	26092
827.462	26240
827.601	26024
827.741	26161
827.88	26138
828.02	26024
828.159	25993
828.298	26058
828.437	26043
828.577	26043
828.716	26252
828.855	25986
828.994	25849
829.134	25799
829.273	25932
829.412	25799
829.551	25719
829.69	25887
829.829	25955
829.968	25784
830.107	25944
830.246	25780
830.385	25780
830.524	25616
830.663	25639
830.802	25590
830.941	25590
831.08	25388
831.219	25457
831.357	25487
831.496	25658
831.635	25255
831.774	25362
831.913	25316
832.051	25320
832.19	25114
832.329	25168
832.467	25084
832.606	25057
832.744	25072
832.883	25095
833.022	24958
833.16	25247
833.299	25175
833.437	25141
833.576	25031
833.714	25023
833.852	25263
833.991	25137
834.129	25152
834.267	25206
834.406	25053
834.544	25126
834.682	25179
834.821	25080
834.959	25266
835.097	25015
835.235	25228
835.373	25175
835.511	25148
835.65	25187
835.788	24996
835.926	24791
836.064	24684
836.202	24768
836.34	25107
836.478	25129
836.615	24928
836.753	24913
836.891	24909
837.029	25012
837.167	24844
837.305	24852
837.443	24833
837.58	24688
837.718	24928
837.856	24814
837.993	24852
838.131	24768
838.269	24692
838.406	24509
838.544	24498
838.681	24308
838.819	24452
838.956	24285
839.094	24205
839.231	24311
839.369	24243
839.506	24582
839.643	24563
839.781	24213
839.918	24053
840.055	24152
840.193	24311
840.33	24148
840.467	24209
840.604	24235
840.742	24414
840.879	24049
841.016	24155
841.153	24064
841.29	24178
841.427	24117
841.564	24171
841.701	24148
841.838	24159
841.975	24152
842.112	24117
842.249	24087
842.385	23908
842.522	24079
842.659	24041
842.796	23923
842.933	23874
843.069	23802
843.206	23946
843.343	23961
843.479	23939
843.616	23946
843.752	23722
843.889	23630
844.025	23695
844.162	23604
844.298	23726
844.435	23646
844.571	23627
844.708	23665
844.844	23954
844.98	23832
845.117	23714
845.253	23600
845.389	23543
845.525	23547
845.661	23539
845.798	23345
845.934	23452
846.07	23334
846.206	23486
846.342	23638
846.478	23482
846.614	23212
846.75	23113
846.886	23185
847.022	23235
847.158	23159
847.294	23162
847.429	23265
847.565	23121
847.701	23383
847.837	22835
847.972	22816
848.108	22965
848.244	22911
848.379	22755
848.515	22634
848.65	22782
848.786	22835
848.921	22820
849.057	22790
849.192	22835
849.328	22847
849.463	22736
849.598	22649
849.734	22683
849.869	22584
850.004	22493
850.14	22561
850.275	22424
850.41	22451
850.545	22447
850.68	22554
850.815	22512
850.95	22447
851.085	22698
851.22	22630
851.355	22485
851.49	22504
851.625	22367
851.76	22478
851.895	22424
852.03	22443
852.165	22542
852.299	22516
852.434	22455
852.569	22394
852.703	22523
852.838	22694
852.973	22550
853.107	22523
853.242	22379
853.376	22287
853.511	22223
853.645	22219
853.78	22405
853.914	22413
854.048	22265
854.183	22246
854.317	22363
854.451	22584
854.585	22329
854.72	22310
854.854	22455
854.988	22295
855.122	22405
855.256	22192
855.39	22215
855.524	22367
855.658	22344
855.792	22329
855.926	22379
856.06	22287
856.194	22466
856.327	22352
856.461	22188
856.595	22204
856.729	22204
856.862	22310
856.996	22409
857.13	22451
857.263	22481
857.397	22333
857.53	22337
857.664	22303
857.797	22466
857.931	22455
858.064	22295
858.197	22314
858.331	22249
858.464	22261
858.597	22059
858.731	22226
858.864	22230
858.997	22280
859.13	22257
859.263	22440
859.396	22493
859.529	22257
859.662	22299
859.795	22394
859.928	22295
860.061	22455
860.194	22634
860.327	22421
860.46	22390
860.592	22382
860.725	22390
860.858	22379
860.99	22409
861.123	22135
861.256	22169
861.388	22287
861.521	23033
861.653	22181
861.786	22112
861.918	22078
862.05	22230
862.183	22246
862.315	22363
862.447	22390
862.58	22322
862.712	22120
862.844	21983
862.976	22090
863.108	22154
863.24	22535
863.372	21979
863.504	22002
863.636	21991
863.768	22070
863.9	22017
864.032	21979
864.164	22082
864.296	22002
864.428	22200
864.559	22067
864.691	22044
864.823	22070
864.954	21915
865.086	21915
865.217	21861
865.349	21922
865.48	21926
865.612	21991
865.743	21937
865.875	21800
866.006	21774
866.137	22013
866.269	21842
866.4	21861
866.531	21956
866.662	21819
866.793	21865
866.924	21937
867.055	21895
867.186	21869
867.317	21728
867.448	21861
867.579	21736
867.71	21808
867.841	21755
867.972	21945
868.103	21816
868.233	21778
868.364	21797
868.495	21873
868.625	22017
868.756	22295
868.886	22051
869.017	22017
869.147	22402
869.278	22249
869.408	22135
869.539	22128
869.669	22204
869.799	22166
869.929	22287
870.06	22204
870.19	22550
870.32	22337
870.45	22443
870.58	22417
870.71	22592
870.84	22523
870.97	22538
871.1	22538
871.23	22565
871.36	22828
871.489	22527
871.619	22611
871.749	22645
871.879	22748
872.008	22687
872.138	22615
872.267	22645
872.397	22618
872.526	22622
872.656	22523
872.785	22436
872.915	22615
873.044	22763
873.173	22748
873.303	22645
873.432	22691
873.561	22816
873.69	22919
873.819	22675
873.948	22721
874.077	22736
874.206	22573
874.335	22672
874.464	22790
874.593	22873
874.722	22824
874.851	22877
874.979	22831
875.108	23018
875.237	22927
875.365	22904
875.494	22816
875.623	23075
875.751	22976
875.88	22915
876.008	23044
876.136	23128
876.265	23242
876.393	23486
876.521	23497
876.65	23372
876.778	23326
876.906	23303
877.034	23181
877.162	23341
877.29	23170
877.418	23220
877.546	23258
877.674	23379
877.802	23235
877.93	23189
878.058	23227
878.185	23189
878.313	23307
878.441	23227
878.568	23071
878.696	23105
878.824	23246
878.951	23299
879.079	23353
879.206	23535
879.333	23315
879.461	23265
879.588	23417
879.715	23452
879.842	23512
879.97	23383
880.097	22995
880.224	23185
880.351	23212
880.478	23159
880.605	22934
880.732	23151
880.859	23307
880.986	23090
881.112	23189
881.239	22915
881.366	22702
881.493	22615
881.619	22729
881.746	22656
881.872	22729
881.999	22565
882.125	22557
882.252	22634
882.378	22508
882.505	22778
882.631	22519
882.757	22280
882.883	22432
883.01	22398
883.136	22440
883.262	22139
883.388	22139
883.514	22310
883.64	22329
883.766	22181
883.892	21987
884.018	22070
884.143	22128
884.269	22291
884.395	22021
884.52	22059
884.646	22029
884.772	21964
884.897	21895
885.023	21880
885.148	21956
885.274	22097
885.399	22055
885.524	21998
885.65	21930
885.775	21949
885.9	22048
886.025	22036
886.15	21975
886.275	22032
886.4	21705
886.525	21956
886.65	21751
886.775	21876
886.9	21983
887.025	22105
887.149	21926
887.274	21808
887.399	21679
887.523	21679
887.648	21648
887.773	21568
887.897	21778
888.021	21686
888.146	21663
888.27	21762
888.395	21739
888.519	21770
888.643	21895
888.767	21789
888.891	21614
889.015	21526
889.139	21466
889.263	21511
889.387	21663
889.511	21728
889.635	21641
889.759	21454
889.883	21534
890.006	21583
890.13	21633
890.254	21424
890.377	21428
890.501	21211
890.624	21203
890.748	21363
890.871	21173
890.995	21028
891.118	20944
891.241	21100
891.364	21013
891.488	21127
891.611	21058
891.734	21119
891.857	20982
891.98	21020
892.103	21017
892.226	20990
892.349	20910
892.471	20872
892.594	20933
892.717	20994
892.839	20906
892.962	20819
893.085	20982
893.207	20944
893.33	20842
893.452	20811
893.575	21005
893.697	20933
893.819	21131
893.941	21184
894.064	21070
894.186	20811
894.308	20830
894.43	20861
894.552	21085
894.674	21081
894.796	20811
894.918	20815
895.04	20880
895.161	20929
895.283	20921
895.405	20921
895.526	20861
895.648	20918
895.769	20933
895.891	20960
896.012	21043
896.134	20952
896.255	20975
896.376	20823
896.498	20967
896.619	20899
896.74	20906
896.861	21017
896.982	21207
897.103	21348
897.224	21275
897.345	21226
897.466	21131
897.587	21074
897.708	21207
897.828	21116
897.949	21066
898.07	20994
898.19	20990
898.311	21146
898.431	21013
898.552	21138
898.672	21192
898.792	21256
898.913	21119
899.033	21001
899.153	20902
899.273	20807
899.393	20918
899.513	20804
899.633	20769
899.753	20906
899.873	20743
899.993	20925
900.113	20720
900.232	20845
900.352	20762
900.472	20716
900.591	20549
900.711	20731
900.83	20629
900.95	20617
901.069	20674
901.189	20415
901.308	20275
901.427	20168
901.546	20225
901.665	20122
901.784	20214
901.904	20081
902.023	19974
902.141	19772
902.26	19746
902.379	19818
902.498	19712
902.617	19689
902.735	19658
902.854	19689
902.973	19651
903.091	19377
903.21	19464
903.328	19320
903.446	19259
903.565	19160
903.683	19091
903.801	19053
903.919	19110
904.038	19129
904.156	18905
904.274	18985
904.392	18958
904.51	18920
904.627	18920
904.745	19008
904.863	18932
904.981	18677
905.098	18566
905.216	18593
905.334	18555
905.451	18574
905.569	18620
905.686	18627
905.803	18574
905.921	18445
906.038	18464
906.155	18445
906.272	18273
906.389	18266
906.506	18159
906.623	18110
906.74	18140
906.857	18011
906.974	18030
907.091	18190
907.208	18251
907.324	18205
907.441	18038
907.557	17687
907.674	17901
907.79	17802
907.907	17786
908.023	17821
908.139	17817
908.256	17794
908.372	17653
908.488	17611
908.604	17600
908.72	17463
908.836	17611
908.952	17474
909.068	17596
909.184	17718
909.3	17482
909.415	17547
909.531	17520
909.647	17326
909.762	17105
909.878	17185
909.993	17250
910.108	17185
910.224	17155
910.339	17067
910.454	17155
910.57	17094
910.685	16946
910.8	17296
910.915	17208
911.03	17003
911.145	16850
911.259	16793
911.374	16919
911.489	16847
911.604	16717
911.718	16538
911.833	16580
911.947	16523
912.062	16455
912.176	16538
912.291	16603
912.405	16455
912.519	16786
912.633	16774
912.748	16672
912.862	16443
912.976	16352
913.09	16230
913.204	16268
913.318	16379
913.431	16485
913.545	16443
913.659	16459
913.772	16386
913.886	16192
914	16074
914.113	16284
914.226	16272
914.34	16242
914.453	16040
914.566	16143
914.68	16017
914.793	16010
914.906	15789
915.019	15709
915.132	15686
915.245	15694
915.358	15793
915.47	15808
915.583	15732
915.696	15842
915.809	15895
915.921	15888
916.034	15747
916.146	15644
916.259	15652
916.371	15766
916.483	15542
916.595	15614
916.708	15580
916.82	15492
916.932	15557
917.044	15443
917.156	15469
917.268	15405
917.38	15420
917.491	15454
917.603	15332
917.715	15485
917.826	15439
917.938	15249
918.049	15173
918.161	15359
918.272	15443
918.384	15397
918.495	15310
918.606	15169
918.717	15047
918.828	15165
918.939	15207
919.05	15058
919.161	15116
919.272	14849
919.383	15028
919.494	15097
919.604	15283
919.715	15066
919.826	14979
919.936	15150
920.047	15131
920.157	15207
920.267	15233
920.378	15116
920.488	14960
920.598	15184
920.708	15340
920.818	15241
920.928	15241
921.038	15237
921.148	15321
921.258	15089
921.368	14918
921.477	14823
921.587	14785
921.697	14621
921.806	14819
921.916	14670
922.025	14434
922.134	14465
922.244	14461
922.353	14450
922.462	14415
922.571	14271
922.68	14172
922.789	14035
922.898	14111
923.007	13951
923.116	14115
923.224	14039
923.333	14031
923.442	13963
923.55	13875
923.659	13963
923.767	14020
923.876	13826
923.984	13913
924.092	13803
924.201	13814
924.309	13811
924.417	13753
924.525	13811
924.633	13693
924.741	14571
924.849	13476
924.956	13594
925.064	13533
925.172	13495
925.279	13434
925.387	13419
925.494	13480
925.602	13609
925.709	13597
925.816	13464
925.924	13411
926.031	13499
926.138	13426
926.245	13438
926.352	13255
926.459	13396
926.566	13438
926.673	13289
926.779	13198
926.886	13232
926.993	13053
927.099	13004
927.206	12913
927.312	12928
927.419	13042
927.525	12996
927.631	12970
927.737	12882
927.843	12920
927.95	12753
928.056	12817
928.162	12760
928.267	12817
928.373	13464
928.479	12783
928.585	12578
928.69	12726
928.796	12776
928.901	12734
929.007	12467
929.112	12582
929.218	12654
929.323	12585
929.428	12460
929.533	12574
929.638	12525
929.743	12471
929.848	12441
929.953	12502
930.058	12315
930.163	12247
930.267	12213
930.372	12296
930.477	12247
930.581	12300
930.685	12273
930.79	12228
930.894	12129
930.998	12079
931.103	12251
931.207	11878
931.311	11767
931.415	11764
931.519	11467
931.623	11410
