Data from test_V78500241_3549.txt Node
Date: Fri Mar 25 16:06:23 CST 2022
User: usil
Spectrometer: V785-0024
Trigger mode: 0
Integration Time (sec): 4.000000E-1
Scans to average: 1
Nonlinearity correction enabled: false
Boxcar width: 0
Storing dark spectrum: false
XAxis mode: Wavelengths
Number of Pixels in Spectrum: 1024
>>>>>Begin Spectral Data<<<<<
801.071	28972
801.214	28885
801.356	28588
801.499	28569
801.641	28637
801.783	28409
801.926	28679
802.068	28607
802.211	28462
802.353	28424
802.496	28306
802.638	28185
802.78	28226
802.923	28200
803.065	28162
803.208	28143
803.35	28223
803.492	28306
803.635	28451
803.777	28405
803.919	28561
804.061	28797
804.204	28577
804.346	28348
804.488	28295
804.63	28451
804.773	28443
804.915	28596
805.057	28767
805.199	28611
805.341	28660
805.483	28679
805.626	28710
805.768	28561
805.91	28512
806.052	28573
806.194	28668
806.336	28736
806.478	28557
806.62	28691
806.762	28717
806.904	28908
807.046	29079
807.188	29086
807.33	29071
807.472	29140
807.614	28968
807.756	29220
807.898	28987
808.04	28934
808.182	28904
808.324	28949
808.465	29025
808.607	29261
808.749	29490
808.891	29535
809.033	29391
809.174	29414
809.316	29414
809.458	29326
809.6	29337
809.741	29421
809.883	29425
810.025	29729
810.166	29615
810.308	29680
810.45	29493
810.591	29615
810.733	29471
810.875	29254
811.016	29288
811.158	29273
811.299	29490
811.441	29501
811.582	29619
811.724	29341
811.865	29356
812.007	29459
812.148	29330
812.29	29452
812.431	29493
812.573	29646
812.714	29843
812.855	30057
812.997	29965
813.138	30201
813.279	30034
813.421	29916
813.562	29840
813.703	29649
813.845	29585
813.986	29474
814.127	29178
814.268	29105
814.41	29128
814.551	28957
814.692	29250
814.833	28869
814.974	29090
815.115	29086
815.256	29071
815.397	29018
815.539	29079
815.68	28881
815.821	28908
815.962	28987
816.103	28843
816.244	28767
816.385	28687
816.526	28561
816.666	28462
816.807	28310
816.948	28504
817.089	28474
817.23	28481
817.371	28390
817.512	28390
817.653	28405
817.793	28371
817.934	28382
818.075	28356
818.216	28356
818.356	28337
818.497	28173
818.638	28173
818.778	28295
818.919	28192
819.06	28192
819.2	28352
819.341	28432
819.481	28363
819.622	28538
819.762	28900
819.903	28721
820.043	28790
820.184	28656
820.324	28523
820.465	28786
820.605	28607
820.746	28508
820.886	28417
821.026	28599
821.167	28443
821.307	28481
821.447	28421
821.588	28432
821.728	28169
821.868	28025
822.008	27922
822.149	27953
822.289	27899
822.429	27576
822.569	27599
822.709	27656
822.849	27313
822.99	27340
823.13	27340
823.27	27195
823.41	27233
823.55	27207
823.69	27283
823.83	27195
823.97	27157
824.11	27116
824.25	26948
824.389	26986
824.529	27119
824.669	27051
824.809	27207
824.949	27188
825.089	27112
825.228	27036
825.368	26933
825.508	26944
825.648	26830
825.787	26914
825.927	26998
826.067	26944
826.206	26899
826.346	27009
826.485	26823
826.625	27028
826.765	27203
826.904	26998
827.044	26716
827.183	26834
827.323	26716
827.462	26667
827.601	26667
827.741	26579
827.88	26701
828.02	26629
828.159	26644
828.298	26629
828.437	26670
828.577	26594
828.716	26655
828.855	26537
828.994	26412
829.134	26358
829.273	26332
829.412	26400
829.551	26252
829.69	26499
829.829	26320
829.968	26408
830.107	26358
830.246	26252
830.385	26290
830.524	26191
830.663	26187
830.802	26081
830.941	25921
831.08	25928
831.219	26077
831.357	26031
831.496	26187
831.635	25970
831.774	25898
831.913	25879
832.051	25757
832.19	25662
832.329	25700
832.467	25723
832.606	25502
832.744	25552
832.883	25601
833.022	25731
833.16	25712
833.299	25544
833.437	25685
833.576	25651
833.714	25738
833.852	25738
833.991	25708
834.129	25811
834.267	25818
834.406	25681
834.544	25799
834.682	25613
834.821	25616
834.959	25830
835.097	25742
835.235	25833
835.373	25613
835.511	25685
835.65	25548
835.788	25521
835.926	25460
836.064	25304
836.202	25388
836.34	25457
836.478	25563
836.615	25495
836.753	25582
836.891	25499
837.029	25441
837.167	25301
837.305	25457
837.443	25381
837.58	25362
837.718	25422
837.856	25346
837.993	25339
838.131	25362
838.269	25145
838.406	25232
838.544	25129
838.681	25027
838.819	24951
838.956	24795
839.094	24730
839.231	24787
839.369	25019
839.506	25289
839.643	25152
839.781	24772
839.918	24806
840.055	24684
840.193	24711
840.33	24878
840.467	24749
840.604	24677
840.742	24886
840.879	24612
841.016	24593
841.153	24494
841.29	24749
841.427	24582
841.564	24833
841.701	24711
841.838	24631
841.975	24521
842.112	24684
842.249	24544
842.385	24452
842.522	24768
842.659	24566
842.796	24422
842.933	24517
843.069	24441
843.206	24296
843.343	24445
843.479	24403
843.616	24327
843.752	24243
843.889	24174
844.025	24498
844.162	24209
844.298	24391
844.435	24194
844.571	24186
844.708	24243
844.844	24327
844.98	24346
845.117	24254
845.253	24186
845.389	23984
845.525	24095
845.661	24171
845.798	24053
845.934	24030
846.07	23931
846.206	24045
846.342	24102
846.478	23988
846.614	23665
846.75	23638
846.886	23661
847.022	23802
847.158	23691
847.294	23722
847.429	23665
847.565	23646
847.701	23908
847.837	23391
847.972	23341
848.108	23577
848.244	23444
848.379	23269
848.515	23254
848.65	23143
848.786	23277
848.921	23239
849.057	23421
849.192	23311
849.328	23356
849.463	23280
849.598	23223
849.734	23113
849.869	23185
850.004	22957
850.14	23185
850.275	23071
850.41	23041
850.545	22942
850.68	23048
850.815	22991
850.95	23056
851.085	23322
851.22	23178
851.355	23018
851.49	22911
851.625	23018
851.76	23025
851.895	22927
852.03	22889
852.165	23094
852.299	22987
852.434	23170
852.569	23121
852.703	22942
852.838	23006
852.973	23102
853.107	23098
853.242	22862
853.376	22866
853.511	22824
853.645	22748
853.78	22976
853.914	22877
854.048	22790
854.183	22831
854.317	22995
854.451	23094
854.585	22774
854.72	22850
854.854	22984
854.988	22835
855.122	22908
855.256	22713
855.39	22816
855.524	22930
855.658	22820
855.792	22972
855.926	22885
856.06	22972
856.194	22927
856.327	23029
856.461	22824
856.595	22839
856.729	22873
856.862	22862
856.996	22889
857.13	22900
857.263	23037
857.397	23006
857.53	22809
857.664	22854
857.797	22904
857.931	22991
858.064	22927
858.197	22938
858.331	22622
858.464	22847
858.597	22797
858.731	22805
858.864	22831
858.997	22866
859.13	22881
859.263	22934
859.396	22949
859.529	22782
859.662	22839
859.795	22900
859.928	22915
860.061	23010
860.194	23064
860.327	22957
860.46	22927
860.592	22911
860.725	23025
860.858	22911
860.99	22862
861.123	22869
861.256	22733
861.388	22904
861.521	23646
861.653	22786
861.786	22736
861.918	22812
862.05	22702
862.183	22839
862.315	22793
862.447	22976
862.58	22790
862.712	22691
862.844	22626
862.976	22679
863.108	22748
863.24	23056
863.372	22588
863.504	22535
863.636	22622
863.768	22736
863.9	22565
864.032	22500
864.164	22523
864.296	22634
864.428	22660
864.559	22550
864.691	22599
864.823	22485
864.954	22413
865.086	22512
865.217	22542
865.349	22394
865.48	22405
865.612	22394
865.743	22436
865.875	22561
866.006	22424
866.137	22462
866.269	22493
866.4	22459
866.531	22424
866.662	22341
866.793	22405
866.924	22325
867.055	22386
867.186	22356
867.317	22310
867.448	22352
867.579	22382
867.71	22363
867.841	22268
867.972	22352
868.103	22447
868.233	22382
868.364	22451
868.495	22580
868.625	22481
868.756	22698
868.886	22603
869.017	22588
869.147	22721
869.278	22752
869.408	22679
869.539	22656
869.669	22599
869.799	22694
869.929	22755
870.06	22801
870.19	23086
870.32	22790
870.45	22999
870.58	23102
870.71	23102
870.84	23147
870.97	23071
871.1	23022
871.23	23140
871.36	23185
871.489	23090
871.619	23284
871.749	23284
871.879	23284
872.008	23303
872.138	23261
872.267	23280
872.397	22934
872.526	22995
872.656	23098
872.785	23029
872.915	23326
873.044	23269
873.173	23246
873.303	23353
873.432	23181
873.561	23349
873.69	23193
873.819	23280
873.948	23471
874.077	23254
874.206	23273
874.335	23185
874.464	23463
874.593	23421
874.722	23433
874.851	23539
874.979	23421
875.108	23535
875.237	23273
875.365	23395
875.494	23341
875.623	23558
875.751	23467
875.88	23516
876.008	23501
876.136	23722
876.265	23809
876.393	24053
876.521	23843
876.65	23874
876.778	23904
876.906	23745
877.034	23733
877.162	23760
877.29	23615
877.418	23824
877.546	23733
877.674	23718
877.802	23843
877.93	23722
878.058	23756
878.185	23570
878.313	23638
878.441	23786
878.568	23566
878.696	23703
878.824	23893
878.951	23824
879.079	23935
879.206	24060
879.333	23908
879.461	23878
879.588	23904
879.715	23939
879.842	24254
879.97	23832
880.097	23570
880.224	23581
880.351	23649
880.478	23695
880.605	23505
880.732	23611
880.859	23923
880.986	23638
881.112	23668
881.239	23452
881.366	23376
881.493	23174
881.619	23341
881.746	23227
881.872	23159
881.999	23162
882.125	23044
882.252	23166
882.378	23067
882.505	23307
882.631	23010
882.757	22839
882.883	22942
883.01	22965
883.136	22786
883.262	22656
883.388	22706
883.514	22843
883.64	22953
883.766	22824
883.892	22641
884.018	22538
884.143	22717
884.269	22915
884.395	22599
884.52	22447
884.646	22474
884.772	22409
884.897	22344
885.023	22485
885.148	22500
885.274	22557
885.399	22489
885.524	22394
885.65	22409
885.775	22470
885.9	22386
886.025	22618
886.15	22622
886.275	22356
886.4	22443
886.525	22519
886.65	22405
886.775	22436
886.9	22504
887.025	22641
887.149	22546
887.274	22367
887.399	22253
887.523	22265
887.648	22238
887.773	22078
887.897	22341
888.021	22196
888.146	22253
888.27	22432
888.395	22299
888.519	22196
888.643	22249
888.767	22276
888.891	22097
889.015	21979
889.139	21922
889.263	22040
889.387	21994
889.511	21994
889.635	22090
889.759	21892
889.883	21956
890.006	21934
890.13	22036
890.254	21949
890.377	21850
890.501	21762
890.624	21755
890.748	21827
890.871	21652
890.995	21686
891.118	21496
891.241	21572
891.364	21485
891.488	21675
891.611	21698
891.734	21553
891.857	21599
891.98	21504
892.103	21488
892.226	21576
892.349	21572
892.471	21412
892.594	21462
892.717	21481
892.839	21401
892.962	21382
893.085	21545
893.207	21477
893.33	21218
893.452	21363
893.575	21549
893.697	21431
893.819	21530
893.941	21603
894.064	21515
894.186	21249
894.308	21310
894.43	21374
894.552	21519
894.674	21420
894.796	21370
894.918	21401
895.04	21306
895.161	21523
895.283	21450
895.405	21325
895.526	21275
895.648	21325
895.769	21367
895.891	21458
896.012	21401
896.134	21355
896.255	21416
896.376	21233
896.498	21325
896.619	21344
896.74	21313
896.861	21447
896.982	21743
897.103	21770
897.224	21618
897.345	21530
897.466	21564
897.587	21629
897.708	21762
897.828	21682
897.949	21485
898.07	21336
898.19	21583
898.311	21755
898.431	21515
898.552	21622
898.672	21576
898.792	21603
898.913	21469
899.033	21412
899.153	21374
899.273	21252
899.393	21367
899.513	21408
899.633	21382
899.753	21249
899.873	21245
899.993	21382
900.113	21169
900.232	21332
900.352	21207
900.472	21165
900.591	21013
900.711	21089
900.83	21039
900.95	21104
901.069	21245
901.189	20925
901.308	20727
901.427	20541
901.546	20636
901.665	20667
901.784	20503
901.904	20461
902.023	20423
902.141	20145
902.26	20267
902.379	20168
902.498	20119
902.617	20035
902.735	20221
902.854	20054
902.973	19997
903.091	19925
903.21	19788
903.328	19750
903.446	19700
903.565	19696
903.683	19681
903.801	19445
903.919	19597
904.038	19537
904.156	19396
904.274	19499
904.392	19362
904.51	19324
904.627	19301
904.745	19445
904.863	19373
904.981	19118
905.098	19019
905.216	19095
905.334	19046
905.451	18966
905.569	18932
905.686	19015
905.803	18996
905.921	18916
906.038	18928
906.155	18920
906.272	18677
906.389	18711
906.506	18437
906.623	18559
906.74	18551
906.857	18521
906.974	18445
907.091	18585
907.208	18604
907.324	18540
907.441	18426
907.557	18254
907.674	18243
907.79	18273
907.907	18243
908.023	18292
908.139	18258
908.256	18136
908.372	18053
908.488	18136
908.604	17935
908.72	17878
908.836	17996
908.952	17950
909.068	17954
909.184	18060
909.3	17878
909.415	18045
909.531	17893
909.647	17623
909.762	17687
909.878	17608
909.993	17604
910.108	17585
910.224	17509
910.339	17718
910.454	17406
910.57	17486
910.685	17398
910.8	17680
910.915	17558
911.03	17398
911.145	17269
911.259	17147
911.374	17140
911.489	17075
911.604	17083
911.718	16839
911.833	16911
911.947	16866
912.062	16828
912.176	16923
912.291	17052
912.405	16930
912.519	17166
912.633	17143
912.748	16953
912.862	16923
912.976	16831
913.09	16611
913.204	16717
913.318	16713
913.431	16854
913.545	16797
913.659	16904
913.772	16721
913.886	16622
914	16523
914.113	16626
914.226	16618
914.34	16558
914.453	16405
914.566	16618
914.68	16497
914.793	16261
914.906	16249
915.019	16135
915.132	16093
915.245	16055
915.358	16063
915.47	16120
915.583	16139
915.696	16074
915.809	16246
915.921	16158
916.034	16086
916.146	16017
916.259	15975
916.371	16169
916.483	16074
916.595	15865
916.708	15918
916.82	16032
916.932	15956
917.044	15953
917.156	15857
917.268	15709
917.38	15701
917.491	15709
917.603	15736
917.715	15812
917.826	15850
917.938	15667
918.049	15618
918.161	15637
918.272	15743
918.384	15679
918.495	15584
918.606	15519
918.717	15439
918.828	15515
918.939	15572
919.05	15306
919.161	15458
919.272	15241
919.383	15321
919.494	15496
919.604	15720
919.715	15466
919.826	15359
919.936	15386
920.047	15519
920.157	15401
920.267	15496
920.378	15363
920.488	15401
920.598	15462
920.708	15682
920.818	15500
920.928	15675
921.038	15690
921.148	15633
921.258	15374
921.368	15230
921.477	15036
921.587	15081
921.697	15032
921.806	15127
921.916	14925
922.025	14781
922.134	14781
922.244	14743
922.353	14785
922.462	14579
922.571	14545
922.68	14415
922.789	14408
922.898	14503
923.007	14286
923.116	14415
923.224	14339
923.333	14381
923.442	14320
923.55	14191
923.659	14214
923.767	14328
923.876	14172
923.984	14084
924.092	14031
924.201	14153
924.309	14138
924.417	14145
924.525	14058
924.633	14027
924.741	14960
924.849	13883
924.956	13974
925.064	13841
925.172	13643
925.279	13753
925.387	13822
925.494	13791
925.602	13871
925.709	13814
925.816	13761
925.924	13772
926.031	13852
926.138	13685
926.245	13830
926.352	13628
926.459	13746
926.566	13719
926.673	13757
926.779	13529
926.886	13468
926.993	13327
927.099	13384
927.206	13206
927.312	13297
927.419	13301
927.525	13324
927.631	13369
927.737	13221
927.843	13282
927.95	13122
928.056	13015
928.162	13129
928.267	13152
928.373	13799
928.479	13202
928.585	12981
928.69	13053
928.796	13209
928.901	12993
929.007	12825
929.112	13038
929.218	12924
929.323	12916
929.428	12783
929.533	12886
929.638	12760
929.743	12837
929.848	12810
929.953	12821
930.058	12692
930.163	12467
930.267	12551
930.372	12719
930.477	12486
930.581	12684
930.685	12544
930.79	12357
930.894	12407
930.998	12300
931.103	12585
931.207	12182
931.311	12079
931.415	11958
931.519	11794
931.623	11729
