Data from test_V78500241_1676.txt Node
Date: Fri Mar 25 15:53:24 CST 2022
User: usil
Spectrometer: V785-0024
Trigger mode: 0
Integration Time (sec): 4.000000E-1
Scans to average: 1
Nonlinearity correction enabled: false
Boxcar width: 0
Storing dark spectrum: false
XAxis mode: Wavelengths
Number of Pixels in Spectrum: 1024
>>>>>Begin Spectral Data<<<<<
801.071	28204
801.214	28139
801.356	27903
801.499	27922
801.641	27728
801.783	27907
801.926	27789
802.068	27842
802.211	27846
802.353	27641
802.496	27568
802.638	27412
802.78	27496
802.923	27252
803.065	27260
803.208	27336
803.35	27382
803.492	27500
803.635	27625
803.777	27507
803.919	27553
804.061	27945
804.204	27694
804.346	27644
804.488	27561
804.63	27492
804.773	27564
804.915	27739
805.057	27781
805.199	27724
805.341	27679
805.483	27884
805.626	27682
805.768	27736
805.91	27751
806.052	27884
806.194	27774
806.336	27975
806.478	27842
806.62	27797
806.762	27857
806.904	28097
807.046	28303
807.188	28223
807.33	28303
807.472	28166
807.614	28238
807.756	28211
807.898	28090
808.04	28093
808.182	27949
808.324	28051
808.465	28219
808.607	28295
808.749	28466
808.891	28588
809.033	28634
809.174	28485
809.316	28504
809.458	28352
809.6	28550
809.741	28516
809.883	28546
810.025	28847
810.166	28706
810.308	28831
810.45	28664
810.591	28622
810.733	28474
810.875	28500
811.016	28352
811.158	28299
811.299	28474
811.441	28694
811.582	28641
811.724	28360
811.865	28329
812.007	28447
812.148	28504
812.29	28466
812.431	28679
812.573	28824
812.714	28850
812.855	28957
812.997	29064
813.138	29265
813.279	29003
813.421	28915
813.562	28987
813.703	28782
813.845	28748
813.986	28360
814.127	28329
814.268	28284
814.41	28268
814.551	28124
814.692	28204
814.833	27975
814.974	28124
815.115	28162
815.256	28067
815.397	27998
815.539	28120
815.68	28101
815.821	27831
815.962	27892
816.103	27953
816.244	27994
816.385	27629
816.526	27637
816.666	27473
816.807	27329
816.948	27583
817.089	27564
817.23	27427
817.371	27511
817.512	27355
817.653	27332
817.793	27332
817.934	27412
818.075	27492
818.216	27351
818.356	27332
818.497	27302
818.638	27214
818.778	27180
818.919	27233
819.06	27351
819.2	27329
819.341	27450
819.481	27378
819.622	27511
819.762	27789
819.903	27739
820.043	27511
820.184	27648
820.324	27648
820.465	27633
820.605	27580
820.746	27443
820.886	27348
821.026	27633
821.167	27564
821.307	27587
821.447	27561
821.588	27370
821.728	27332
821.868	27249
822.008	26998
822.149	26975
822.289	27005
822.429	26811
822.569	26632
822.709	26674
822.849	26461
822.99	26404
823.13	26514
823.27	26393
823.41	26259
823.55	26202
823.69	26324
823.83	26263
823.97	26244
824.11	26084
824.25	25970
824.389	26062
824.529	26180
824.669	26092
824.809	26103
824.949	26122
825.089	26134
825.228	26077
825.368	26008
825.508	25902
825.648	25894
825.787	25970
825.927	26027
826.067	25769
826.206	25875
826.346	26035
826.485	25940
826.625	25917
826.765	26043
826.904	26084
827.044	25727
827.183	25727
827.323	25700
827.462	25814
827.601	25681
827.741	25605
827.88	25681
828.02	25438
828.159	25567
828.298	25575
828.437	25681
828.577	25635
828.716	25837
828.855	25609
828.994	25392
829.134	25365
829.273	25411
829.412	25168
829.551	25362
829.69	25365
829.829	25430
829.968	25457
830.107	25415
830.246	25266
830.385	25236
830.524	25244
830.663	25107
830.802	25057
830.941	24985
831.08	24935
831.219	25069
831.357	24989
831.496	25213
831.635	24985
831.774	24947
831.913	24916
832.051	24608
832.19	24692
832.329	24814
832.467	24525
832.606	24566
832.744	24574
832.883	24589
833.022	24570
833.16	24684
833.299	24696
833.437	24620
833.576	24757
833.714	24688
833.852	24719
833.991	24795
834.129	24821
834.267	24753
834.406	24688
834.544	24597
834.682	24726
834.821	24532
834.959	24901
835.097	24536
835.235	24844
835.373	24692
835.511	24715
835.65	24604
835.788	24608
835.926	24380
836.064	24308
836.202	24289
836.34	24456
836.478	24620
836.615	24502
836.753	24475
836.891	24616
837.029	24494
837.167	24517
837.305	24353
837.443	24456
837.58	24391
837.718	24528
837.856	24365
837.993	24338
838.131	24342
838.269	24281
838.406	24350
838.544	24117
838.681	23950
838.819	24129
838.956	23824
839.094	23813
839.231	23904
839.369	23889
839.506	24171
839.643	23935
839.781	23752
839.918	23843
840.055	23832
840.193	23741
840.33	23733
840.467	23843
840.604	23798
840.742	24022
840.879	23535
841.016	23600
841.153	23649
841.29	23916
841.427	23733
841.564	23779
841.701	23695
841.838	23566
841.975	23718
842.112	23695
842.249	23459
842.385	23551
842.522	23764
842.659	23687
842.796	23501
842.933	23474
843.069	23372
843.206	23425
843.343	23589
843.479	23406
843.616	23623
843.752	23227
843.889	23242
844.025	23448
844.162	23383
844.298	23322
844.435	23231
844.571	23208
844.708	23391
844.844	23429
844.98	23421
845.117	23364
845.253	23193
845.389	23010
845.525	23193
845.661	22930
845.798	22923
845.934	23075
846.07	23083
846.206	22999
846.342	23140
846.478	22995
846.614	22778
846.75	22618
846.886	22649
847.022	22733
847.158	22828
847.294	22793
847.429	22862
847.565	22611
847.701	23003
847.837	22538
847.972	22375
848.108	22538
848.244	22451
848.379	22284
848.515	22284
848.65	22363
848.786	22348
848.921	22352
849.057	22459
849.192	22432
849.328	22261
849.463	22234
849.598	22303
849.734	22196
849.869	22143
850.004	22097
850.14	22070
850.275	22078
850.41	21953
850.545	22010
850.68	21987
850.815	22063
850.95	22059
851.085	22181
851.22	22143
851.355	22032
851.49	22040
851.625	22048
851.76	22032
851.895	21972
852.03	21918
852.165	22131
852.299	22162
852.434	22044
852.569	22078
852.703	22105
852.838	22139
852.973	22147
853.107	22211
853.242	21983
853.376	21972
853.511	21755
853.645	21766
853.78	21964
853.914	21960
854.048	21975
854.183	21861
854.317	22010
854.451	22051
854.585	21831
854.72	21899
854.854	21949
854.988	21876
855.122	21899
855.256	21793
855.39	21968
855.524	21945
855.658	21934
855.792	21876
855.926	21831
856.06	21998
856.194	22002
856.327	21918
856.461	21823
856.595	21911
856.729	21873
856.862	22051
856.996	21994
857.13	22074
857.263	21945
857.397	21994
857.53	21895
857.664	21846
857.797	21873
857.931	21934
858.064	21956
858.197	22017
858.331	21934
858.464	21941
858.597	21793
858.731	21854
858.864	21831
858.997	21842
859.13	21922
859.263	21915
859.396	22017
859.529	21930
859.662	21899
859.795	21804
859.928	21949
860.061	22070
860.194	22124
860.327	21941
860.46	21865
860.592	22097
860.725	22082
860.858	21998
860.99	21899
861.123	21941
861.256	21903
861.388	21949
861.521	22554
861.653	21736
861.786	21622
861.918	21591
862.05	21717
862.183	21918
862.315	21922
862.447	21945
862.58	21679
862.712	21572
862.844	21428
862.976	21797
863.108	21686
863.24	22139
863.372	21599
863.504	21694
863.636	21583
863.768	21606
863.9	21671
864.032	21679
864.164	21576
864.296	21591
864.428	21690
864.559	21587
864.691	21797
864.823	21637
864.954	21633
865.086	21583
865.217	21447
865.349	21428
865.48	21450
865.612	21401
865.743	21530
865.875	21473
866.006	21477
866.137	21462
866.269	21488
866.4	21439
866.531	21462
866.662	21405
866.793	21310
866.924	21363
867.055	21424
867.186	21473
867.317	21329
867.448	21313
867.579	21416
867.71	21268
867.841	21298
867.972	21329
868.103	21454
868.233	21405
868.364	21428
868.495	21603
868.625	21690
868.756	21907
868.886	21633
869.017	21755
869.147	21736
869.278	21778
869.408	21766
869.539	21686
869.669	21739
869.799	21755
869.929	21812
870.06	21861
870.19	22002
870.32	22029
870.45	21975
870.58	22021
870.71	22101
870.84	22204
870.97	22070
871.1	21960
871.23	22128
871.36	22169
871.489	22158
871.619	22268
871.749	22150
871.879	22268
872.008	22306
872.138	22223
872.267	22234
872.397	22063
872.526	22093
872.656	22147
872.785	22101
872.915	22356
873.044	22356
873.173	22185
873.303	22219
873.432	22356
873.561	22325
873.69	22344
873.819	22204
873.948	22386
874.077	22382
874.206	22226
874.335	22276
874.464	22417
874.593	22561
874.722	22557
874.851	22641
874.979	22573
875.108	22500
875.237	22424
875.365	22348
875.494	22531
875.623	22497
875.751	22398
875.88	22466
876.008	22424
876.136	22736
876.265	22953
876.393	22961
876.521	22934
876.65	23052
876.778	22862
876.906	22767
877.034	22702
877.162	22877
877.29	22668
877.418	22908
877.546	22991
877.674	22858
877.802	22805
877.93	22744
878.058	22767
878.185	22725
878.313	22793
878.441	22877
878.568	22603
878.696	22801
878.824	22911
878.951	22949
879.079	22957
879.206	23193
879.333	23022
879.461	22881
879.588	22965
879.715	22896
879.842	22976
879.97	22946
880.097	22645
880.224	22599
880.351	22683
880.478	22736
880.605	22538
880.732	22744
880.859	22782
880.986	22717
881.112	22702
881.239	22561
881.366	22375
881.493	22447
881.619	22261
881.746	22226
881.872	22306
881.999	22158
882.125	22325
882.252	22242
882.378	22261
882.505	22474
882.631	22048
882.757	21979
882.883	22017
883.01	21911
883.136	21903
883.262	21842
883.388	21785
883.514	21994
883.64	21994
883.766	21892
883.892	21701
884.018	21808
884.143	21857
884.269	21949
884.395	21686
884.52	21500
884.646	21663
884.772	21523
884.897	21458
885.023	21511
885.148	21622
885.274	21656
885.399	21732
885.524	21610
885.65	21587
885.775	21542
885.9	21580
886.025	21682
886.15	21667
886.275	21587
886.4	21435
886.525	21576
886.65	21488
886.775	21549
886.9	21656
887.025	21717
887.149	21625
887.274	21405
887.399	21294
887.523	21268
887.648	21176
887.773	21298
887.897	21344
888.021	21469
888.146	21188
888.27	21386
888.395	21359
888.519	21431
888.643	21321
888.767	21469
888.891	21203
889.015	21150
889.139	21135
889.263	21055
889.387	21119
889.511	21344
889.635	21176
889.759	21024
889.883	21013
890.006	21146
890.13	21287
890.254	21218
890.377	20880
890.501	20925
890.624	20750
890.748	20941
890.871	20811
890.995	20659
891.118	20712
891.241	20743
891.364	20655
891.488	20929
891.611	20716
891.734	20693
891.857	20678
891.98	20788
892.103	20705
892.226	20746
892.349	20568
892.471	20465
892.594	20629
892.717	20594
892.839	20571
892.962	20568
893.085	20583
893.207	20640
893.33	20495
893.452	20552
893.575	20674
893.697	20564
893.819	20708
893.941	20632
894.064	20758
894.186	20606
894.308	20564
894.43	20678
894.552	20705
894.674	20621
894.796	20438
894.918	20503
895.04	20568
895.161	20625
895.283	20579
895.405	20644
895.526	20602
895.648	20484
895.769	20590
895.891	20617
896.012	20632
896.134	20651
896.255	20621
896.376	20480
896.498	20507
896.619	20537
896.74	20598
896.861	20609
896.982	20853
897.103	20929
897.224	20845
897.345	20807
897.466	20735
897.587	20804
897.708	20883
897.828	20773
897.949	20708
898.07	20530
898.19	20727
898.311	20754
898.431	20621
898.552	20823
898.672	20796
898.792	20811
898.913	20838
899.033	20560
899.153	20629
899.273	20389
899.393	20590
899.513	20476
899.633	20476
899.753	20560
899.873	20404
899.993	20495
900.113	20499
900.232	20533
900.352	20450
900.472	20362
900.591	20267
900.711	20286
900.83	20366
900.95	20465
901.069	20415
901.189	20172
901.308	19989
901.427	19807
901.546	19852
901.665	19746
901.784	19845
901.904	19651
902.023	19674
902.141	19487
902.26	19499
902.379	19464
902.498	19400
902.617	19339
902.735	19301
902.854	19354
902.973	19346
903.091	19129
903.21	19050
903.328	19076
903.446	18935
903.565	18894
903.683	18726
903.801	18798
903.919	18833
904.038	18829
904.156	18631
904.274	18688
904.392	18597
904.51	18616
904.627	18544
904.745	18604
904.863	18639
904.981	18502
905.098	18243
905.216	18277
905.334	18319
905.451	18334
905.569	18296
905.686	18330
905.803	18232
905.921	18155
906.038	18163
906.155	18155
906.272	17901
906.389	18038
906.506	17836
906.623	17828
906.74	17870
906.857	17756
906.974	17752
907.091	17836
907.208	17958
907.324	17832
907.441	17665
907.557	17543
907.674	17524
907.79	17356
907.907	17414
908.023	17615
908.139	17509
908.256	17478
908.372	17383
908.488	17330
908.604	17212
908.72	17189
908.836	17242
908.952	17189
909.068	17208
909.184	17372
909.3	17242
909.415	17311
909.531	17337
909.647	17006
909.762	16995
909.878	16896
909.993	16896
910.108	16892
910.224	16881
910.339	17010
910.454	16748
910.57	16786
910.685	16649
910.8	16968
910.915	16987
911.03	16763
911.145	16546
911.259	16440
911.374	16481
911.489	16508
911.604	16386
911.718	16287
911.833	16348
911.947	16261
912.062	16150
912.176	16363
912.291	16329
912.405	16272
912.519	16405
912.633	16436
912.748	16337
912.862	16238
912.976	15956
913.09	15983
913.204	16032
913.318	16120
913.431	16200
913.545	16173
913.659	16242
913.772	16055
913.886	15865
914	15880
914.113	15937
914.226	16059
914.34	15941
914.453	15682
914.566	15888
914.68	15808
914.793	15717
914.906	15606
915.019	15447
915.132	15389
915.245	15447
915.358	15481
915.47	15405
915.583	15439
915.696	15500
915.809	15595
915.921	15557
916.034	15431
916.146	15268
916.259	15359
916.371	15416
916.483	15386
916.595	15382
916.708	15260
916.82	15367
916.932	15249
917.044	15252
917.156	15176
917.268	15157
917.38	15112
917.491	15097
917.603	15104
917.715	15211
917.826	15173
917.938	15020
918.049	14967
918.161	15123
918.272	15192
918.384	15184
918.495	14994
918.606	14883
918.717	14823
918.828	15024
918.939	14849
919.05	14792
919.161	14910
919.272	14678
919.383	14762
919.494	14872
919.604	14975
919.715	14811
919.826	14758
919.936	14667
920.047	14986
920.157	14872
920.267	15013
920.378	14883
920.488	14807
920.598	14925
920.708	15112
920.818	14918
920.928	14883
921.038	15195
921.148	14967
921.258	14769
921.368	14644
921.477	14522
921.587	14560
921.697	14374
921.806	14621
921.916	14366
922.025	14168
922.134	14115
922.244	14218
922.353	14199
922.462	14084
922.571	14035
922.68	13818
922.789	13849
922.898	13902
923.007	13788
923.116	13811
923.224	13795
923.333	13849
923.442	13681
923.55	13628
923.659	13594
923.767	13689
923.876	13639
923.984	13651
924.092	13533
924.201	13578
924.309	13567
924.417	13571
924.525	13521
924.633	13510
924.741	14290
924.849	13270
924.956	13453
925.064	13228
925.172	13259
925.279	13263
925.387	13320
925.494	13217
925.602	13301
925.709	13232
925.816	13183
925.924	13202
926.031	13251
926.138	13160
926.245	13247
926.352	13107
926.459	13168
926.566	13187
926.673	13137
926.779	12951
926.886	12973
926.993	12867
927.099	12810
927.206	12772
927.312	12753
927.419	12814
927.525	12783
927.631	12909
927.737	12658
927.843	12593
927.95	12521
928.056	12574
928.162	12532
928.267	12639
928.373	13259
928.479	12703
928.585	12456
928.69	12555
928.796	12578
928.901	12437
929.007	12395
929.112	12437
929.218	12407
929.323	12380
929.428	12315
929.533	12494
929.638	12262
929.743	12289
929.848	12327
929.953	12323
930.058	12175
930.163	11977
930.267	12053
930.372	12125
930.477	11984
930.581	12243
930.685	12095
930.79	11851
930.894	11878
930.998	11904
931.103	12057
931.207	11676
931.311	11577
931.415	11558
931.519	11345
931.623	11292
