Data from test_V78500241_1350.txt Node
Date: Fri Mar 25 15:51:09 CST 2022
User: usil
Spectrometer: V785-0024
Trigger mode: 0
Integration Time (sec): 4.000000E-1
Scans to average: 1
Nonlinearity correction enabled: false
Boxcar width: 0
Storing dark spectrum: false
XAxis mode: Wavelengths
Number of Pixels in Spectrum: 1024
>>>>>Begin Spectral Data<<<<<
801.071	27949
801.214	27960
801.356	27690
801.499	27667
801.641	27587
801.783	27538
801.926	27519
802.068	27519
802.211	27488
802.353	27443
802.496	27325
802.638	27241
802.78	27218
802.923	27062
803.065	27203
803.208	27085
803.35	27245
803.492	27256
803.635	27408
803.777	27256
803.919	27526
804.061	27755
804.204	27545
804.346	27211
804.488	27389
804.63	27458
804.773	27386
804.915	27378
805.057	27610
805.199	27488
805.341	27477
805.483	27523
805.626	27473
805.768	27644
805.91	27633
806.052	27652
806.194	27622
806.336	27759
806.478	27675
806.62	27637
806.762	27755
806.904	27778
807.046	28055
807.188	27968
807.33	28067
807.472	27956
807.614	27941
807.756	27907
807.898	27880
808.04	27854
808.182	27774
808.324	27819
808.465	27960
808.607	28173
808.749	28223
808.891	28371
809.033	28295
809.174	28318
809.316	28280
809.458	28291
809.6	28196
809.741	28398
809.883	28287
810.025	28459
810.166	28481
810.308	28565
810.45	28459
810.591	28538
810.733	28306
810.875	28280
811.016	28101
811.158	28188
811.299	28276
811.441	28527
811.582	28299
811.724	28200
811.865	28211
812.007	28181
812.148	28173
812.29	28299
812.431	28462
812.573	28561
812.714	28592
812.855	28809
812.997	28934
813.138	28923
813.279	28679
813.421	28752
813.562	28577
813.703	28542
813.845	28519
813.986	28207
814.127	28002
814.268	27968
814.41	27914
814.551	27918
814.692	28082
814.833	27983
814.974	27865
815.115	27994
815.256	27812
815.397	27857
815.539	27698
815.68	27800
815.821	27610
815.962	27835
816.103	27762
816.244	27622
816.385	27500
816.526	27538
816.666	27488
816.807	27176
816.948	27279
817.089	27336
817.23	27355
817.371	27287
817.512	27226
817.653	27169
817.793	27161
817.934	27313
818.075	27138
818.216	27291
818.356	27188
818.497	27245
818.638	26914
818.778	26819
818.919	27036
819.06	27131
819.2	27119
819.341	27226
819.481	27405
819.622	27389
819.762	27538
819.903	27568
820.043	27317
820.184	27294
820.324	27408
820.465	27382
820.605	27344
820.746	27359
820.886	27329
821.026	27393
821.167	27218
821.307	27485
821.447	27382
821.588	27306
821.728	27165
821.868	26998
822.008	26670
822.149	26686
822.289	26769
822.429	26518
822.569	26275
822.709	26358
822.849	26210
822.99	26259
823.13	26176
823.27	26153
823.41	26126
823.55	25913
823.69	26020
823.83	26012
823.97	25970
824.11	25772
824.25	25769
824.389	25811
824.529	25868
824.669	25860
824.809	25986
824.949	25902
825.089	25898
825.228	25906
825.368	25666
825.508	25772
825.648	25753
825.787	25693
825.927	25788
826.067	25674
826.206	25852
826.346	25818
826.485	25932
826.625	25799
826.765	25944
826.904	25837
827.044	25506
827.183	25529
827.323	25411
827.462	25613
827.601	25483
827.741	25563
827.88	25483
828.02	25225
828.159	25388
828.298	25350
828.437	25415
828.577	25388
828.716	25506
828.855	25327
828.994	25221
829.134	25133
829.273	25141
829.412	25046
829.551	25095
829.69	25069
829.829	25145
829.968	25217
830.107	25206
830.246	25099
830.385	25008
830.524	25027
830.663	24905
830.802	24810
830.941	24738
831.08	24783
831.219	24844
831.357	24806
831.496	24985
831.635	24738
831.774	24623
831.913	24601
832.051	24635
832.19	24631
832.329	24563
832.467	24407
832.606	24361
832.744	24399
832.883	24566
833.022	24376
833.16	24536
833.299	24574
833.437	24475
833.576	24601
833.714	24479
833.852	24540
833.991	24479
834.129	24540
834.267	24563
834.406	24433
834.544	24505
834.682	24509
834.821	24346
834.959	24612
835.097	24391
835.235	24441
835.373	24426
835.511	24403
835.65	24235
835.788	24273
835.926	24117
836.064	24144
836.202	24174
836.34	24289
836.478	24315
836.615	24304
836.753	24399
836.891	24372
837.029	24334
837.167	24285
837.305	24034
837.443	24197
837.58	24129
837.718	24182
837.856	24091
837.993	24068
838.131	24095
838.269	24117
838.406	23946
838.544	23992
838.681	23733
838.819	23840
838.956	23619
839.094	23539
839.231	23790
839.369	23726
839.506	24022
839.643	23828
839.781	23615
839.918	23581
840.055	23611
840.193	23672
840.33	23512
840.467	23459
840.604	23653
840.742	23729
840.879	23311
841.016	23391
841.153	23440
841.29	23520
841.427	23562
841.564	23600
841.701	23543
841.838	23425
841.975	23459
842.112	23474
842.249	23402
842.385	23216
842.522	23531
842.659	23372
842.796	23220
842.933	23178
843.069	23159
843.206	23197
843.343	23303
843.479	23246
843.616	23220
843.752	23189
843.889	23041
844.025	23136
844.162	23029
844.298	23128
844.435	23056
844.571	23041
844.708	23117
844.844	23147
844.98	23250
845.117	23052
845.253	23014
845.389	22900
845.525	22953
845.661	22774
845.798	22809
845.934	22862
846.07	22816
846.206	22691
846.342	22896
846.478	22729
846.614	22565
846.75	22481
846.886	22489
847.022	22645
847.158	22500
847.294	22523
847.429	22672
847.565	22474
847.701	22584
847.837	22299
847.972	22261
848.108	22363
848.244	22295
848.379	22131
848.515	22204
848.65	22109
848.786	21964
848.921	22223
849.057	22204
849.192	22063
849.328	22078
849.463	22032
849.598	22013
849.734	22051
849.869	21975
850.004	21816
850.14	21892
850.275	21899
850.41	21812
850.545	21873
850.68	21895
850.815	21873
850.95	21789
851.085	21964
851.22	21892
851.355	21819
851.49	21819
851.625	21736
851.76	21899
851.895	21778
852.03	21873
852.165	21838
852.299	21854
852.434	22044
852.569	21926
852.703	21800
852.838	22010
852.973	21975
853.107	22021
853.242	21850
853.376	21701
853.511	21606
853.645	21656
853.78	21800
853.914	21568
854.048	21679
854.183	21804
854.317	21660
854.451	21915
854.585	21739
854.72	21663
854.854	21774
854.988	21545
855.122	21717
855.256	21622
855.39	21622
855.524	21876
855.658	21789
855.792	21717
855.926	21717
856.06	21804
856.194	21907
856.327	21667
856.461	21671
856.595	21561
856.729	21656
856.862	21823
856.996	21724
857.13	21762
857.263	21819
857.397	21831
857.53	21709
857.664	21819
857.797	21846
857.931	21785
858.064	21846
858.197	21816
858.331	21587
858.464	21793
858.597	21564
858.731	21686
858.864	21572
858.997	21713
859.13	21629
859.263	21610
859.396	21774
859.529	21549
859.662	21690
859.795	21724
859.928	21679
860.061	21800
860.194	21884
860.327	21804
860.46	21698
860.592	21698
860.725	21949
860.858	21895
860.99	21652
861.123	21633
861.256	21561
861.388	21701
861.521	22325
861.653	21504
861.786	21450
861.918	21450
862.05	21606
862.183	21625
862.315	21561
862.447	21778
862.58	21576
862.712	21329
862.844	21340
862.976	21454
863.108	21458
863.24	21797
863.372	21466
863.504	21412
863.636	21439
863.768	21424
863.9	21447
864.032	21260
864.164	21351
864.296	21496
864.428	21492
864.559	21378
864.691	21401
864.823	21405
864.954	21473
865.086	21291
865.217	21291
865.349	21310
865.48	21268
865.612	21283
865.743	21374
865.875	21359
866.006	21256
866.137	21367
866.269	21321
866.4	21245
866.531	21218
866.662	21260
866.793	21264
866.924	21241
867.055	21252
867.186	21294
867.317	21184
867.448	21230
867.579	21211
867.71	21112
867.841	21096
867.972	21184
868.103	21241
868.233	21245
868.364	21279
868.495	21291
868.625	21458
868.756	21599
868.886	21530
869.017	21469
869.147	21515
869.278	21660
869.408	21450
869.539	21405
869.669	21709
869.799	21477
869.929	21595
870.06	21603
870.19	21789
870.32	21728
870.45	21823
870.58	21953
870.71	22070
870.84	21915
870.97	21762
871.1	21941
871.23	21975
871.36	22219
871.489	22029
871.619	22070
871.749	22074
871.879	22055
872.008	22238
872.138	22192
872.267	22055
872.397	21953
872.526	22051
872.656	21880
872.785	21922
872.915	22078
873.044	22215
873.173	22032
873.303	22109
873.432	22276
873.561	22280
873.69	22036
873.819	22063
873.948	22246
874.077	22143
874.206	22109
874.335	22154
874.464	22215
874.593	22424
874.722	22253
874.851	22421
874.979	22329
875.108	22341
875.237	22348
875.365	22295
875.494	22272
875.623	22428
875.751	22246
875.88	22348
876.008	22481
876.136	22615
876.265	22698
876.393	22831
876.521	22843
876.65	22698
876.778	22763
876.906	22763
877.034	22660
877.162	22691
877.29	22668
877.418	22672
877.546	22607
877.674	22729
877.802	22702
877.93	22588
878.058	22641
878.185	22607
878.313	22687
878.441	22599
878.568	22428
878.696	22584
878.824	22752
878.951	22729
879.079	22843
879.206	22991
879.333	22946
879.461	22713
879.588	22725
879.715	22953
879.842	22885
879.97	22679
880.097	22462
880.224	22417
880.351	22637
880.478	22474
880.605	22390
880.732	22584
880.859	22831
880.986	22497
881.112	22516
881.239	22421
881.366	22303
881.493	22253
881.619	22010
881.746	22112
881.872	22048
881.999	22158
882.125	21987
882.252	22051
882.378	21907
882.505	22109
882.631	21918
882.757	21789
882.883	21800
883.01	21800
883.136	21755
883.262	21686
883.388	21652
883.514	21732
883.64	21838
883.766	21614
883.892	21466
884.018	21580
884.143	21755
884.269	21816
884.395	21420
884.52	21351
884.646	21374
884.772	21272
884.897	21340
885.023	21435
885.148	21500
885.274	21545
885.399	21572
885.524	21344
885.65	21428
885.775	21344
885.9	21382
886.025	21435
886.15	21485
886.275	21329
886.4	21272
886.525	21351
886.65	21317
886.775	21351
886.9	21625
887.025	21454
887.149	21397
887.274	21173
887.399	21108
887.523	21195
887.648	21146
887.773	21024
887.897	21192
888.021	21119
888.146	21096
888.27	21161
888.395	21256
888.519	21252
888.643	21180
888.767	21161
888.891	21043
889.015	20971
889.139	20971
889.263	20975
889.387	21081
889.511	21032
889.635	21108
889.759	20933
889.883	20876
890.006	20990
890.13	21127
890.254	20929
890.377	20880
890.501	20636
890.624	20659
890.748	20697
890.871	20621
890.995	20511
891.118	20613
891.241	20602
891.364	20640
891.488	20705
891.611	20602
891.734	20594
891.857	20522
891.98	20473
892.103	20575
892.226	20465
892.349	20480
892.471	20336
892.594	20415
892.717	20442
892.839	20351
892.962	20423
893.085	20526
893.207	20404
893.33	20415
893.452	20427
893.575	20480
893.697	20389
893.819	20583
893.941	20560
894.064	20556
894.186	20320
894.308	20290
894.43	20469
894.552	20571
894.674	20480
894.796	20332
894.918	20427
895.04	20332
895.161	20423
895.283	20457
895.405	20389
895.526	20381
895.648	20476
895.769	20343
895.891	20568
896.012	20526
896.134	20381
896.255	20362
896.376	20309
896.498	20495
896.619	20492
896.74	20431
896.861	20446
896.982	20735
897.103	20967
897.224	20609
897.345	20720
897.466	20533
897.587	20583
897.708	20785
897.828	20708
897.949	20629
898.07	20495
898.19	20556
898.311	20670
898.431	20552
898.552	20705
898.672	20602
898.792	20758
898.913	20579
899.033	20545
899.153	20415
899.273	20362
899.393	20408
899.513	20404
899.633	20385
899.753	20336
899.873	20271
899.993	20412
900.113	20259
900.232	20381
900.352	20324
900.472	20301
900.591	20202
900.711	20252
900.83	20081
900.95	20218
901.069	20240
901.189	20107
901.308	19830
901.427	19830
901.546	19674
901.665	19765
901.784	19708
901.904	19544
902.023	19464
902.141	19335
902.26	19232
902.379	19343
902.498	19217
902.617	19034
902.735	19354
902.854	19259
902.973	19061
903.091	18947
903.21	18897
903.328	18935
903.446	18795
903.565	18749
903.683	18726
903.801	18582
903.919	18661
904.038	18669
904.156	18490
904.274	18582
904.392	18525
904.51	18380
904.627	18437
904.745	18517
904.863	18483
904.981	18300
905.098	18133
905.216	18247
905.334	18148
905.451	18174
905.569	18155
905.686	18182
905.803	18057
905.921	17878
906.038	18060
906.155	17920
906.272	17882
906.389	17783
906.506	17748
906.623	17745
906.74	17676
906.857	17596
906.974	17570
907.091	17722
907.208	17805
907.324	17665
907.441	17539
907.557	17448
907.674	17364
907.79	17197
907.907	17277
908.023	17417
908.139	17471
908.256	17341
908.372	17269
908.488	17280
908.604	17060
908.72	17090
908.836	17102
908.952	16980
909.068	17277
909.184	17189
909.3	17143
909.415	17071
909.531	17067
909.647	16828
909.762	16835
909.878	16835
909.993	16900
910.108	16721
910.224	16801
910.339	16736
910.454	16710
910.57	16592
910.685	16512
910.8	16702
910.915	16710
911.03	16649
911.145	16500
911.259	16352
911.374	16432
911.489	16333
911.604	16246
911.718	16166
911.833	16215
911.947	16071
912.062	16017
912.176	16135
912.291	16200
912.405	16192
912.519	16284
912.633	16322
912.748	16223
912.862	16135
912.976	15991
913.09	15785
913.204	15972
913.318	15812
913.431	16059
913.545	15895
913.659	16071
913.772	15854
913.886	15793
914	15747
914.113	15819
914.226	15854
914.34	15751
914.453	15622
914.566	15751
914.68	15785
914.793	15572
914.906	15359
915.019	15344
915.132	15325
915.245	15355
915.358	15310
915.47	15435
915.583	15435
915.696	15424
915.809	15382
915.921	15332
916.034	15260
916.146	15237
916.259	15222
916.371	15313
916.483	15294
916.595	15173
916.708	15211
916.82	15214
916.932	15039
917.044	15195
917.156	15066
917.268	14929
917.38	15020
917.491	14948
917.603	15001
917.715	15116
917.826	15062
917.938	14948
918.049	14861
918.161	14929
918.272	15123
918.384	15051
918.495	15009
918.606	14823
918.717	14693
918.828	14842
918.939	14811
919.05	14621
919.161	14750
919.272	14446
919.383	14632
919.494	14773
919.604	14979
919.715	14769
919.826	14594
919.936	14651
920.047	14720
920.157	14796
920.267	14948
920.378	14735
920.488	14693
920.598	14762
920.708	15043
920.818	14834
920.928	14826
921.038	15020
921.148	14998
921.258	14632
921.368	14541
921.477	14408
921.587	14446
921.697	14301
921.806	14434
921.916	14210
922.025	14096
922.134	14130
922.244	14054
922.353	13997
922.462	14027
922.571	13917
922.68	13780
922.789	13791
922.898	13765
923.007	13704
923.116	13750
923.224	13712
923.333	13727
923.442	13613
923.55	13582
923.659	13567
923.767	13693
923.876	13563
923.984	13556
924.092	13438
924.201	13487
924.309	13472
924.417	13445
924.525	13445
924.633	13365
924.741	14339
924.849	13183
924.956	13403
925.064	13050
925.172	13244
925.279	13080
925.387	13221
925.494	13019
925.602	13217
925.709	13232
925.816	13076
925.924	13019
926.031	13206
926.138	12970
926.245	13069
926.352	12932
926.459	13057
926.566	13099
926.673	12932
926.779	12833
926.886	12844
926.993	12749
927.099	12711
927.206	12654
927.312	12589
927.419	12665
927.525	12642
927.631	12665
927.737	12563
927.843	12528
927.95	12380
928.056	12479
928.162	12578
928.267	12517
928.373	13099
928.479	12574
928.585	12342
928.69	12426
928.796	12582
928.901	12391
929.007	12224
929.112	12372
929.218	12334
929.323	12296
929.428	12205
929.533	12448
929.638	12167
929.743	12201
929.848	12258
929.953	12205
930.058	12091
930.163	11939
930.267	12022
930.372	12121
930.477	11901
930.581	12038
930.685	11999
930.79	11832
930.894	11817
930.998	11718
931.103	11920
931.207	11577
931.311	11528
931.415	11417
931.519	11178
931.623	11140
