Data from test_V78500241_1972.txt Node
Date: Fri Mar 25 15:55:27 CST 2022
User: usil
Spectrometer: V785-0024
Trigger mode: 0
Integration Time (sec): 4.000000E-1
Scans to average: 1
Nonlinearity correction enabled: false
Boxcar width: 0
Storing dark spectrum: false
XAxis mode: Wavelengths
Number of Pixels in Spectrum: 1024
>>>>>Begin Spectral Data<<<<<
801.071	27066
801.214	26864
801.356	26838
801.499	26712
801.641	26469
801.783	26705
801.926	26682
802.068	26480
802.211	26453
802.353	26461
802.496	26366
802.638	26157
802.78	26039
802.923	26050
803.065	26081
803.208	26069
803.35	26073
803.492	26263
803.635	26305
803.777	26347
803.919	26362
804.061	26796
804.204	26438
804.346	26263
804.488	26115
804.63	26259
804.773	26282
804.915	26305
805.057	26507
805.199	26278
805.341	26377
805.483	26381
805.626	26336
805.768	26351
805.91	26404
806.052	26552
806.194	26393
806.336	26423
806.478	26324
806.62	26400
806.762	26545
806.904	26632
807.046	26834
807.188	26887
807.33	26838
807.472	26857
807.614	26796
807.756	26758
807.898	26727
808.04	26659
808.182	26632
808.324	26667
808.465	26655
808.607	26773
808.749	27001
808.891	27085
809.033	27230
809.174	27135
809.316	27085
809.458	26960
809.6	26914
809.741	27028
809.883	27256
810.025	27230
810.166	27302
810.308	27192
810.45	27161
810.591	27180
810.733	27108
810.875	26963
811.016	26838
811.158	26906
811.299	27055
811.441	27264
811.582	27077
811.724	27013
811.865	27009
812.007	27001
812.148	27039
812.29	26979
812.431	27112
812.573	27359
812.714	27344
812.855	27561
812.997	27595
813.138	27686
813.279	27557
813.421	27511
813.562	27302
813.703	27291
813.845	27188
813.986	26948
814.127	26716
814.268	26682
814.41	26659
814.551	26579
814.692	26678
814.833	26469
814.974	26587
815.115	26705
815.256	26571
815.397	26465
815.539	26438
815.68	26423
815.821	26294
815.962	26370
816.103	26240
816.244	26244
816.385	26130
816.526	26081
816.666	25860
816.807	25871
816.948	25940
817.089	26027
817.23	25826
817.371	25883
817.512	25769
817.653	25833
817.793	25818
817.934	25871
818.075	25917
818.216	25913
818.356	25803
818.497	25917
818.638	25578
818.778	25609
818.919	25635
819.06	25670
819.2	25674
819.341	25704
819.481	25719
819.622	25997
819.762	26229
819.903	26187
820.043	26119
820.184	26088
820.324	25993
820.465	26065
820.605	25963
820.746	25864
820.886	25856
821.026	25879
821.167	25982
821.307	25982
821.447	25791
821.588	25894
821.728	25708
821.868	25483
822.008	25228
822.149	25255
822.289	25384
822.429	25031
822.569	25038
822.709	25034
822.849	24844
822.99	24894
823.13	24719
823.27	24757
823.41	24650
823.55	24578
823.69	24601
823.83	24673
823.97	24570
824.11	24464
824.25	24494
824.389	24517
824.529	24582
824.669	24505
824.809	24547
824.949	24566
825.089	24589
825.228	24441
825.368	24338
825.508	24327
825.648	24319
825.787	24350
825.927	24369
826.067	24228
826.206	24304
826.346	24498
826.485	24414
826.625	24334
826.765	24365
826.904	24270
827.044	24026
827.183	24003
827.323	24026
827.462	24182
827.601	23992
827.741	23897
827.88	23897
828.02	23893
828.159	24041
828.298	23969
828.437	24003
828.577	24015
828.716	24144
828.855	23817
828.994	23748
829.134	23798
829.273	23718
829.412	23687
829.551	23566
829.69	23707
829.829	23623
829.968	23710
830.107	23767
830.246	23653
830.385	23729
830.524	23718
830.663	23509
830.802	23402
830.941	23318
831.08	23292
831.219	23463
831.357	23444
831.496	23501
831.635	23376
831.774	23265
831.913	23258
832.051	23181
832.19	23029
832.329	23010
832.467	23006
832.606	22949
832.744	22930
832.883	23018
833.022	22889
833.16	22961
833.299	23064
833.437	23037
833.576	23048
833.714	23041
833.852	23094
833.991	23208
834.129	23121
834.267	23166
834.406	23113
834.544	23064
834.682	23086
834.821	22984
834.959	23227
835.097	22946
835.235	23113
835.373	23033
835.511	23124
835.65	22725
835.788	22938
835.926	22763
836.064	22729
836.202	22656
836.34	22892
836.478	23052
836.615	22889
836.753	22812
836.891	23067
837.029	22934
837.167	22824
837.305	22752
837.443	22793
837.58	22611
837.718	22824
837.856	22664
837.993	22645
838.131	22645
838.269	22710
838.406	22713
838.544	22580
838.681	22485
838.819	22421
838.956	22341
839.094	22158
839.231	22276
839.369	22325
839.506	22508
839.643	22432
839.781	22196
839.918	22223
840.055	22169
840.193	22253
840.33	22135
840.467	22238
840.604	22192
840.742	22546
840.879	22040
841.016	22086
841.153	22101
841.29	22295
841.427	22105
841.564	22226
841.701	22112
841.838	22109
841.975	21911
842.112	22093
842.249	21979
842.385	21876
842.522	22093
842.659	21991
842.796	21854
842.933	21903
843.069	21869
843.206	21899
843.343	21884
843.479	21998
843.616	21854
843.752	21736
843.889	21759
844.025	21861
844.162	21663
844.298	21675
844.435	21667
844.571	21690
844.708	21667
844.844	21876
844.98	21808
845.117	21759
845.253	21667
845.389	21496
845.525	21515
845.661	21431
845.798	21496
845.934	21519
846.07	21428
846.206	21496
846.342	21599
846.478	21336
846.614	21340
846.75	21077
846.886	21116
847.022	21245
847.158	21176
847.294	21150
847.429	21188
847.565	21230
847.701	21344
847.837	20861
847.972	20796
848.108	20842
848.244	21009
848.379	20842
848.515	20830
848.65	20777
848.786	20735
848.921	20712
849.057	20838
849.192	20906
849.328	20758
849.463	20800
849.598	20743
849.734	20644
849.869	20636
850.004	20514
850.14	20473
850.275	20602
850.41	20393
850.545	20393
850.68	20355
850.815	20469
850.95	20434
851.085	20632
851.22	20663
851.355	20644
851.49	20415
851.625	20457
851.76	20533
851.895	20381
852.03	20431
852.165	20461
852.299	20518
852.434	20549
852.569	20560
852.703	20507
852.838	20469
852.973	20724
853.107	20674
853.242	20438
853.376	20324
853.511	20240
853.645	20298
853.78	20469
853.914	20259
854.048	20404
854.183	20210
854.317	20358
854.451	20545
854.585	20332
854.72	20305
854.854	20450
854.988	20164
855.122	20328
855.256	20244
855.39	20332
855.524	20355
855.658	20434
855.792	20366
855.926	20286
856.06	20404
856.194	20362
856.327	20240
856.461	20267
856.595	20275
856.729	20206
856.862	20450
856.996	20313
857.13	20393
857.263	20389
857.397	20377
857.53	20366
857.664	20374
857.797	20423
857.931	20309
858.064	20419
858.197	20309
858.331	20427
858.464	20248
858.597	20267
858.731	20244
858.864	20233
858.997	20278
859.13	20324
859.263	20389
859.396	20404
859.529	20221
859.662	20271
859.795	20301
859.928	20263
860.061	20412
860.194	20499
860.327	20404
860.46	20301
860.592	20400
860.725	20530
860.858	20476
860.99	20423
861.123	20267
861.256	20237
861.388	20355
861.521	21173
861.653	20298
861.786	20180
861.918	20259
862.05	20176
862.183	20320
862.315	20309
862.447	20317
862.58	20408
862.712	20119
862.844	19906
862.976	19989
863.108	19997
863.24	20514
863.372	19986
863.504	20008
863.636	20100
863.768	20103
863.9	19997
864.032	20035
864.164	19951
864.296	20172
864.428	20119
864.559	20149
864.691	20134
864.823	19989
864.954	20012
865.086	20096
865.217	19917
865.349	19932
865.48	19913
865.612	19849
865.743	20096
865.875	19898
866.006	19967
866.137	19944
866.269	19936
866.4	19902
866.531	19909
866.662	19830
866.793	19879
866.924	19913
867.055	19909
867.186	19944
867.317	19967
867.448	19780
867.579	19852
867.71	19830
867.841	19811
867.972	19917
868.103	19913
868.233	19868
868.364	19860
868.495	20103
868.625	20126
868.756	20324
868.886	20142
869.017	20126
869.147	20256
869.278	20336
869.408	20225
869.539	20195
869.669	20195
869.799	20202
869.929	20237
870.06	20233
870.19	20332
870.32	20434
870.45	20431
870.58	20476
870.71	20640
870.84	20632
870.97	20632
871.1	20549
871.23	20765
871.36	20849
871.489	20560
871.619	20750
871.749	20754
871.879	20720
872.008	20785
872.138	20689
872.267	20838
872.397	20644
872.526	20651
872.656	20629
872.785	20564
872.915	20773
873.044	20842
873.173	20800
873.303	20739
873.432	20868
873.561	20762
873.69	20708
873.819	20758
873.948	20853
874.077	20777
874.206	20743
874.335	20807
874.464	20902
874.593	20971
874.722	20906
874.851	21020
874.979	20971
875.108	21024
875.237	20982
875.365	20906
875.494	20986
875.623	21070
875.751	21020
875.88	20944
876.008	21119
876.136	21272
876.265	21405
876.393	21462
876.521	21454
876.65	21405
876.778	21408
876.906	21447
877.034	21389
877.162	21370
877.29	21382
877.418	21450
877.546	21294
877.674	21374
877.802	21370
877.93	21348
878.058	21405
878.185	21351
878.313	21389
878.441	21321
878.568	21214
878.696	21184
878.824	21466
878.951	21488
879.079	21526
879.206	21629
879.333	21393
879.461	21374
879.588	21538
879.715	21500
879.842	21762
879.97	21416
880.097	21245
880.224	21275
880.351	21241
880.478	21207
880.605	21138
880.732	21173
880.859	21401
880.986	21287
881.112	21329
881.239	21024
881.366	20990
881.493	20842
881.619	20735
881.746	20743
881.872	20800
881.999	20800
882.125	20727
882.252	20887
882.378	20727
882.505	20906
882.631	20655
882.757	20461
882.883	20575
883.01	20476
883.136	20434
883.262	20381
883.388	20385
883.514	20507
883.64	20556
883.766	20404
883.892	20278
884.018	20202
884.143	20454
884.269	20412
884.395	20168
884.52	20039
884.646	20149
884.772	20103
884.897	20062
885.023	20138
885.148	20210
885.274	20305
885.399	20282
885.524	20130
885.65	20172
885.775	20183
885.9	20081
886.025	20259
886.15	20240
886.275	20069
886.4	20039
886.525	20107
886.65	20062
886.775	20092
886.9	20088
887.025	20263
887.149	20092
887.274	20122
887.399	19936
887.523	19814
887.648	19917
887.773	19921
887.897	19982
888.021	20039
888.146	19955
888.27	19974
888.395	19989
888.519	19955
888.643	19974
888.767	20024
888.891	19830
889.015	19616
889.139	19776
889.263	19731
889.387	19814
889.511	19974
889.635	19921
889.759	19761
889.883	19674
890.006	19807
890.13	19696
890.254	19624
890.377	19761
890.501	19495
890.624	19445
890.748	19502
890.871	19480
890.995	19331
891.118	19190
891.241	19293
891.364	19346
891.488	19510
891.611	19350
891.734	19388
891.857	19373
891.98	19350
892.103	19426
892.226	19388
892.349	19251
892.471	19129
892.594	19225
892.717	19217
892.839	19190
892.962	19362
893.085	19266
893.207	19312
893.33	19091
893.452	19175
893.575	19358
893.697	19282
893.819	19293
893.941	19392
894.064	19464
894.186	19137
894.308	19145
894.43	19304
894.552	19346
894.674	19316
894.796	19179
894.918	19221
895.04	19236
895.161	19388
895.283	19388
895.405	19160
895.526	19236
895.648	19190
895.769	19282
895.891	19263
896.012	19388
896.134	19244
896.255	19324
896.376	19217
896.498	19308
896.619	19190
896.74	19320
896.861	19373
896.982	19624
897.103	19837
897.224	19483
897.345	19358
897.466	19403
897.587	19468
897.708	19742
897.828	19556
897.949	19369
898.07	19369
898.19	19438
898.311	19506
898.431	19491
898.552	19525
898.672	19487
898.792	19613
898.913	19438
899.033	19392
899.153	19358
899.273	19202
899.393	19331
899.513	19346
899.633	19263
899.753	19274
899.873	19316
899.993	19240
900.113	19362
900.232	19217
900.352	19270
900.472	19145
900.591	19107
900.711	19137
900.83	19122
900.95	19168
901.069	19209
901.189	19038
901.308	18875
901.427	18582
901.546	18623
901.665	18753
901.784	18677
901.904	18563
902.023	18395
902.141	18277
902.26	18239
902.379	18270
902.498	18171
902.617	18152
902.735	18239
902.854	18239
902.973	18121
903.091	17828
903.21	17912
903.328	17771
903.446	17859
903.565	17653
903.683	17722
903.801	17581
903.919	17676
904.038	17566
904.156	17417
904.274	17490
904.392	17429
904.51	17387
904.627	17528
904.745	17387
904.863	17532
904.981	17277
905.098	17132
905.216	17086
905.334	17121
905.451	17098
905.569	17181
905.686	17292
905.803	17075
905.921	16843
906.038	17067
906.155	16927
906.272	16782
906.389	16786
906.506	16767
906.623	16748
906.74	16531
906.857	16512
906.974	16634
907.091	16710
907.208	16862
907.324	16668
907.441	16516
907.557	16550
907.674	16455
907.79	16314
907.907	16382
908.023	16382
908.139	16329
908.256	16360
908.372	16253
908.488	16295
908.604	16219
908.72	16105
908.836	16192
908.952	16040
909.068	16173
909.184	16276
909.3	16078
909.415	16162
909.531	16090
909.647	15937
909.762	15953
909.878	15759
909.993	15823
910.108	15827
910.224	15736
910.339	15709
910.454	15736
910.57	15603
910.685	15606
910.8	15968
910.915	15778
911.03	15595
911.145	15386
911.259	15359
911.374	15488
911.489	15454
911.604	15283
911.718	15207
911.833	15184
911.947	15138
912.062	15100
912.176	15169
912.291	15207
912.405	15157
912.519	15466
912.633	15450
912.748	15157
912.862	15097
912.976	14994
913.09	14811
913.204	14979
913.318	14902
913.431	15070
913.545	15074
913.659	15058
913.772	14986
913.886	14887
914	14735
914.113	14849
914.226	14998
914.34	14914
914.453	14720
914.566	14929
914.68	14693
914.793	14632
914.906	14526
915.019	14495
915.132	14412
915.245	14381
915.358	14518
915.47	14438
915.583	14393
915.696	14389
915.809	14575
915.921	14625
916.034	14400
916.146	14358
916.259	14347
916.371	14412
916.483	14396
916.595	14320
916.708	14195
916.82	14290
916.932	14153
917.044	14298
917.156	14180
917.268	14138
917.38	14149
917.491	14058
917.603	14126
917.715	14126
917.826	14267
917.938	14077
918.049	14050
918.161	14107
918.272	14191
918.384	14195
918.495	14001
918.606	13921
918.717	13799
918.828	13898
918.939	13852
919.05	13784
919.161	13864
919.272	13803
919.383	13776
919.494	14005
919.604	14123
919.715	13894
919.826	13712
919.936	13875
920.047	13921
920.157	13883
920.267	14130
920.378	13803
920.488	13803
920.598	14123
920.708	14187
920.818	14058
920.928	14043
921.038	14149
921.148	14142
921.258	13856
921.368	13772
921.477	13670
921.587	13597
921.697	13350
921.806	13647
921.916	13525
922.025	13369
922.134	13282
922.244	13255
922.353	13282
922.462	13053
922.571	13069
922.68	12954
922.789	12913
922.898	12932
923.007	12783
923.116	12920
923.224	12871
923.333	12924
923.442	12783
923.55	12772
923.659	12867
923.767	12795
923.876	12696
923.984	12726
924.092	12578
924.201	12726
924.309	12757
924.417	12700
924.525	12585
924.633	12681
924.741	13510
924.849	12433
924.956	12521
925.064	12403
925.172	12361
925.279	12395
925.387	12441
925.494	12365
925.602	12502
925.709	12437
925.816	12296
925.924	12376
926.031	12399
926.138	12319
926.245	12395
926.352	12281
926.459	12388
926.566	12399
926.673	12243
926.779	12140
926.886	12163
926.993	11984
927.099	11942
927.206	11840
927.312	11954
927.419	11961
927.525	11973
927.631	11969
927.737	11851
927.843	11874
927.95	11722
928.056	11786
928.162	11764
928.267	11805
928.373	12426
928.479	11882
928.585	11528
928.69	11729
928.796	11741
928.901	11821
929.007	11474
929.112	11684
929.218	11649
929.323	11539
929.428	11543
929.533	11630
929.638	11490
929.743	11524
929.848	11581
929.953	11463
930.058	11379
930.163	11265
930.267	11265
930.372	11414
930.477	11166
930.581	11471
930.685	11292
930.79	11178
930.894	11109
930.998	11174
931.103	11258
931.207	10824
931.311	10812
931.415	10683
931.519	10565
931.623	10508
