Data from test_V78500241_3151.txt Node
Date: Fri Mar 25 16:03:37 CST 2022
User: usil
Spectrometer: V785-0024
Trigger mode: 0
Integration Time (sec): 4.000000E-1
Scans to average: 1
Nonlinearity correction enabled: false
Boxcar width: 0
Storing dark spectrum: false
XAxis mode: Wavelengths
Number of Pixels in Spectrum: 1024
>>>>>Begin Spectral Data<<<<<
801.071	28344
801.214	28276
801.356	27991
801.499	28010
801.641	27785
801.783	27850
801.926	28013
802.068	27888
802.211	27949
802.353	27903
802.496	27690
802.638	27591
802.78	27572
802.923	27511
803.065	27439
803.208	27564
803.35	27682
803.492	27682
803.635	27876
803.777	27629
803.919	27857
804.061	28029
804.204	27941
804.346	27743
804.488	27698
804.63	27739
804.773	27717
804.915	27842
805.057	28055
805.199	27823
805.341	27907
805.483	27930
805.626	28120
805.768	27941
805.91	28017
806.052	27953
806.194	28040
806.336	28329
806.478	28036
806.62	28036
806.762	28070
806.904	28303
807.046	28508
807.188	28322
807.33	28481
807.472	28481
807.614	28272
807.756	28352
807.898	28219
808.04	28173
808.182	28223
808.324	28367
808.465	28405
808.607	28432
808.749	28630
808.891	28721
809.033	28752
809.174	28725
809.316	28683
809.458	28752
809.6	28603
809.741	28744
809.883	28736
810.025	28885
810.166	28938
810.308	28942
810.45	28812
810.591	28790
810.733	28694
810.875	28634
811.016	28573
811.158	28516
811.299	28790
811.441	28786
811.582	28687
811.724	28641
811.865	28542
812.007	28736
812.148	28569
812.29	28611
812.431	28961
812.573	29105
812.714	29147
812.855	29136
812.997	29326
813.138	29467
813.279	29414
813.421	29178
813.562	29159
813.703	28968
813.845	28873
813.986	28542
814.127	28375
814.268	28455
814.41	28523
814.551	28409
814.692	28432
814.833	28352
814.974	28299
815.115	28379
815.256	28280
815.397	28272
815.539	28181
815.68	28246
815.821	28044
815.962	28253
816.103	28147
816.244	28090
816.385	27895
816.526	28002
816.666	27736
816.807	27720
816.948	27759
817.089	27846
817.23	27804
817.371	27576
817.512	27568
817.653	27717
817.793	27679
817.934	27625
818.075	27591
818.216	27827
818.356	27519
818.497	27332
818.638	27450
818.778	27336
818.919	27302
819.06	27405
819.2	27606
819.341	27732
819.481	27713
819.622	27861
819.762	28017
819.903	27903
820.043	27770
820.184	27804
820.324	27819
820.465	27884
820.605	27835
820.746	27789
820.886	27603
821.026	27656
821.167	27663
821.307	27846
821.447	27732
821.588	27542
821.728	27599
821.868	27279
822.008	27161
822.149	27192
822.289	27096
822.429	26963
822.569	26842
822.709	26815
822.849	26659
822.99	26655
823.13	26613
823.27	26606
823.41	26492
823.55	26263
823.69	26533
823.83	26431
823.97	26457
824.11	26248
824.25	26275
824.389	26355
824.529	26328
824.669	26385
824.809	26347
824.949	26408
825.089	26446
825.228	26313
825.368	26077
825.508	26221
825.648	26259
825.787	26248
825.927	26347
826.067	26145
826.206	26225
826.346	26221
826.485	26259
826.625	26161
826.765	26256
826.904	26180
827.044	26001
827.183	25940
827.323	25871
827.462	26039
827.601	26012
827.741	25974
827.88	25955
828.02	25620
828.159	25849
828.298	25913
828.437	25902
828.577	25803
828.716	26058
828.855	25753
828.994	25544
829.134	25643
829.273	25708
829.412	25556
829.551	25453
829.69	25460
829.829	25369
829.968	25719
830.107	25658
830.246	25601
830.385	25521
830.524	25510
830.663	25350
830.802	25346
830.941	25164
831.08	25221
831.219	25183
831.357	25270
831.496	25388
831.635	25080
831.774	25148
831.913	25145
832.051	24973
832.19	25015
832.329	24951
832.467	24863
832.606	24875
832.744	24840
832.883	24878
833.022	25012
833.16	24745
833.299	24825
833.437	24882
833.576	24970
833.714	24939
833.852	24840
833.991	25053
834.129	25076
834.267	24894
834.406	24920
834.544	24981
834.682	24806
834.821	24913
834.959	25065
835.097	24821
835.235	24989
835.373	24928
835.511	24810
835.65	24681
835.788	24730
835.926	24631
836.064	24475
836.202	24547
836.34	24802
836.478	24757
836.615	24734
836.753	24669
836.891	24863
837.029	24707
837.167	24673
837.305	24563
837.443	24563
837.58	24661
837.718	24521
837.856	24494
837.993	24528
838.131	24540
838.269	24448
838.406	24490
838.544	24395
838.681	24262
838.819	24296
838.956	24064
839.094	23897
839.231	24083
839.369	24262
839.506	24300
839.643	24247
839.781	23992
839.918	23912
840.055	23988
840.193	23935
840.33	23988
840.467	24053
840.604	23999
840.742	24300
840.879	23843
841.016	23821
841.153	23775
841.29	23946
841.427	23965
841.564	23866
841.701	23904
841.838	23946
841.975	23863
842.112	23821
842.249	23771
842.385	23813
842.522	24011
842.659	23752
842.796	23714
842.933	23771
843.069	23767
843.206	23604
843.343	23752
843.479	23699
843.616	23707
843.752	23551
843.889	23501
844.025	23619
844.162	23448
844.298	23585
844.435	23478
844.571	23573
844.708	23566
844.844	23661
844.98	23752
845.117	23505
845.253	23452
845.389	23349
845.525	23417
845.661	23448
845.798	23417
845.934	23299
846.07	23204
846.206	23284
846.342	23345
846.478	23181
846.614	23056
846.75	23010
846.886	22949
847.022	23029
847.158	23048
847.294	22911
847.429	23025
847.565	22961
847.701	23151
847.837	22782
847.972	22641
848.108	22748
848.244	22805
848.379	22557
848.515	22519
848.65	22565
848.786	22561
848.921	22500
849.057	22588
849.192	22603
849.328	22538
849.463	22641
849.598	22474
849.734	22481
849.869	22379
850.004	22325
850.14	22421
850.275	22352
850.41	22280
850.545	22417
850.68	22253
850.815	22367
850.95	22394
851.085	22481
851.22	22447
851.355	22314
851.49	22265
851.625	22402
851.76	22238
851.895	22253
852.03	22200
852.165	22375
852.299	22466
852.434	22417
852.569	22360
852.703	22215
852.838	22394
852.973	22379
853.107	22569
853.242	22223
853.376	22185
853.511	22128
853.645	22112
853.78	22166
853.914	22200
854.048	22086
854.183	22010
854.317	22109
854.451	22432
854.585	22078
854.72	22226
854.854	22310
854.988	22082
855.122	22162
855.256	22059
855.39	22101
855.524	22166
855.658	22261
855.792	22196
855.926	22246
856.06	22124
856.194	22249
856.327	22112
856.461	22002
856.595	22078
856.729	22158
856.862	22257
856.996	22299
857.13	22188
857.263	22352
857.397	22207
857.53	22230
857.664	22147
857.797	22219
857.931	22306
858.064	22192
858.197	22322
858.331	22067
858.464	22040
858.597	22055
858.731	22120
858.864	21991
858.997	22093
859.13	22097
859.263	22128
859.396	22173
859.529	22078
859.662	22059
859.795	22067
859.928	22128
860.061	22234
860.194	22314
860.327	22185
860.46	22188
860.592	22261
860.725	22192
860.858	22261
860.99	22059
861.123	22059
861.256	22109
861.388	22150
861.521	22721
861.653	22055
861.786	21903
861.918	21899
862.05	22002
862.183	22082
862.315	22036
862.447	22135
862.58	22135
862.712	21800
862.844	21888
862.976	22002
863.108	22017
863.24	22158
863.372	21903
863.504	21831
863.636	21873
863.768	21762
863.9	21857
864.032	21625
864.164	21781
864.296	21880
864.428	22013
864.559	21838
864.691	21873
864.823	22021
864.954	21774
865.086	21766
865.217	21895
865.349	21770
865.48	21732
865.612	21781
865.743	21972
865.875	21705
866.006	21766
866.137	21679
866.269	21816
866.4	21648
866.531	21747
866.662	21652
866.793	21686
866.924	21728
867.055	21671
867.186	21603
867.317	21774
867.448	21504
867.579	21652
867.71	21583
867.841	21591
867.972	21679
868.103	21660
868.233	21660
868.364	21641
868.495	21827
868.625	21911
868.756	22051
868.886	21873
869.017	21956
869.147	21983
869.278	22051
869.408	22032
869.539	21846
869.669	22040
869.799	21983
869.929	22055
870.06	21922
870.19	22055
870.32	22257
870.45	22234
870.58	22287
870.71	22375
870.84	22443
870.97	22287
871.1	22382
871.23	22565
871.36	22485
871.489	22489
871.619	22382
871.749	22523
871.879	22497
872.008	22592
872.138	22432
872.267	22462
872.397	22299
872.526	22375
872.656	22440
872.785	22367
872.915	22626
873.044	22580
873.173	22580
873.303	22565
873.432	22512
873.561	22584
873.69	22546
873.819	22538
873.948	22668
874.077	22538
874.206	22573
874.335	22577
874.464	22653
874.593	22839
874.722	22706
874.851	22744
874.979	22778
875.108	22809
875.237	22577
875.365	22645
875.494	22744
875.623	22782
875.751	22759
875.88	22645
876.008	22835
876.136	22843
876.265	23155
876.393	23334
876.521	23174
876.65	23117
876.778	23037
876.906	23086
877.034	23166
877.162	23033
877.29	22953
877.418	23227
877.546	23056
877.674	23094
877.802	23128
877.93	23109
878.058	22934
878.185	22949
878.313	23121
878.441	22999
878.568	22854
878.696	23083
878.824	23102
878.951	23250
879.079	23318
879.206	23379
879.333	23284
879.461	23284
879.588	23147
879.715	23197
879.842	23463
879.97	23147
880.097	22881
880.224	22881
880.351	23041
880.478	23006
880.605	22805
880.732	22923
880.859	23037
880.986	22755
881.112	22976
881.239	22900
881.366	22706
881.493	22607
881.619	22561
881.746	22459
881.872	22653
881.999	22455
882.125	22478
882.252	22557
882.378	22432
882.505	22603
882.631	22310
882.757	22219
882.883	22207
883.01	22192
883.136	22188
883.262	22059
883.388	21964
883.514	22185
883.64	22074
883.766	22154
883.892	21918
884.018	21968
884.143	22086
884.269	22147
884.395	21880
884.52	21751
884.646	21835
884.772	21762
884.897	21663
885.023	21686
885.148	21778
885.274	21934
885.399	21778
885.524	21865
885.65	21880
885.775	21785
885.9	21690
886.025	21945
886.15	21865
886.275	21781
886.4	21690
886.525	21751
886.65	21770
886.775	21747
886.9	21785
887.025	22082
887.149	21747
887.274	21572
887.399	21530
887.523	21629
887.648	21572
887.773	21420
887.897	21625
888.021	21686
888.146	21386
888.27	21641
888.395	21652
888.519	21557
888.643	21507
888.767	21572
888.891	21424
889.015	21382
889.139	21450
889.263	21306
889.387	21420
889.511	21534
889.635	21466
889.759	21279
889.883	21256
890.006	21397
890.13	21420
890.254	21252
890.377	21382
890.501	21214
890.624	21100
890.748	21180
890.871	20963
890.995	20804
891.118	20838
891.241	20853
891.364	20861
891.488	21020
891.611	20925
891.734	20899
891.857	21017
891.98	20937
892.103	21028
892.226	20800
892.349	20887
892.471	20663
892.594	20876
892.717	20788
892.839	20887
892.962	20712
893.085	20872
893.207	20823
893.33	20720
893.452	20663
893.575	20883
893.697	20663
893.819	20929
893.941	20925
894.064	20895
894.186	20655
894.308	20674
894.43	20925
894.552	21085
894.674	20937
894.796	20705
894.918	20864
895.04	20781
895.161	20792
895.283	20765
895.405	20731
895.526	20807
895.648	20781
895.769	20792
895.891	20929
896.012	20971
896.134	20861
896.255	20811
896.376	20777
896.498	20864
896.619	20746
896.74	20716
896.861	20731
896.982	21077
897.103	21211
897.224	21032
897.345	21001
897.466	20990
897.587	21009
897.708	21119
897.828	21093
897.949	20872
898.07	20807
898.19	20906
898.311	21051
898.431	20921
898.552	20819
898.672	20967
898.792	20967
898.913	21058
899.033	20838
899.153	20830
899.273	20720
899.393	20861
899.513	20727
899.633	20686
899.753	20796
899.873	20571
899.993	20674
900.113	20609
900.232	20739
900.352	20503
900.472	20617
900.591	20446
900.711	20495
900.83	20374
900.95	20602
901.069	20552
901.189	20400
901.308	20157
901.427	20005
901.546	20043
901.665	20043
901.784	20145
901.904	19902
902.023	19811
902.141	19639
902.26	19662
902.379	19632
902.498	19582
902.617	19521
902.735	19620
902.854	19575
902.973	19533
903.091	19240
903.21	19175
903.328	19232
903.446	19148
903.565	18993
903.683	19221
903.801	18924
903.919	19004
904.038	19019
904.156	18897
904.274	18970
904.392	18814
904.51	18745
904.627	18715
904.745	18837
904.863	18776
904.981	18661
905.098	18509
905.216	18494
905.334	18403
905.451	18536
905.569	18506
905.686	18479
905.803	18509
905.921	18266
906.038	18376
906.155	18296
906.272	18152
906.389	18190
906.506	17946
906.623	18125
906.74	18003
906.857	17920
906.974	17878
907.091	18068
907.208	17969
907.324	18030
907.441	17843
907.557	17722
907.674	17707
907.79	17699
907.907	17699
908.023	17680
908.139	17710
908.256	17573
908.372	17608
908.488	17619
908.604	17493
908.72	17410
908.836	17459
908.952	17360
909.068	17417
909.184	17535
909.3	17379
909.415	17512
909.531	17391
909.647	17147
909.762	17185
909.878	17075
909.993	17128
910.108	17010
910.224	17086
910.339	17018
910.454	16961
910.57	16908
910.685	16824
910.8	17105
910.915	17083
911.03	16911
911.145	16702
911.259	16641
911.374	16713
911.489	16683
911.604	16538
911.718	16394
911.833	16565
911.947	16352
912.062	16268
912.176	16462
912.291	16398
912.405	16504
912.519	16607
912.633	16744
912.748	16478
912.862	16421
912.976	16344
913.09	16143
913.204	16177
913.318	16341
913.431	16363
913.545	16325
913.659	16432
913.772	16147
913.886	16105
914	16097
914.113	16158
914.226	16101
914.34	16124
914.453	15975
914.566	16025
914.68	15983
914.793	15937
914.906	15747
915.019	15641
915.132	15667
915.245	15633
915.358	15679
915.47	15694
915.583	15595
915.696	15618
915.809	15800
915.921	15846
916.034	15625
916.146	15534
916.259	15587
916.371	15557
916.483	15641
916.595	15530
916.708	15469
916.82	15488
916.932	15466
917.044	15462
917.156	15416
917.268	15287
917.38	15317
917.491	15214
917.603	15287
917.715	15374
917.826	15359
917.938	15260
918.049	15195
918.161	15241
918.272	15378
918.384	15428
918.495	15222
918.606	15127
918.717	15028
918.828	15097
918.939	15146
919.05	15055
919.161	15020
919.272	14864
919.383	14899
919.494	15017
919.604	15260
919.715	15066
919.826	14941
919.936	15005
920.047	15055
920.157	14956
920.267	15123
920.378	15047
920.488	14872
920.598	15150
920.708	15397
920.818	15214
920.928	15169
921.038	15355
921.148	15211
921.258	15020
921.368	14853
921.477	14788
921.587	14777
921.697	14579
921.806	14720
921.916	14571
922.025	14423
922.134	14457
922.244	14358
922.353	14427
922.462	14233
922.571	14157
922.68	14092
922.789	13963
922.898	14027
923.007	13986
923.116	14005
923.224	13932
923.333	14039
923.442	13856
923.55	13894
923.659	13864
923.767	13925
923.876	13799
923.984	13814
924.092	13666
924.201	13807
924.309	13849
924.417	13814
924.525	13700
924.633	13655
924.741	14454
924.849	13514
924.956	13578
925.064	13460
925.172	13304
925.279	13403
925.387	13327
925.494	13358
925.602	13491
925.709	13441
925.816	13304
925.924	13369
926.031	13369
926.138	13335
926.245	13403
926.352	13206
926.459	13384
926.566	13388
926.673	13228
926.779	13114
926.886	13156
926.993	13019
927.099	12943
927.206	12859
927.312	13023
927.419	12886
927.525	12966
927.631	12962
927.737	12760
927.843	12760
927.95	12722
928.056	12677
928.162	12768
928.267	12814
928.373	13415
928.479	12745
928.585	12570
928.69	12696
928.796	12711
928.901	12646
929.007	12456
929.112	12601
929.218	12509
929.323	12448
929.428	12475
929.533	12608
929.638	12403
929.743	12471
929.848	12513
929.953	12418
930.058	12369
930.163	12053
930.267	12148
930.372	12372
930.477	12110
930.581	12350
930.685	12205
930.79	12049
930.894	12034
930.998	12019
931.103	12125
931.207	11760
931.311	11630
931.415	11646
931.519	11368
931.623	11379
