Data from test_V78500241_2537.txt Node
Date: Fri Mar 25 15:59:22 CST 2022
User: usil
Spectrometer: V785-0024
Trigger mode: 0
Integration Time (sec): 4.000000E-1
Scans to average: 1
Nonlinearity correction enabled: false
Boxcar width: 0
Storing dark spectrum: false
XAxis mode: Wavelengths
Number of Pixels in Spectrum: 1024
>>>>>Begin Spectral Data<<<<<
801.071	28421
801.214	28306
801.356	28158
801.499	28067
801.641	27941
801.783	27892
801.926	27964
802.068	27869
802.211	27914
802.353	27816
802.496	27759
802.638	27542
802.78	27545
802.923	27610
803.065	27321
803.208	27538
803.35	27660
803.492	27709
803.635	27728
803.777	27694
803.919	27876
804.061	28158
804.204	27945
804.346	27793
804.488	27766
804.63	27766
804.773	27625
804.915	27850
805.057	27914
805.199	27762
805.341	27914
805.483	27903
805.626	28051
805.768	27907
805.91	28013
806.052	28109
806.194	27873
806.336	28078
806.478	27987
806.62	27911
806.762	28055
806.904	28200
807.046	28428
807.188	28333
807.33	28481
807.472	28542
807.614	28401
807.756	28310
807.898	28318
808.04	28299
808.182	28268
808.324	28318
808.465	28333
808.607	28466
808.749	28588
808.891	28683
809.033	28729
809.174	28725
809.316	28596
809.458	28713
809.6	28592
809.741	28809
809.883	28755
810.025	28831
810.166	28934
810.308	28820
810.45	28744
810.591	28660
810.733	28565
810.875	28561
811.016	28706
811.158	28451
811.299	28763
811.441	28854
811.582	28812
811.724	28653
811.865	28546
812.007	28603
812.148	28653
812.29	28603
812.431	28862
812.573	28908
812.714	29079
812.855	29140
812.997	29220
813.138	29387
813.279	29322
813.421	29231
813.562	29086
813.703	28965
813.845	28904
813.986	28546
814.127	28421
814.268	28299
814.41	28424
814.551	28272
814.692	28303
814.833	28265
814.974	28291
815.115	28314
815.256	28139
815.397	28268
815.539	28166
815.68	28181
815.821	27926
815.962	28093
816.103	28101
816.244	27934
816.385	27960
816.526	27918
816.666	27686
816.807	27705
816.948	27652
817.089	27793
817.23	27641
817.371	27724
817.512	27564
817.653	27580
817.793	27530
817.934	27675
818.075	27591
818.216	27614
818.356	27591
818.497	27553
818.638	27279
818.778	27397
818.919	27313
819.06	27469
819.2	27675
819.341	27648
819.481	27603
819.622	27736
819.762	27930
819.903	27838
820.043	27755
820.184	27698
820.324	27732
820.465	27979
820.605	27762
820.746	27637
820.886	27591
821.026	27789
821.167	27610
821.307	27751
821.447	27728
821.588	27557
821.728	27420
821.868	27310
822.008	26952
822.149	27180
822.289	26986
822.429	26823
822.569	26864
822.709	26811
822.849	26587
822.99	26632
823.13	26587
823.27	26537
823.41	26644
823.55	26362
823.69	26332
823.83	26450
823.97	26370
824.11	26294
824.25	26282
824.389	26122
824.529	26362
824.669	26210
824.809	26381
824.949	26317
825.089	26389
825.228	26282
825.368	26134
825.508	26164
825.648	26157
825.787	26111
825.927	26252
826.067	25966
826.206	26138
826.346	26195
826.485	26157
826.625	26050
826.765	26252
826.904	26065
827.044	25879
827.183	25845
827.323	25902
827.462	25795
827.601	25875
827.741	25811
827.88	25894
828.02	25613
828.159	25921
828.298	25841
828.437	25947
828.577	25772
828.716	25932
828.855	25689
828.994	25548
829.134	25639
829.273	25597
829.412	25464
829.551	25441
829.69	25552
829.829	25559
829.968	25670
830.107	25655
830.246	25464
830.385	25537
830.524	25320
830.663	25327
830.802	25225
830.941	25171
831.08	25031
831.219	25129
831.357	25194
831.496	25282
831.635	25061
831.774	25038
831.913	25015
832.051	24779
832.19	24882
832.329	24951
832.467	24905
832.606	24776
832.744	24703
832.883	24798
833.022	24848
833.16	24935
833.299	24897
833.437	24829
833.576	24882
833.714	24878
833.852	24840
833.991	25019
834.129	24939
834.267	24894
834.406	24833
834.544	24951
834.682	24886
834.821	24825
834.959	25015
835.097	24730
835.235	24810
835.373	24844
835.511	24749
835.65	24608
835.788	24817
835.926	24711
836.064	24597
836.202	24547
836.34	24787
836.478	24741
836.615	24654
836.753	24734
836.891	24677
837.029	24741
837.167	24597
837.305	24570
837.443	24601
837.58	24513
837.718	24544
837.856	24578
837.993	24479
838.131	24559
838.269	24578
838.406	24330
838.544	24342
838.681	24224
838.819	24087
838.956	23984
839.094	23904
839.231	24045
839.369	24159
839.506	24528
839.643	24239
839.781	23958
839.918	24064
840.055	23996
840.193	24060
840.33	23996
840.467	23939
840.604	23958
840.742	24072
840.879	23775
841.016	23771
841.153	23707
841.29	23992
841.427	23923
841.564	23973
841.701	23920
841.838	23752
841.975	23767
842.112	23783
842.249	23566
842.385	23627
842.522	23813
842.659	23687
842.796	23630
842.933	23581
843.069	23551
843.206	23570
843.343	23726
843.479	23627
843.616	23718
843.752	23425
843.889	23478
844.025	23581
844.162	23376
844.298	23444
844.435	23341
844.571	23223
844.708	23341
844.844	23520
844.98	23543
845.117	23570
845.253	23334
845.389	23159
845.525	23345
845.661	23269
845.798	23220
845.934	23140
846.07	23204
846.206	23143
846.342	23284
846.478	23147
846.614	22961
846.75	22820
846.886	22908
847.022	23033
847.158	22866
847.294	22812
847.429	22900
847.565	22828
847.701	23212
847.837	22683
847.972	22535
848.108	22679
848.244	22717
848.379	22447
848.515	22493
848.65	22428
848.786	22470
848.921	22474
849.057	22512
849.192	22561
849.328	22611
849.463	22493
849.598	22451
849.734	22356
849.869	22325
850.004	22219
850.14	22223
850.275	22120
850.41	22166
850.545	22116
850.68	22246
850.815	22242
850.95	22257
851.085	22421
851.22	22276
851.355	22173
851.49	22318
851.625	22173
851.76	22207
851.895	22181
852.03	22166
852.165	22192
852.299	22139
852.434	22287
852.569	22169
852.703	22166
852.838	22325
852.973	22325
853.107	22337
853.242	22306
853.376	21975
853.511	22029
853.645	21968
853.78	22078
853.914	22143
854.048	21880
854.183	22021
854.317	22116
854.451	22257
854.585	21994
854.72	22192
854.854	22150
854.988	22078
855.122	22101
855.256	21907
855.39	22051
855.524	22211
855.658	22086
855.792	22021
855.926	22002
856.06	22029
856.194	22097
856.327	22029
856.461	21964
856.595	22086
856.729	22025
856.862	22207
856.996	21979
857.13	22169
857.263	22090
857.397	22185
857.53	22070
857.664	22147
857.797	22010
857.931	22181
858.064	22040
858.197	22063
858.331	21945
858.464	22013
858.597	21972
858.731	21941
858.864	22029
858.997	22055
859.13	22112
859.263	22059
859.396	22109
859.529	21960
859.662	21991
859.795	22025
859.928	22055
860.061	22139
860.194	22219
860.327	22120
860.46	22101
860.592	22116
860.725	22173
860.858	22131
860.99	22135
861.123	22055
861.256	22078
861.388	21983
861.521	22748
861.653	21831
861.786	21831
861.918	21831
862.05	21842
862.183	21991
862.315	22021
862.447	22090
862.58	21918
862.712	21686
862.844	21652
862.976	21747
863.108	21812
863.24	22139
863.372	21663
863.504	21835
863.636	21747
863.768	21846
863.9	21766
864.032	21652
864.164	21625
864.296	21762
864.428	21888
864.559	21869
864.691	21907
864.823	21717
864.954	21770
865.086	21800
865.217	21728
865.349	21610
865.48	21698
865.612	21618
865.743	21736
865.875	21572
866.006	21549
866.137	21778
866.269	21492
866.4	21515
866.531	21583
866.662	21424
866.793	21648
866.924	21564
867.055	21656
867.186	21679
867.317	21500
867.448	21515
867.579	21564
867.71	21507
867.841	21545
867.972	21530
868.103	21496
868.233	21622
868.364	21625
868.495	21713
868.625	21800
868.756	21827
868.886	21755
869.017	21732
869.147	21922
869.278	21945
869.408	21785
869.539	21785
869.669	21838
869.799	21838
869.929	21884
870.06	21937
870.19	22051
870.32	22150
870.45	22025
870.58	22177
870.71	22261
870.84	22219
870.97	22147
871.1	22249
871.23	22344
871.36	22489
871.489	22375
871.619	22402
871.749	22341
871.879	22588
872.008	22538
872.138	22421
872.267	22318
872.397	22329
872.526	22131
872.656	22314
872.785	22246
872.915	22481
873.044	22504
873.173	22512
873.303	22580
873.432	22554
873.561	22588
873.69	22451
873.819	22306
873.948	22523
874.077	22405
874.206	22314
874.335	22443
874.464	22637
874.593	22592
874.722	22675
874.851	22675
874.979	22736
875.108	22641
875.237	22538
875.365	22557
875.494	22641
875.623	22615
875.751	22630
875.88	22694
876.008	22733
876.136	22881
876.265	22930
876.393	23223
876.521	23235
876.65	23121
876.778	23056
876.906	22892
877.034	22987
877.162	23003
877.29	22881
877.418	23025
877.546	23029
877.674	23003
877.802	22930
877.93	22885
878.058	22999
878.185	22892
878.313	22923
878.441	22999
878.568	22858
878.696	22976
878.824	23056
878.951	23083
879.079	23102
879.206	23334
879.333	23136
879.461	23064
879.588	23102
879.715	23189
879.842	23303
879.97	23136
880.097	22790
880.224	22793
880.351	22885
880.478	22831
880.605	22767
880.732	22713
880.859	22995
880.986	22790
881.112	22755
881.239	22672
881.366	22630
881.493	22413
881.619	22432
881.746	22428
881.872	22337
881.999	22379
882.125	22409
882.252	22265
882.378	22421
882.505	22390
882.631	22246
882.757	22082
882.883	22188
883.01	22204
883.136	22032
883.262	21941
883.388	21884
883.514	22112
883.64	22002
883.766	21964
883.892	21842
884.018	21880
884.143	22006
884.269	22055
884.395	21804
884.52	21724
884.646	21701
884.772	21747
884.897	21504
885.023	21724
885.148	21759
885.274	21968
885.399	21736
885.524	21762
885.65	21755
885.775	21572
885.9	21637
886.025	21747
886.15	21774
886.275	21717
886.4	21686
886.525	21720
886.65	21614
886.775	21599
886.9	21762
887.025	21903
887.149	21561
887.274	21504
887.399	21439
887.523	21458
887.648	21545
887.773	21370
887.897	21587
888.021	21549
888.146	21424
888.27	21515
888.395	21549
888.519	21542
888.643	21500
888.767	21530
888.891	21424
889.015	21287
889.139	21252
889.263	21203
889.387	21359
889.511	21454
889.635	21378
889.759	21146
889.883	21294
890.006	21264
890.13	21344
890.254	21165
890.377	21233
890.501	20986
890.624	20998
890.748	21089
890.871	20891
890.995	20906
891.118	20853
891.241	20826
891.364	20811
891.488	20960
891.611	20823
891.734	20899
891.857	20853
891.98	20937
892.103	20861
892.226	20853
892.349	20655
892.471	20552
892.594	20746
892.717	20689
892.839	20651
892.962	20807
893.085	20727
893.207	20686
893.33	20651
893.452	20678
893.575	20720
893.697	20667
893.819	20823
893.941	20826
894.064	20876
894.186	20712
894.308	20678
894.43	20845
894.552	20769
894.674	20731
894.796	20564
894.918	20651
895.04	20606
895.161	20762
895.283	20686
895.405	20537
895.526	20754
895.648	20762
895.769	20686
895.891	20750
896.012	20750
896.134	20750
896.255	20670
896.376	20629
896.498	20785
896.619	20781
896.74	20552
896.861	20731
896.982	20975
897.103	21138
897.224	20960
897.345	20838
897.466	20842
897.587	20982
897.708	21131
897.828	20914
897.949	20773
898.07	20765
898.19	20857
898.311	20982
898.431	20785
898.552	20887
898.672	20975
898.792	21043
898.913	20910
899.033	20804
899.153	20773
899.273	20632
899.393	20720
899.513	20823
899.633	20705
899.753	20739
899.873	20625
899.993	20629
900.113	20594
900.232	20724
900.352	20469
900.472	20488
900.591	20317
900.711	20366
900.83	20351
900.95	20533
901.069	20545
901.189	20427
901.308	20195
901.427	20008
901.546	19993
901.665	20103
901.784	19967
901.904	19826
902.023	19830
902.141	19590
902.26	19613
902.379	19563
902.498	19438
902.617	19377
902.735	19533
902.854	19422
902.973	19354
903.091	19187
903.21	19122
903.328	19148
903.446	19088
903.565	18913
903.683	18840
903.801	18798
903.919	18973
904.038	18943
904.156	18821
904.274	18852
904.392	18715
904.51	18821
904.627	18650
904.745	18650
904.863	18791
904.981	18597
905.098	18372
905.216	18342
905.334	18464
905.451	18426
905.569	18414
905.686	18479
905.803	18342
905.921	18273
906.038	18323
906.155	18163
906.272	18034
906.389	18159
906.506	17973
906.623	17950
906.74	17996
906.857	17745
906.974	17863
907.091	17904
907.208	18007
907.324	18038
907.441	17817
907.557	17794
907.674	17680
907.79	17615
907.907	17699
908.023	17528
908.139	17634
908.256	17615
908.372	17589
908.488	17532
908.604	17455
908.72	17216
908.836	17353
908.952	17433
909.068	17330
909.184	17459
909.3	17372
909.415	17421
909.531	17444
909.647	17162
909.762	17003
909.878	17033
909.993	17071
910.108	16976
910.224	17041
910.339	16976
910.454	16911
910.57	16927
910.685	16767
910.8	16942
910.915	17010
911.03	16820
911.145	16679
911.259	16698
911.374	16656
911.489	16592
911.604	16432
911.718	16348
911.833	16398
911.947	16287
912.062	16249
912.176	16474
912.291	16367
912.405	16371
912.519	16413
912.633	16618
912.748	16375
912.862	16363
912.976	16276
913.09	16025
913.204	16181
913.318	16120
913.431	16268
913.545	16124
913.659	16337
913.772	16253
913.886	16017
914	15888
914.113	16059
914.226	16169
914.34	16048
914.453	15941
914.566	16013
914.68	15895
914.793	15831
914.906	15736
915.019	15637
915.132	15485
915.245	15606
915.358	15473
915.47	15580
915.583	15576
915.696	15572
915.809	15709
915.921	15694
916.034	15469
916.146	15469
916.259	15428
916.371	15515
916.483	15595
916.595	15466
916.708	15428
916.82	15389
916.932	15317
917.044	15279
917.156	15355
917.268	15222
917.38	15279
917.491	15192
917.603	15222
917.715	15218
917.826	15264
917.938	15203
918.049	15097
918.161	15176
918.272	15272
918.384	15294
918.495	15169
918.606	15032
918.717	14899
918.828	15001
918.939	15017
919.05	14929
919.161	14982
919.272	14682
919.383	14758
919.494	14979
919.604	15047
919.715	14902
919.826	14834
919.936	14861
920.047	14956
920.157	14895
920.267	15013
920.378	14937
920.488	14804
920.598	15157
920.708	15226
920.818	15028
920.928	15089
921.038	15157
921.148	15135
921.258	14956
921.368	14754
921.477	14686
921.587	14651
921.697	14537
921.806	14686
921.916	14423
922.025	14358
922.134	14301
922.244	14313
922.353	14339
922.462	14168
922.571	14107
922.68	13951
922.789	13974
922.898	13887
923.007	13917
923.116	13982
923.224	13902
923.333	13845
923.442	13693
923.55	13696
923.659	13750
923.767	13742
923.876	13689
923.984	13636
924.092	13636
924.201	13582
924.309	13601
924.417	13693
924.525	13567
924.633	13578
924.741	14362
924.849	13388
924.956	13552
925.064	13316
925.172	13270
925.279	13377
925.387	13377
925.494	13343
925.602	13430
925.709	13324
925.816	13137
925.924	13168
926.031	13304
926.138	13244
926.245	13266
926.352	13171
926.459	13274
926.566	13308
926.673	13069
926.779	13099
926.886	13080
926.993	12878
927.099	12966
927.206	12825
927.312	12814
927.419	12924
927.525	12863
927.631	12825
927.737	12844
927.843	12696
927.95	12570
928.056	12623
928.162	12783
928.267	12677
928.373	13358
928.479	12749
928.585	12517
928.69	12620
928.796	12627
928.901	12589
929.007	12376
929.112	12544
929.218	12456
929.323	12414
929.428	12441
929.533	12517
929.638	12300
929.743	12426
929.848	12479
929.953	12372
930.058	12175
930.163	12072
930.267	12076
930.372	12239
930.477	12022
930.581	12315
930.685	12102
930.79	11954
930.894	11984
930.998	11916
931.103	12011
931.207	11718
931.311	11611
931.415	11535
931.519	11322
931.623	11311
