Data from test_V78500241_490.txt Node
Date: Fri Mar 25 15:45:11 CST 2022
User: usil
Spectrometer: V785-0024
Trigger mode: 0
Integration Time (sec): 4.000000E-1
Scans to average: 1
Nonlinearity correction enabled: false
Boxcar width: 0
Storing dark spectrum: false
XAxis mode: Wavelengths
Number of Pixels in Spectrum: 1024
>>>>>Begin Spectral Data<<<<<
801.071	27359
801.214	27378
801.356	27017
801.499	26944
801.641	26857
801.783	27020
801.926	26910
802.068	26982
802.211	26838
802.353	26678
802.496	26465
802.638	26571
802.78	26453
802.923	26518
803.065	26526
803.208	26579
803.35	26568
803.492	26667
803.635	26575
803.777	26560
803.919	26644
804.061	26853
804.204	26716
804.346	26609
804.488	26689
804.63	26678
804.773	26537
804.915	26670
805.057	26708
805.199	26617
805.341	26773
805.483	26807
805.626	26773
805.768	26644
805.91	26708
806.052	26746
806.194	26640
806.336	26956
806.478	26823
806.62	26743
806.762	26948
806.904	27028
807.046	27237
807.188	27329
807.33	27211
807.472	27355
807.614	27001
807.756	27310
807.898	26990
808.04	27005
808.182	26960
808.324	27195
808.465	27001
808.607	27268
808.749	27294
808.891	27420
809.033	27671
809.174	27580
809.316	27450
809.458	27416
809.6	27500
809.741	27526
809.883	27469
810.025	27633
810.166	27675
810.308	27481
810.45	27644
810.591	27564
810.733	27363
810.875	27405
811.016	27283
811.158	27332
811.299	27431
811.441	27519
811.582	27458
811.724	27389
811.865	27256
812.007	27310
812.148	27382
812.29	27378
812.431	27447
812.573	27583
812.714	27705
812.855	28032
812.997	27949
813.138	28124
813.279	27873
813.421	28032
813.562	27895
813.703	27622
813.845	27644
813.986	27405
814.127	27150
814.268	27036
814.41	27256
814.551	27051
814.692	27203
814.833	26967
814.974	26944
815.115	27077
815.256	26971
815.397	26864
815.539	26986
815.68	26849
815.821	26887
815.962	26868
816.103	26773
816.244	26735
816.385	26625
816.526	26697
816.666	26408
816.807	26252
816.948	26492
817.089	26324
817.23	26434
817.371	26332
817.512	26309
817.653	26259
817.793	26309
817.934	26256
818.075	26370
818.216	26313
818.356	26286
818.497	26225
818.638	25913
818.778	26084
818.919	26161
819.06	26142
819.2	26084
819.341	26256
819.481	26298
819.622	26347
819.762	26632
819.903	26549
820.043	26495
820.184	26488
820.324	26294
820.465	26427
820.605	26385
820.746	26537
820.886	26259
821.026	26511
821.167	26533
821.307	26461
821.447	26313
821.588	26206
821.728	26092
821.868	26031
822.008	25704
822.149	25780
822.289	25746
822.429	25525
822.569	25362
822.709	25422
822.849	25343
822.99	25244
823.13	25209
823.27	25175
823.41	25160
823.55	24890
823.69	25232
823.83	25046
823.97	24973
824.11	24943
824.25	24920
824.389	24913
824.529	25046
824.669	24798
824.809	25088
824.949	25027
825.089	24882
825.228	25012
825.368	24837
825.508	24753
825.648	24791
825.787	24844
825.927	24924
826.067	24772
826.206	24738
826.346	24875
826.485	24810
826.625	24928
826.765	24985
826.904	24821
827.044	24490
827.183	24464
827.323	24517
827.462	24646
827.601	24623
827.741	24490
827.88	24467
828.02	24247
828.159	24498
828.298	24460
828.437	24479
828.577	24456
828.716	24426
828.855	24319
828.994	24258
829.134	24148
829.273	24140
829.412	24174
829.551	24083
829.69	24155
829.829	24350
829.968	24270
830.107	24300
830.246	24270
830.385	24129
830.524	24140
830.663	24053
830.802	23786
830.941	23859
831.08	23726
831.219	23996
831.357	23901
831.496	24060
831.635	23748
831.774	23733
831.913	23585
832.051	23729
832.19	23585
832.329	23539
832.467	23501
832.606	23478
832.744	23497
832.883	23589
833.022	23436
833.16	23539
833.299	23486
833.437	23417
833.576	23611
833.714	23539
833.852	23509
833.991	23535
834.129	23646
834.267	23596
834.406	23543
834.544	23581
834.682	23509
834.821	23543
834.959	23649
835.097	23474
835.235	23528
835.373	23520
835.511	23539
835.65	23417
835.788	23410
835.926	23254
836.064	23181
836.202	23102
836.34	23387
836.478	23414
836.615	23322
836.753	23345
836.891	23474
837.029	23364
837.167	23231
837.305	23353
837.443	23216
837.58	23140
837.718	23376
837.856	23189
837.993	23140
838.131	23128
838.269	23109
838.406	23094
838.544	23048
838.681	22790
838.819	22889
838.956	22656
839.094	22599
839.231	22683
839.369	22904
839.506	23041
839.643	22965
839.781	22698
839.918	22660
840.055	22744
840.193	22634
840.33	22615
840.467	22626
840.604	22706
840.742	22858
840.879	22577
841.016	22538
841.153	22607
841.29	22645
841.427	22554
841.564	22622
841.701	22626
841.838	22481
841.975	22466
842.112	22497
842.249	22470
842.385	22394
842.522	22538
842.659	22409
842.796	22367
842.933	22379
843.069	22310
843.206	22253
843.343	22523
843.479	22360
843.616	22234
843.752	22051
843.889	22226
844.025	22280
844.162	21968
844.298	22200
844.435	22002
844.571	22048
844.708	22135
844.844	22272
844.98	22154
845.117	22261
845.253	22029
845.389	22082
845.525	22021
845.661	21915
845.798	21899
845.934	21903
846.07	21739
846.206	21846
846.342	21926
846.478	21838
846.614	21549
846.75	21572
846.886	21583
847.022	21656
847.158	21564
847.294	21572
847.429	21637
847.565	21549
847.701	21907
847.837	21405
847.972	21310
848.108	21424
848.244	21542
848.379	21340
848.515	21150
848.65	21184
848.786	21268
848.921	21214
849.057	21340
849.192	21272
849.328	21287
849.463	21131
849.598	21135
849.734	20967
849.869	21005
850.004	20902
850.14	20937
850.275	20990
850.41	20807
850.545	20952
850.68	20937
850.815	20975
850.95	20941
851.085	21116
851.22	21051
851.355	20982
851.49	20918
851.625	20826
851.76	20952
851.895	20868
852.03	20857
852.165	20880
852.299	20960
852.434	20986
852.569	20990
852.703	20910
852.838	21062
852.973	21047
853.107	20998
853.242	20925
853.376	20842
853.511	20640
853.645	20663
853.78	21051
853.914	20811
854.048	20724
854.183	20705
854.317	20819
854.451	20994
854.585	20697
854.72	20785
854.854	20754
854.988	20682
855.122	20815
855.256	20636
855.39	20609
855.524	20925
855.658	20963
855.792	20826
855.926	20785
856.06	20785
856.194	20785
856.327	20735
856.461	20701
856.595	20788
856.729	20842
856.862	20902
856.996	20842
857.13	20796
857.263	20781
857.397	20830
857.53	20788
857.664	20823
857.797	20765
857.931	20823
858.064	20891
858.197	20910
858.331	20663
858.464	20689
858.597	20602
858.731	20705
858.864	20663
858.997	20739
859.13	20720
859.263	20792
859.396	20842
859.529	20823
859.662	20811
859.795	20655
859.928	20781
860.061	20895
860.194	21089
860.327	20773
860.46	20769
860.592	20773
860.725	20830
860.858	20883
860.99	20804
861.123	20632
861.256	20689
861.388	20754
861.521	21329
861.653	20689
861.786	20507
861.918	20670
862.05	20705
862.183	20758
862.315	20769
862.447	20678
862.58	20556
862.712	20446
862.844	20377
862.976	20613
863.108	20667
863.24	20857
863.372	20434
863.504	20507
863.636	20492
863.768	20492
863.9	20484
864.032	20415
864.164	20366
864.296	20457
864.428	20503
864.559	20579
864.691	20537
864.823	20526
864.954	20431
865.086	20400
865.217	20514
865.349	20328
865.48	20438
865.612	20511
865.743	20560
865.875	20427
866.006	20408
866.137	20343
866.269	20400
866.4	20404
866.531	20313
866.662	20263
866.793	20282
866.924	20362
867.055	20339
867.186	20377
867.317	20332
867.448	20172
867.579	20271
867.71	20240
867.841	20122
867.972	20396
868.103	20355
868.233	20320
868.364	20298
868.495	20434
868.625	20552
868.756	20625
868.886	20461
869.017	20518
869.147	20659
869.278	20705
869.408	20667
869.539	20545
869.669	20663
869.799	20617
869.929	20598
870.06	20830
870.19	20868
870.32	20864
870.45	21017
870.58	20952
870.71	21077
870.84	21013
870.97	20963
871.1	20975
871.23	21138
871.36	21188
871.489	21043
871.619	21096
871.749	21199
871.879	21104
872.008	21279
872.138	21211
872.267	21108
872.397	21013
872.526	21058
872.656	20948
872.785	21108
872.915	21173
873.044	21233
873.173	21222
873.303	21192
873.432	21207
873.561	21294
873.69	21100
873.819	21233
873.948	21237
874.077	21074
874.206	21085
874.335	21119
874.464	21325
874.593	21256
874.722	21504
874.851	21587
874.979	21477
875.108	21374
875.237	21363
875.365	21310
875.494	21435
875.623	21507
875.751	21302
875.88	21488
876.008	21519
876.136	21576
876.265	21728
876.393	21835
876.521	21762
876.65	21956
876.778	21835
876.906	21720
877.034	21755
877.162	21705
877.29	21663
877.418	21774
877.546	21800
877.674	21857
877.802	21831
877.93	21823
878.058	21720
878.185	21603
878.313	21629
878.441	21785
878.568	21542
878.696	21724
878.824	21823
878.951	21915
879.079	21884
879.206	22025
879.333	21918
879.461	21778
879.588	21888
879.715	21994
879.842	22055
879.97	21774
880.097	21648
880.224	21610
880.351	21599
880.478	21656
880.605	21462
880.732	21526
880.859	21785
880.986	21553
881.112	21622
881.239	21424
881.366	21344
881.493	21211
881.619	21199
881.746	21169
881.872	21127
881.999	21180
882.125	21062
882.252	21131
882.378	21245
882.505	21351
882.631	21089
882.757	20963
882.883	20868
883.01	20963
883.136	20857
883.262	20777
883.388	20651
883.514	20872
883.64	20990
883.766	20845
883.892	20663
884.018	20727
884.143	20979
884.269	20906
884.395	20541
884.52	20545
884.646	20560
884.772	20469
884.897	20473
885.023	20602
885.148	20686
885.274	20735
885.399	20708
885.524	20526
885.65	20629
885.775	20522
885.9	20503
886.025	20629
886.15	20583
886.275	20526
886.4	20492
886.525	20526
886.65	20423
886.775	20625
886.9	20568
887.025	20800
887.149	20427
887.274	20305
887.399	20332
887.523	20317
887.648	20286
887.773	20267
887.897	20495
888.021	20275
888.146	20240
888.27	20374
888.395	20332
888.519	20332
888.643	20362
888.767	20450
888.891	20351
889.015	20225
889.139	20221
889.263	20134
889.387	20286
889.511	20320
889.635	20214
889.759	20126
889.883	20115
890.006	20073
890.13	20088
890.254	20027
890.377	19967
890.501	19902
890.624	19742
890.748	20039
890.871	19788
890.995	19731
891.118	19518
891.241	19731
891.364	19757
891.488	19791
891.611	19632
891.734	19772
891.857	19799
891.98	19681
892.103	19712
892.226	19719
892.349	19635
892.471	19537
892.594	19674
892.717	19620
892.839	19658
892.962	19582
893.085	19753
893.207	19540
893.33	19445
893.452	19548
893.575	19616
893.697	19647
893.819	19742
893.941	19879
894.064	19761
894.186	19544
894.308	19597
894.43	19677
894.552	19742
894.674	19655
894.796	19453
894.918	19586
895.04	19616
895.161	19700
895.283	19700
895.405	19483
895.526	19677
895.648	19597
895.769	19693
895.891	19662
896.012	19742
896.134	19635
896.255	19601
896.376	19586
896.498	19624
896.619	19609
896.74	19590
896.861	19685
896.982	19902
897.103	20119
897.224	19898
897.345	19837
897.466	19822
897.587	19959
897.708	19963
897.828	19940
897.949	19860
898.07	19635
898.19	19852
898.311	19887
898.431	19822
898.552	19879
898.672	19902
898.792	20016
898.913	19887
899.033	19738
899.153	19635
899.273	19616
899.393	19552
899.513	19674
899.633	19681
899.753	19674
899.873	19521
899.993	19647
900.113	19419
900.232	19685
900.352	19499
900.472	19529
900.591	19377
900.711	19400
900.83	19388
900.95	19419
901.069	19460
901.189	19407
901.308	19095
901.427	18962
901.546	19076
901.665	19076
901.784	19046
901.904	18954
902.023	18779
902.141	18650
902.26	18566
902.379	18593
902.498	18532
902.617	18513
902.735	18601
902.854	18498
902.973	18380
903.091	18167
903.21	18209
903.328	18026
903.446	18079
903.565	17996
903.683	18015
903.801	17885
903.919	18015
904.038	17885
904.156	17771
904.274	17889
904.392	17665
904.51	17649
904.627	17737
904.745	17760
904.863	17748
904.981	17600
905.098	17471
905.216	17417
905.334	17417
905.451	17490
905.569	17334
905.686	17490
905.803	17387
905.921	17280
906.038	17402
906.155	17292
906.272	17094
906.389	17208
906.506	16984
906.623	17060
906.74	17010
906.857	16847
906.974	16816
907.091	16999
907.208	17140
907.324	17056
907.441	16911
907.557	16706
907.674	16713
907.79	16592
907.907	16637
908.023	16656
908.139	16786
908.256	16615
908.372	16599
908.488	16577
908.604	16474
908.72	16405
908.836	16409
908.952	16314
909.068	16322
909.184	16398
909.3	16550
909.415	16432
909.531	16329
909.647	16234
909.762	16067
909.878	16211
909.993	16105
910.108	16139
910.224	16063
910.339	16135
910.454	16036
910.57	15892
910.685	15892
910.8	16128
910.915	16078
911.03	15911
911.145	15797
911.259	15675
911.374	15667
911.489	15599
911.604	15606
911.718	15367
911.833	15580
911.947	15435
912.062	15306
912.176	15523
912.291	15545
912.405	15553
912.519	15652
912.633	15599
912.748	15576
912.862	15439
912.976	15313
913.09	15146
913.204	15233
913.318	15207
913.431	15439
913.545	15317
913.659	15367
913.772	15283
913.886	15123
914	15036
914.113	15146
914.226	15161
914.34	15180
914.453	14899
914.566	15116
914.68	14998
914.793	14982
914.906	14697
915.019	14682
915.132	14693
915.245	14758
915.358	14750
915.47	14674
915.583	14651
915.696	14792
915.809	14777
915.921	14815
916.034	14697
916.146	14678
916.259	14625
916.371	14743
916.483	14693
916.595	14537
916.708	14503
916.82	14590
916.932	14522
917.044	14465
917.156	14427
917.268	14442
917.38	14427
917.491	14339
917.603	14461
917.715	14419
917.826	14431
917.938	14305
918.049	14206
918.161	14339
918.272	14461
918.384	14499
918.495	14408
918.606	14043
918.717	14138
918.828	14199
918.939	14187
919.05	14084
919.161	14164
919.272	13955
919.383	13902
919.494	14153
919.604	14278
919.715	14161
919.826	14020
919.936	14161
920.047	14092
920.157	14168
920.267	14282
920.378	14210
920.488	14111
920.598	14256
920.708	14404
920.818	14252
920.928	14252
921.038	14393
921.148	14358
921.258	14039
921.368	14035
921.477	13974
921.587	13833
921.697	13788
921.806	13875
921.916	13658
922.025	13582
922.134	13609
922.244	13483
922.353	13582
922.462	13430
922.571	13369
922.68	13122
922.789	13179
922.898	13145
923.007	13175
923.116	13152
923.224	13129
923.333	13190
923.442	13080
923.55	12981
923.659	13050
923.767	13027
923.876	12939
923.984	12985
924.092	12897
924.201	12932
924.309	12875
924.417	12962
924.525	12878
924.633	12897
924.741	13601
924.849	12635
924.956	12787
925.064	12665
925.172	12559
925.279	12525
925.387	12631
925.494	12646
925.602	12734
925.709	12642
925.816	12395
925.924	12544
926.031	12642
926.138	12555
926.245	12608
926.352	12498
926.459	12574
926.566	12589
926.673	12475
926.779	12342
926.886	12338
926.993	12224
927.099	12186
927.206	12190
927.312	12155
927.419	12330
927.525	12171
927.631	12129
927.737	12171
927.843	12049
927.95	11954
928.056	12057
928.162	12045
928.267	12106
928.373	12677
928.479	12041
928.585	11851
928.69	12030
928.796	11977
928.901	11764
929.007	11726
929.112	11931
929.218	11851
929.323	11851
929.428	11771
929.533	11851
929.638	11680
929.743	11710
929.848	11840
929.953	11649
930.058	11532
930.163	11368
930.267	11448
930.372	11577
930.477	11303
930.581	11684
930.685	11421
930.79	11261
930.894	11376
930.998	11360
931.103	11448
931.207	11052
931.311	11003
931.415	10938
931.519	10710
931.623	10717
