Data from test_V78500241_380.txt Node
Date: Fri Mar 25 15:44:26 CST 2022
User: usil
Spectrometer: V785-0024
Trigger mode: 0
Integration Time (sec): 4.000000E-1
Scans to average: 1
Nonlinearity correction enabled: false
Boxcar width: 0
Storing dark spectrum: false
XAxis mode: Wavelengths
Number of Pixels in Spectrum: 1024
>>>>>Begin Spectral Data<<<<<
801.071	29516
801.214	29539
801.356	29387
801.499	29318
801.641	29227
801.783	29208
801.926	29353
802.068	29208
802.211	29006
802.353	29071
802.496	28934
802.638	28847
802.78	28885
802.923	28835
803.065	28809
803.208	28900
803.35	28919
803.492	28991
803.635	29048
803.777	28976
803.919	29041
804.061	29349
804.204	29216
804.346	29067
804.488	28919
804.63	29121
804.773	28854
804.915	29048
805.057	29220
805.199	29071
805.341	29132
805.483	29181
805.626	29056
805.768	29166
805.91	29064
806.052	29258
806.194	29337
806.336	29368
806.478	29242
806.62	29235
806.762	29303
806.904	29375
807.046	29790
807.188	29589
807.33	29722
807.472	29737
807.614	29566
807.756	29482
807.898	29448
808.04	29425
808.182	29417
808.324	29463
808.465	29459
808.607	29710
808.749	29737
808.891	30015
809.033	30053
809.174	30022
809.316	29855
809.458	29859
809.6	29851
809.741	29927
809.883	30087
810.025	30125
810.166	30174
810.308	30235
810.45	30110
810.591	30102
810.733	29969
810.875	29954
811.016	29737
811.158	29745
811.299	30102
811.441	30045
811.582	30068
811.724	29939
811.865	29745
812.007	29942
812.148	29878
812.29	29859
812.431	30011
812.573	30140
812.714	30289
812.855	30220
812.997	30429
813.138	30757
813.279	30532
813.421	30407
813.562	30251
813.703	30159
813.845	30174
813.986	29874
814.127	29672
814.268	29657
814.41	29512
814.551	29551
814.692	29566
814.833	29436
814.974	29592
815.115	29410
815.256	29349
815.397	29463
815.539	29387
815.68	29356
815.821	29216
815.962	29414
816.103	29410
816.244	29212
816.385	29170
816.526	29048
816.666	28888
816.807	28812
816.948	28987
817.089	28801
817.23	28873
817.371	28828
817.512	28771
817.653	28710
817.793	28634
817.934	28755
818.075	28869
818.216	28805
818.356	28809
818.497	28691
818.638	28569
818.778	28527
818.919	28493
819.06	28641
819.2	28599
819.341	28862
819.481	28801
819.622	28957
819.762	29102
819.903	28965
820.043	28991
820.184	28877
820.324	28862
820.465	28873
820.605	28980
820.746	28911
820.886	28702
821.026	28843
821.167	28778
821.307	28915
821.447	28763
821.588	28672
821.728	28603
821.868	28443
822.008	28112
822.149	28181
822.289	28147
822.429	27892
822.569	27850
822.709	27842
822.849	27804
822.99	27751
823.13	27641
823.27	27576
823.41	27454
823.55	27306
823.69	27557
823.83	27412
823.97	27469
824.11	27321
824.25	27252
824.389	27431
824.529	27435
824.669	27329
824.809	27389
824.949	27454
825.089	27416
825.228	27408
825.368	27131
825.508	27112
825.648	27222
825.787	27237
825.927	27268
826.067	27256
826.206	27161
826.346	27241
826.485	27214
826.625	27176
826.765	27306
826.904	27211
827.044	26906
827.183	26891
827.323	26891
827.462	26982
827.601	26880
827.741	26883
827.88	26872
828.02	26727
828.159	26838
828.298	26887
828.437	26876
828.577	26910
828.716	26986
828.855	26640
828.994	26545
829.134	26412
829.273	26617
829.412	26522
829.551	26537
829.69	26469
829.829	26632
829.968	26590
830.107	26682
830.246	26495
830.385	26305
830.524	26427
830.663	26343
830.802	26244
830.941	26058
831.08	25963
831.219	26187
831.357	26069
831.496	26259
831.635	26012
831.774	26054
831.913	25963
832.051	25830
832.19	25780
832.329	26020
832.467	25830
832.606	25727
832.744	25635
832.883	25719
833.022	25715
833.16	25731
833.299	25731
833.437	25738
833.576	25799
833.714	25833
833.852	25765
833.991	25826
834.129	25993
834.267	25830
834.406	25921
834.544	25852
834.682	25788
834.821	25742
834.959	25902
835.097	25537
835.235	25875
835.373	25845
835.511	25620
835.65	25674
835.788	25609
835.926	25529
836.064	25343
836.202	25430
836.34	25658
836.478	25734
836.615	25586
836.753	25708
836.891	25639
837.029	25632
837.167	25468
837.305	25468
837.443	25499
837.58	25331
837.718	25510
837.856	25449
837.993	25289
838.131	25403
838.269	25228
838.406	25190
838.544	25194
838.681	25084
838.819	25000
838.956	24878
839.094	24776
839.231	24928
839.369	25027
839.506	25057
839.643	25050
839.781	24867
839.918	24825
840.055	24886
840.193	24715
840.33	24768
840.467	24814
840.604	24867
840.742	24951
840.879	24726
841.016	24673
841.153	24464
841.29	24878
841.427	24681
841.564	24688
841.701	24745
841.838	24688
841.975	24513
842.112	24715
842.249	24486
842.385	24509
842.522	24547
842.659	24509
842.796	24365
842.933	24464
843.069	24361
843.206	24353
843.343	24388
843.479	24410
843.616	24380
843.752	24079
843.889	24129
844.025	24213
844.162	24174
844.298	24289
844.435	24060
844.571	24197
844.708	24106
844.844	24209
844.98	24308
845.117	24323
845.253	24182
845.389	24045
845.525	24045
845.661	24022
845.798	23824
845.934	23783
846.07	23756
846.206	23866
846.342	23927
846.478	23866
846.614	23585
846.75	23581
846.886	23646
847.022	23695
847.158	23589
847.294	23509
847.429	23562
847.565	23566
847.701	23764
847.837	23402
847.972	23292
848.108	23387
848.244	23387
848.379	23117
848.515	23231
848.65	23181
848.786	23105
848.921	23223
849.057	23231
849.192	23261
849.328	23147
849.463	23140
849.598	23022
849.734	23121
849.869	22915
850.004	22930
850.14	22881
850.275	22908
850.41	22927
850.545	22767
850.68	22938
850.815	22881
850.95	22942
851.085	23121
851.22	22908
851.355	22900
851.49	22934
851.625	22812
851.76	22831
851.895	22771
852.03	22869
852.165	22843
852.299	23052
852.434	22927
852.569	22915
852.703	22877
852.838	22911
852.973	23044
853.107	23052
853.242	22828
853.376	22710
853.511	22527
853.645	22664
853.78	22679
853.914	22710
854.048	22577
854.183	22592
854.317	22637
854.451	22828
854.585	22767
854.72	22679
854.854	22771
854.988	22588
855.122	22573
855.256	22470
855.39	22691
855.524	22656
855.658	22755
855.792	22588
855.926	22786
856.06	22793
856.194	22637
856.327	22805
856.461	22538
856.595	22615
856.729	22611
856.862	22736
856.996	22698
857.13	22729
857.263	22793
857.397	22733
857.53	22710
857.664	22725
857.797	22831
857.931	22687
858.064	22672
858.197	22759
858.331	22649
858.464	22508
858.597	22413
858.731	22622
858.864	22694
858.997	22508
859.13	22664
859.263	22649
859.396	22637
859.529	22691
859.662	22577
859.795	22554
859.928	22649
860.061	22881
860.194	22858
860.327	22725
860.46	22835
860.592	22721
860.725	22736
860.858	22656
860.99	22618
861.123	22599
861.256	22417
861.388	22664
861.521	23311
861.653	22580
861.786	22447
861.918	22447
862.05	22565
862.183	22592
862.315	22668
862.447	22702
862.58	22535
862.712	22470
862.844	22318
862.976	22440
863.108	22382
863.24	22885
863.372	22211
863.504	22360
863.636	22371
863.768	22333
863.9	22234
864.032	22310
864.164	22192
864.296	22337
864.428	22432
864.559	22348
864.691	22398
864.823	22272
864.954	22402
865.086	22234
865.217	22116
865.349	22112
865.48	22253
865.612	22192
865.743	22272
865.875	22154
866.006	22185
866.137	22268
866.269	22105
866.4	22200
866.531	22048
866.662	22044
866.793	22162
866.924	22223
867.055	22291
867.186	22158
867.317	22143
867.448	22112
867.579	22078
867.71	21934
867.841	22067
867.972	22181
868.103	22143
868.233	22006
868.364	22082
868.495	22211
868.625	22379
868.756	22413
868.886	22314
869.017	22363
869.147	22405
869.278	22497
869.408	22246
869.539	22382
869.669	22310
869.799	22322
869.929	22375
870.06	22462
870.19	22645
870.32	22577
870.45	22729
870.58	22801
870.71	22904
870.84	22850
870.97	22565
871.1	22816
871.23	22934
871.36	22987
871.489	22896
871.619	22968
871.749	22942
871.879	23010
872.008	23025
872.138	23029
872.267	22953
872.397	22755
872.526	22733
872.656	22797
872.785	22862
872.915	22965
873.044	23071
873.173	23037
873.303	22999
873.432	23151
873.561	23025
873.69	23052
873.819	22938
873.948	23067
874.077	23018
874.206	22908
874.335	22923
874.464	23029
874.593	23113
874.722	23239
874.851	23178
874.979	23269
875.108	23246
875.237	23159
875.365	22991
875.494	23155
875.623	23258
875.751	23105
875.88	23258
876.008	23311
876.136	23322
876.265	23585
876.393	23589
876.521	23501
876.65	23657
876.778	23486
876.906	23474
877.034	23444
877.162	23558
877.29	23512
877.418	23520
877.546	23368
877.674	23531
877.802	23501
877.93	23501
878.058	23452
878.185	23417
878.313	23467
878.441	23474
878.568	23212
878.696	23410
878.824	23627
878.951	23668
879.079	23691
879.206	23790
879.333	23699
879.461	23554
879.588	23547
879.715	23649
879.842	23695
879.97	23710
880.097	23414
880.224	23227
880.351	23376
880.478	23444
880.605	23227
880.732	23288
880.859	23509
880.986	23212
881.112	23429
881.239	23181
881.366	23041
881.493	23033
881.619	22839
881.746	22934
881.872	22885
881.999	22873
882.125	22793
882.252	22831
882.378	22850
882.505	23003
882.631	22778
882.757	22569
882.883	22664
883.01	22618
883.136	22493
883.262	22386
883.388	22382
883.514	22641
883.64	22580
883.766	22535
883.892	22314
884.018	22409
884.143	22557
884.269	22668
884.395	22394
884.52	22173
884.646	22303
884.772	22158
884.897	22173
885.023	22116
885.148	22341
885.274	22242
885.399	22207
885.524	22211
885.65	22238
885.775	22226
885.9	22109
886.025	22344
886.15	22215
886.275	22109
886.4	21964
886.525	22128
886.65	22059
886.775	22223
886.9	22287
887.025	22344
887.149	22207
887.274	22029
887.399	21869
887.523	22040
887.648	21987
887.773	21842
887.897	21968
888.021	22013
888.146	21892
888.27	21964
888.395	22036
888.519	21816
888.643	22017
888.767	21854
888.891	21759
889.015	21766
889.139	21717
889.263	21778
889.387	21842
889.511	21892
889.635	21838
889.759	21766
889.883	21709
890.006	21819
890.13	21747
890.254	21656
890.377	21591
890.501	21561
890.624	21450
890.748	21549
890.871	21355
890.995	21184
891.118	21268
891.241	21401
891.364	21298
891.488	21408
891.611	21351
891.734	21199
891.857	21363
891.98	21268
892.103	21252
892.226	21252
892.349	21214
892.471	21036
892.594	21154
892.717	21195
892.839	21074
892.962	21245
893.085	21188
893.207	21165
893.33	21039
893.452	21036
893.575	21138
893.697	21096
893.819	21306
893.941	21256
894.064	21340
894.186	21154
894.308	21077
894.43	21367
894.552	21408
894.674	21237
894.796	21001
894.918	21150
895.04	21161
895.161	21214
895.283	21252
895.405	20982
895.526	21226
895.648	21138
895.769	21157
895.891	21119
896.012	21291
896.134	21096
896.255	21146
896.376	21116
896.498	21146
896.619	21173
896.74	21291
896.861	21207
896.982	21561
897.103	21622
897.224	21469
897.345	21237
897.466	21317
897.587	21287
897.708	21549
897.828	21428
897.949	21332
898.07	21100
898.19	21188
898.311	21401
898.431	21260
898.552	21386
898.672	21393
898.792	21355
898.913	21252
899.033	21192
899.153	21127
899.273	21039
899.393	21085
899.513	21017
899.633	21074
899.753	21203
899.873	20944
899.993	21070
900.113	21032
900.232	21055
900.352	21013
900.472	20857
900.591	20792
900.711	20838
900.83	20769
900.95	20960
901.069	20773
901.189	20708
901.308	20389
901.427	20339
901.546	20294
901.665	20431
901.784	20271
901.904	20298
902.023	20244
902.141	19967
902.26	19765
902.379	20005
902.498	19845
902.617	19894
902.735	20039
902.854	19776
902.973	19662
903.091	19529
903.21	19468
903.328	19586
903.446	19419
903.565	19400
903.683	19301
903.801	19259
903.919	19270
904.038	19236
904.156	19053
904.274	19183
904.392	19099
904.51	19145
904.627	19137
904.745	19133
904.863	19164
904.981	18863
905.098	18741
905.216	18757
905.334	18749
905.451	18981
905.569	18806
905.686	18840
905.803	18646
905.921	18479
906.038	18601
906.155	18456
906.272	18384
906.389	18479
906.506	18426
906.623	18285
906.74	18277
906.857	18140
906.974	18155
907.091	18372
907.208	18395
907.324	18270
907.441	18102
907.557	17942
907.674	18049
907.79	17882
907.907	17847
908.023	17946
908.139	17882
908.256	17897
908.372	17779
908.488	17828
908.604	17726
908.72	17657
908.836	17695
908.952	17665
909.068	17695
909.184	17741
909.3	17535
909.415	17741
909.531	17756
909.647	17383
909.762	17372
909.878	17315
909.993	17345
910.108	17303
910.224	17258
910.339	17307
910.454	17197
910.57	17178
910.685	17029
910.8	17383
910.915	17315
911.03	17132
911.145	16927
911.259	16934
911.374	16915
911.489	16790
911.604	16816
911.718	16660
911.833	16744
911.947	16740
912.062	16519
912.176	16694
912.291	16634
912.405	16660
912.519	16896
912.633	16793
912.748	16710
912.862	16710
912.976	16508
913.09	16417
913.204	16443
913.318	16443
913.431	16512
913.545	16550
913.659	16478
913.772	16386
913.886	16284
914	16223
914.113	16291
914.226	16443
914.34	16318
914.453	16093
914.566	16299
914.68	16143
914.793	16051
914.906	16017
915.019	15861
915.132	15797
915.245	15846
915.358	15804
915.47	15884
915.583	15812
915.696	15781
915.809	16086
915.921	15884
916.034	15804
916.146	15778
916.259	15762
916.371	15838
916.483	15797
916.595	15732
916.708	15717
916.82	15682
916.932	15618
917.044	15603
917.156	15519
917.268	15485
917.38	15435
917.491	15466
917.603	15428
917.715	15454
917.826	15454
917.938	15370
918.049	15332
918.161	15386
918.272	15435
918.384	15469
918.495	15378
918.606	15260
918.717	15127
918.828	15119
918.939	15211
919.05	15093
919.161	15085
919.272	15001
919.383	15020
919.494	15112
919.604	15340
919.715	15058
919.826	15005
919.936	15157
920.047	15142
920.157	15150
920.267	15329
920.378	15184
920.488	15108
920.598	15203
920.708	15370
920.818	15279
920.928	15165
921.038	15401
921.148	15340
921.258	14982
921.368	14933
921.477	14876
921.587	14769
921.697	14682
921.806	14857
921.916	14724
922.025	14587
922.134	14415
922.244	14427
922.353	14575
922.462	14358
922.571	14282
922.68	14119
922.789	14065
922.898	14168
923.007	14046
923.116	14107
923.224	14062
923.333	14043
923.442	13917
923.55	13940
923.659	13955
923.767	14008
923.876	13765
923.984	13917
924.092	13822
924.201	13803
924.309	13833
924.417	13890
924.525	13742
924.633	13830
924.741	14746
924.849	13571
924.956	13628
925.064	13556
925.172	13575
925.279	13540
925.387	13491
925.494	13445
925.602	13590
925.709	13468
925.816	13384
925.924	13400
926.031	13502
926.138	13430
926.245	13476
926.352	13289
926.459	13476
926.566	13499
926.673	13327
926.779	13312
926.886	13232
926.993	13080
927.099	13110
927.206	12901
927.312	12913
927.419	12943
927.525	13050
927.631	13015
927.737	12875
927.843	12901
927.95	12749
928.056	12852
928.162	12901
928.267	12837
928.373	13578
928.479	12848
928.585	12570
928.69	12814
928.796	12844
928.901	12722
929.007	12654
929.112	12635
929.218	12623
929.323	12547
929.428	12502
929.533	12703
929.638	12445
929.743	12502
929.848	12407
929.953	12509
930.058	12475
930.163	12209
930.267	12289
930.372	12251
930.477	12235
930.581	12410
930.685	12243
930.79	12076
930.894	12148
930.998	12083
931.103	12220
931.207	11786
931.311	11790
931.415	11680
931.519	11425
931.623	11497
