Data from test_V78500241_1598.txt Node
Date: Fri Mar 25 15:52:52 CST 2022
User: usil
Spectrometer: V785-0024
Trigger mode: 0
Integration Time (sec): 4.000000E-1
Scans to average: 1
Nonlinearity correction enabled: false
Boxcar width: 0
Storing dark spectrum: false
XAxis mode: Wavelengths
Number of Pixels in Spectrum: 1024
>>>>>Begin Spectral Data<<<<<
801.071	27994
801.214	27998
801.356	27751
801.499	27762
801.641	27641
801.783	27485
801.926	27553
802.068	27473
802.211	27526
802.353	27469
802.496	27249
802.638	27112
802.78	27233
802.923	27272
803.065	27211
803.208	27241
803.35	27169
803.492	27504
803.635	27412
803.777	27245
803.919	27469
804.061	27720
804.204	27587
804.346	27401
804.488	27241
804.63	27485
804.773	27378
804.915	27610
805.057	27652
805.199	27488
805.341	27561
805.483	27660
805.626	27686
805.768	27504
805.91	27568
806.052	27591
806.194	27545
806.336	27819
806.478	27618
806.62	27504
806.762	27804
806.904	27892
807.046	28207
807.188	28181
807.33	28166
807.472	28139
807.614	28154
807.756	28093
807.898	27865
808.04	27793
808.182	27956
808.324	27983
808.465	27945
808.607	28147
808.749	28181
808.891	28325
809.033	28485
809.174	28291
809.316	28272
809.458	28124
809.6	28226
809.741	28306
809.883	28382
810.025	28641
810.166	28390
810.308	28569
810.45	28535
810.591	28440
810.733	28363
810.875	28211
811.016	28226
811.158	28086
811.299	28367
811.441	28516
811.582	28519
811.724	28265
811.865	28234
812.007	28223
812.148	28207
812.29	28253
812.431	28413
812.573	28508
812.714	28615
812.855	28759
812.997	28755
813.138	28961
813.279	28839
813.421	28862
813.562	28771
813.703	28611
813.845	28363
813.986	28166
814.127	28048
814.268	28044
814.41	28029
814.551	27907
814.692	28101
814.833	27865
814.974	27941
815.115	28093
815.256	27968
815.397	27827
815.539	27804
815.68	27713
815.821	27679
815.962	27785
816.103	27667
816.244	27648
816.385	27458
816.526	27663
816.666	27340
816.807	27264
816.948	27405
817.089	27329
817.23	27233
817.371	27233
817.512	27184
817.653	27291
817.793	27100
817.934	27317
818.075	27203
818.216	27218
818.356	27180
818.497	27142
818.638	27020
818.778	26864
818.919	27085
819.06	27047
819.2	27150
819.341	27188
819.481	27154
819.622	27268
819.762	27496
819.903	27549
820.043	27458
820.184	27313
820.324	27427
820.465	27519
820.605	27492
820.746	27351
820.886	27241
821.026	27344
821.167	27306
821.307	27332
821.447	27340
821.588	27085
821.728	27066
821.868	26819
822.008	26792
822.149	26678
822.289	26602
822.429	26533
822.569	26488
822.709	26358
822.849	26309
822.99	26221
823.13	26164
823.27	26122
823.41	26084
823.55	25917
823.69	26035
823.83	26027
823.97	25921
824.11	25742
824.25	25734
824.389	25860
824.529	25898
824.669	25841
824.809	25997
824.949	26027
825.089	25879
825.228	26054
825.368	25662
825.508	25727
825.648	25788
825.787	25712
825.927	25731
826.067	25814
826.206	25662
826.346	25833
826.485	25708
826.625	25666
826.765	25856
826.904	25761
827.044	25438
827.183	25662
827.323	25396
827.462	25666
827.601	25445
827.741	25327
827.88	25472
828.02	25453
828.159	25422
828.298	25567
828.437	25392
828.577	25362
828.716	25468
828.855	25289
828.994	25027
829.134	25137
829.273	25126
829.412	25137
829.551	25031
829.69	25168
829.829	25103
829.968	25198
830.107	25251
830.246	25194
830.385	24966
830.524	25168
830.663	24905
830.802	24810
830.941	24711
831.08	24639
831.219	24772
831.357	24882
831.496	25148
831.635	24665
831.774	24688
831.913	24703
832.051	24532
832.19	24547
832.329	24570
832.467	24544
832.606	24422
832.744	24426
832.883	24357
833.022	24380
833.16	24460
833.299	24391
833.437	24521
833.576	24505
833.714	24479
833.852	24532
833.991	24623
834.129	24681
834.267	24464
834.406	24456
834.544	24456
834.682	24509
834.821	24452
834.959	24738
835.097	24445
835.235	24559
835.373	24448
835.511	24452
835.65	24300
835.788	24395
835.926	24232
836.064	24125
836.202	24239
836.34	24338
836.478	24456
836.615	24304
836.753	24243
836.891	24372
837.029	24380
837.167	24292
837.305	24277
837.443	24289
837.58	24239
837.718	24171
837.856	24110
837.993	23973
838.131	24144
838.269	24129
838.406	24083
838.544	24049
838.681	23836
838.819	23779
838.956	23585
839.094	23699
839.231	23649
839.369	23748
839.506	23992
839.643	23901
839.781	23634
839.918	23676
840.055	23592
840.193	23592
840.33	23547
840.467	23531
840.604	23573
840.742	23748
840.879	23433
841.016	23596
841.153	23531
841.29	23493
841.427	23395
841.564	23516
841.701	23509
841.838	23512
841.975	23452
842.112	23528
842.249	23414
842.385	23398
842.522	23391
842.659	23326
842.796	23322
842.933	23246
843.069	23330
843.206	23193
843.343	23227
843.479	23398
843.616	23220
843.752	23170
843.889	23151
844.025	23189
844.162	22953
844.298	22915
844.435	23048
844.571	23147
844.708	23060
844.844	23151
844.98	23121
845.117	23124
845.253	22980
845.389	22877
845.525	22961
845.661	22919
845.798	22839
845.934	22900
846.07	22733
846.206	22740
846.342	22854
846.478	22869
846.614	22607
846.75	22451
846.886	22542
847.022	22687
847.158	22493
847.294	22440
847.429	22588
847.565	22504
847.701	22740
847.837	22242
847.972	22166
848.108	22394
848.244	22386
848.379	22173
848.515	22124
848.65	22177
848.786	22116
848.921	22253
849.057	22158
849.192	22181
849.328	22116
849.463	22105
849.598	22128
849.734	22055
849.869	21991
850.004	21888
850.14	21888
850.275	21941
850.41	21728
850.545	21865
850.68	21823
850.815	21930
850.95	21766
851.085	22044
851.22	21915
851.355	21884
851.49	21892
851.625	21926
851.76	21789
851.895	21736
852.03	21709
852.165	21949
852.299	21918
852.434	21895
852.569	21873
852.703	21937
852.838	21975
852.973	21937
853.107	21983
853.242	21899
853.376	21671
853.511	21580
853.645	21603
853.78	21979
853.914	21641
854.048	21641
854.183	21637
854.317	21713
854.451	21880
854.585	21675
854.72	21747
854.854	21755
854.988	21618
855.122	21739
855.256	21557
855.39	21667
855.524	21671
855.658	21755
855.792	21827
855.926	21701
856.06	21812
856.194	21838
856.327	21614
856.461	21660
856.595	21583
856.729	21736
856.862	21778
856.996	21819
857.13	21816
857.263	21827
857.397	21842
857.53	21625
857.664	21774
857.797	21675
857.931	21857
858.064	21545
858.197	21800
858.331	21701
858.464	21545
858.597	21587
858.731	21663
858.864	21701
858.997	21701
859.13	21720
859.263	21675
859.396	21823
859.529	21690
859.662	21698
859.795	21705
859.928	21705
860.061	21842
860.194	21884
860.327	21797
860.46	21739
860.592	21892
860.725	21816
860.858	21793
860.99	21663
861.123	21553
861.256	21633
861.388	21781
861.521	22394
861.653	21485
861.786	21405
861.918	21515
862.05	21511
862.183	21599
862.315	21629
862.447	21823
862.58	21549
862.712	21504
862.844	21428
862.976	21416
863.108	21481
863.24	21747
863.372	21355
863.504	21389
863.636	21329
863.768	21443
863.9	21488
864.032	21435
864.164	21466
864.296	21458
864.428	21515
864.559	21374
864.691	21515
864.823	21454
864.954	21363
865.086	21348
865.217	21336
865.349	21146
865.48	21279
865.612	21298
865.743	21447
865.875	21454
866.006	21302
866.137	21294
866.269	21325
866.4	21272
866.531	21382
866.662	21214
866.793	21317
866.924	21146
867.055	21393
867.186	21321
867.317	21207
867.448	21184
867.579	21264
867.71	21100
867.841	21146
867.972	21408
868.103	21313
868.233	21351
868.364	21340
868.495	21351
868.625	21519
868.756	21557
868.886	21374
869.017	21511
869.147	21698
869.278	21545
869.408	21557
869.539	21530
869.669	21637
869.799	21679
869.929	21717
870.06	21663
870.19	21880
870.32	21838
870.45	21842
870.58	21934
870.71	21994
870.84	21994
870.97	21945
871.1	21892
871.23	22082
871.36	22105
871.489	22025
871.619	22128
871.749	22070
871.879	22211
872.008	22135
872.138	22086
872.267	22131
872.397	22036
872.526	22040
872.656	21888
872.785	21926
872.915	22101
873.044	22238
873.173	22090
873.303	22074
873.432	22249
873.561	22325
873.69	22143
873.819	22105
873.948	22078
874.077	22124
874.206	22112
874.335	22101
874.464	22280
874.593	22504
874.722	22428
874.851	22405
874.979	22493
875.108	22382
875.237	22295
875.365	22306
875.494	22310
875.623	22379
875.751	22314
875.88	22417
876.008	22489
876.136	22592
876.265	22713
876.393	22866
876.521	22801
876.65	22729
876.778	22755
876.906	22797
877.034	22603
877.162	22778
877.29	22683
877.418	22668
877.546	22698
877.674	22672
877.802	22599
877.93	22668
878.058	22691
878.185	22717
878.313	22645
878.441	22554
878.568	22523
878.696	22618
878.824	22691
878.951	22748
879.079	22805
879.206	23025
879.333	22778
879.461	22721
879.588	22961
879.715	22885
879.842	22923
879.97	22767
880.097	22504
880.224	22485
880.351	22531
880.478	22497
880.605	22481
880.732	22493
880.859	22790
880.986	22592
881.112	22504
881.239	22436
881.366	22253
881.493	22116
881.619	22139
881.746	22162
881.872	22143
881.999	22082
882.125	21964
882.252	22112
882.378	22040
882.505	22223
882.631	21846
882.757	21895
882.883	21918
883.01	21781
883.136	21739
883.262	21538
883.388	21583
883.514	21888
883.64	21717
883.766	21713
883.892	21500
884.018	21538
884.143	21709
884.269	21804
884.395	21549
884.52	21367
884.646	21431
884.772	21458
884.897	21317
885.023	21393
885.148	21492
885.274	21603
885.399	21431
885.524	21378
885.65	21329
885.775	21443
885.9	21344
886.025	21481
886.15	21492
886.275	21450
886.4	21230
886.525	21378
886.65	21340
886.775	21401
886.9	21523
887.025	21473
887.149	21431
887.274	21135
887.399	21199
887.523	21241
887.648	21089
887.773	21150
887.897	21264
888.021	21199
888.146	21176
888.27	21256
888.395	21237
888.519	21256
888.643	21230
888.767	21298
888.891	21173
889.015	21055
889.139	21043
889.263	20971
889.387	21013
889.511	21188
889.635	21070
889.759	20998
889.883	20994
890.006	20998
890.13	21085
890.254	20944
890.377	20925
890.501	20765
890.624	20811
890.748	20644
890.871	20708
890.995	20545
891.118	20552
891.241	20579
891.364	20518
891.488	20629
891.611	20560
891.734	20537
891.857	20754
891.98	20602
892.103	20602
892.226	20564
892.349	20480
892.471	20286
892.594	20434
892.717	20461
892.839	20480
892.962	20552
893.085	20575
893.207	20522
893.33	20317
893.452	20336
893.575	20492
893.697	20446
893.819	20564
893.941	20507
894.064	20511
894.186	20427
894.308	20366
894.43	20503
894.552	20579
894.674	20492
894.796	20381
894.918	20374
895.04	20366
895.161	20514
895.283	20545
895.405	20343
895.526	20473
895.648	20374
895.769	20438
895.891	20457
896.012	20625
896.134	20465
896.255	20469
896.376	20423
896.498	20389
896.619	20415
896.74	20476
896.861	20514
896.982	20754
897.103	20883
897.224	20689
897.345	20804
897.466	20609
897.587	20648
897.708	20796
897.828	20602
897.949	20571
898.07	20469
898.19	20564
898.311	20708
898.431	20495
898.552	20705
898.672	20724
898.792	20735
898.913	20636
899.033	20549
899.153	20473
899.273	20381
899.393	20301
899.513	20450
899.633	20442
899.753	20511
899.873	20351
899.993	20450
900.113	20183
900.232	20305
900.352	20278
900.472	20164
900.591	20058
900.711	20225
900.83	20100
900.95	20294
901.069	20157
901.189	20046
901.308	19757
901.427	19712
901.546	19849
901.665	19696
901.784	19712
901.904	19597
902.023	19476
902.141	19343
902.26	19274
902.379	19285
902.498	19175
902.617	19133
902.735	19179
902.854	19190
902.973	19217
903.091	19088
903.21	18989
903.328	18753
903.446	18882
903.565	18757
903.683	18741
903.801	18623
903.919	18715
904.038	18715
904.156	18532
904.274	18566
904.392	18513
904.51	18448
904.627	18418
904.745	18532
904.863	18521
904.981	18296
905.098	18148
905.216	18205
905.334	18205
905.451	18072
905.569	18110
905.686	18125
905.803	18205
905.921	18019
906.038	18076
906.155	18026
906.272	17726
906.389	17813
906.506	17710
906.623	17790
906.74	17570
906.857	17467
906.974	17501
907.091	17805
907.208	17783
907.324	17661
907.441	17528
907.557	17440
907.674	17463
907.79	17402
907.907	17303
908.023	17448
908.139	17356
908.256	17261
908.372	17322
908.488	17261
908.604	17121
908.72	17117
908.836	17102
908.952	17064
909.068	17170
909.184	17166
909.3	17083
909.415	17193
909.531	17079
909.647	16862
909.762	16790
909.878	16740
909.993	16858
910.108	16839
910.224	16771
910.339	16858
910.454	16752
910.57	16649
910.685	16615
910.8	16797
910.915	16664
911.03	16668
911.145	16573
911.259	16363
911.374	16405
911.489	16409
911.604	16291
911.718	16265
911.833	16192
911.947	16158
912.062	16093
912.176	16150
912.291	16162
912.405	16196
912.519	16360
912.633	16318
912.748	16238
912.862	16071
912.976	16025
913.09	15850
913.204	15953
913.318	15949
913.431	16090
913.545	16032
913.659	16150
913.772	15865
913.886	15728
914	15842
914.113	15884
914.226	15922
914.34	15823
914.453	15713
914.566	15850
914.68	15584
914.793	15622
914.906	15431
915.019	15450
915.132	15283
915.245	15351
915.358	15378
915.47	15386
915.583	15378
915.696	15359
915.809	15488
915.921	15507
916.034	15298
916.146	15306
916.259	15294
916.371	15435
916.483	15302
916.595	15146
916.708	15180
916.82	15245
916.932	15188
917.044	15233
917.156	15036
917.268	14948
917.38	15055
917.491	15047
917.603	15051
917.715	15089
917.826	15024
917.938	14914
918.049	14826
918.161	14902
918.272	15070
918.384	15001
918.495	14952
918.606	14708
918.717	14663
918.828	14746
918.939	14861
919.05	14739
919.161	14686
919.272	14659
919.383	14564
919.494	14826
919.604	14914
919.715	14754
919.826	14625
919.936	14663
920.047	14792
920.157	14796
920.267	14929
920.378	14769
920.488	14708
920.598	14994
920.708	15032
920.818	14792
920.928	14800
921.038	14998
921.148	14868
921.258	14754
921.368	14484
921.477	14492
921.587	14412
921.697	14339
921.806	14465
921.916	14309
922.025	14153
922.134	14069
922.244	14031
922.353	14164
922.462	14043
922.571	13932
922.68	13742
922.789	13814
922.898	13799
923.007	13643
923.116	13750
923.224	13837
923.333	13727
923.442	13502
923.55	13559
923.659	13537
923.767	13601
923.876	13514
923.984	13601
924.092	13460
924.201	13495
924.309	13491
924.417	13487
924.525	13449
924.633	13430
924.741	14366
924.849	13221
924.956	13304
925.064	13274
925.172	13145
925.279	13179
925.387	13133
925.494	13072
925.602	13244
925.709	13126
925.816	12962
925.924	13061
926.031	13168
926.138	13122
926.245	13187
926.352	12958
926.459	13171
926.566	13118
926.673	13012
926.779	12909
926.886	12878
926.993	12772
927.099	12673
927.206	12635
927.312	12620
927.419	12871
927.525	12593
927.631	12783
927.737	12585
927.843	12616
927.95	12483
928.056	12506
928.162	12574
928.267	12616
928.373	13168
928.479	12623
928.585	12334
928.69	12403
928.796	12517
928.901	12407
929.007	12315
929.112	12372
929.218	12346
929.323	12281
929.428	12235
929.533	12422
929.638	12239
929.743	12190
929.848	12254
929.953	12182
930.058	12087
930.163	11916
930.267	11961
930.372	12087
930.477	11897
930.581	12117
930.685	11904
930.79	11764
930.894	11889
930.998	11714
931.103	11870
931.207	11562
931.311	11501
931.415	11463
931.519	11174
931.623	11299
