Data from test_V78500241_3307.txt Node
Date: Fri Mar 25 16:04:42 CST 2022
User: usil
Spectrometer: V785-0024
Trigger mode: 0
Integration Time (sec): 4.000000E-1
Scans to average: 1
Nonlinearity correction enabled: false
Boxcar width: 0
Storing dark spectrum: false
XAxis mode: Wavelengths
Number of Pixels in Spectrum: 1024
>>>>>Begin Spectral Data<<<<<
801.071	28778
801.214	28622
801.356	28527
801.499	28424
801.641	28314
801.783	28375
801.926	28459
802.068	28204
802.211	28177
802.353	28291
802.496	28162
802.638	27972
802.78	28067
802.923	28055
803.065	27987
803.208	27918
803.35	28211
803.492	28116
803.635	28112
803.777	28025
803.919	28314
804.061	28516
804.204	28223
804.346	28238
804.488	28051
804.63	28322
804.773	28219
804.915	28337
805.057	28379
805.199	28299
805.341	28257
805.483	28455
805.626	28398
805.768	28455
805.91	28531
806.052	28337
806.194	28238
806.336	28603
806.478	28287
806.62	28428
806.762	28664
806.904	28675
807.046	28888
807.188	28862
807.33	28946
807.472	28763
807.614	28774
807.756	28831
807.898	28702
808.04	28683
808.182	28634
808.324	28675
808.465	28839
808.607	28968
808.749	29231
808.891	29200
809.033	29261
809.174	29124
809.316	29113
809.458	29140
809.6	29079
809.741	29166
809.883	29269
810.025	29402
810.166	29345
810.308	29512
810.45	29326
810.591	29356
810.733	29185
810.875	29121
811.016	29208
811.158	28915
811.299	29212
811.441	29303
811.582	29265
811.724	29273
811.865	29083
812.007	29181
812.148	29140
812.29	29208
812.431	29288
812.573	29528
812.714	29512
812.855	29695
812.997	29737
813.138	29840
813.279	29851
813.421	29623
813.562	29482
813.703	29486
813.845	29235
813.986	29193
814.127	28980
814.268	28786
814.41	28934
814.551	28831
814.692	28782
814.833	28755
814.974	28820
815.115	28854
815.256	28862
815.397	28573
815.539	28759
815.68	28824
815.821	28527
815.962	28519
816.103	28607
816.244	28478
816.385	28382
816.526	28341
816.666	28135
816.807	28055
816.948	28139
817.089	28287
817.23	28238
817.371	28173
817.512	28196
817.653	28131
817.793	28082
817.934	28086
818.075	28215
818.216	28196
818.356	28143
818.497	27941
818.638	27953
818.778	27991
818.919	27914
819.06	28010
819.2	28124
819.341	28162
819.481	28150
819.622	28306
819.762	28538
819.903	28405
820.043	28356
820.184	28207
820.324	28238
820.465	28257
820.605	28280
820.746	28295
820.886	27991
821.026	28272
821.167	28162
821.307	28169
821.447	28188
821.588	28097
821.728	28105
821.868	27884
822.008	27751
822.149	27629
822.289	27595
822.429	27310
822.569	27291
822.709	27412
822.849	27180
822.99	27089
823.13	27169
823.27	27051
823.41	26998
823.55	26845
823.69	27036
823.83	26948
823.97	26910
824.11	26720
824.25	26823
824.389	26674
824.529	26872
824.669	26823
824.809	26914
824.949	26819
825.089	26857
825.228	26807
825.368	26754
825.508	26663
825.648	26724
825.787	26686
825.927	26861
826.067	26541
826.206	26598
826.346	26838
826.485	26777
826.625	26609
826.765	26785
826.904	26811
827.044	26427
827.183	26412
827.323	26370
827.462	26473
827.601	26355
827.741	26434
827.88	26419
828.02	26282
828.159	26377
828.298	26396
828.437	26480
828.577	26259
828.716	26419
828.855	26168
828.994	26153
829.134	26069
829.273	26096
829.412	26092
829.551	26016
829.69	26092
829.829	26020
829.968	26069
830.107	26115
830.246	26069
830.385	25951
830.524	26027
830.663	25791
830.802	25879
830.941	25712
831.08	25765
831.219	25696
831.357	25849
831.496	25917
831.635	25723
831.774	25533
831.913	25525
832.051	25540
832.19	25438
832.329	25556
832.467	25495
832.606	25327
832.744	25194
832.883	25289
833.022	25247
833.16	25460
833.299	25411
833.437	25384
833.576	25594
833.714	25377
833.852	25422
833.991	25586
834.129	25464
834.267	25529
834.406	25441
834.544	25518
834.682	25422
834.821	25327
834.959	25620
835.097	25373
835.235	25411
835.373	25430
835.511	25350
835.65	25278
835.788	25244
835.926	25240
836.064	25076
836.202	25145
836.34	25263
836.478	25396
836.615	25236
836.753	25365
836.891	25240
837.029	25232
837.167	25190
837.305	25148
837.443	25145
837.58	25027
837.718	25221
837.856	25050
837.993	25027
838.131	25027
838.269	24875
838.406	24973
838.544	24935
838.681	24547
838.819	24673
838.956	24521
839.094	24566
839.231	24582
839.369	24726
839.506	24901
839.643	24863
839.781	24395
839.918	24528
840.055	24494
840.193	24498
840.33	24551
840.467	24574
840.604	24490
840.742	24692
840.879	24304
841.016	24285
841.153	24346
841.29	24601
841.427	24517
841.564	24574
841.701	24426
841.838	24346
841.975	24361
842.112	24414
842.249	24357
842.385	24338
842.522	24399
842.659	24338
842.796	24258
842.933	24163
843.069	24117
843.206	24102
843.343	24239
843.479	24159
843.616	24171
843.752	23980
843.889	24053
844.025	24121
844.162	23958
844.298	24007
844.435	24049
844.571	23954
844.708	23980
844.844	24148
844.98	24102
845.117	24125
845.253	23996
845.389	23866
845.525	23984
845.661	23889
845.798	23726
845.934	23691
846.07	23745
846.206	23764
846.342	23836
846.478	23760
846.614	23467
846.75	23326
846.886	23497
847.022	23448
847.158	23459
847.294	23406
847.429	23364
847.565	23368
847.701	23718
847.837	23166
847.972	23140
848.108	23223
848.244	23296
848.379	22968
848.515	22968
848.65	22995
848.786	23033
848.921	23006
849.057	23109
849.192	23079
849.328	22995
849.463	23010
849.598	22866
849.734	22843
849.869	22930
850.004	22839
850.14	22828
850.275	22869
850.41	22653
850.545	22786
850.68	22809
850.815	22790
850.95	22694
851.085	22984
851.22	22847
851.355	22828
851.49	22748
851.625	22649
851.76	22721
851.895	22721
852.03	22694
852.165	22774
852.299	22809
852.434	22767
852.569	22679
852.703	22748
852.838	22869
852.973	22892
853.107	22858
853.242	22702
853.376	22668
853.511	22497
853.645	22687
853.78	22664
853.914	22622
854.048	22466
854.183	22599
854.317	22569
854.451	22790
854.585	22618
854.72	22706
854.854	22721
854.988	22546
855.122	22664
855.256	22371
855.39	22584
855.524	22660
855.658	22618
855.792	22538
855.926	22588
856.06	22569
856.194	22649
856.327	22599
856.461	22729
856.595	22508
856.729	22668
856.862	22736
856.996	22653
857.13	22573
857.263	22831
857.397	22660
857.53	22569
857.664	22668
857.797	22645
857.931	22634
858.064	22611
858.197	22649
858.331	22596
858.464	22554
858.597	22485
858.731	22519
858.864	22569
858.997	22535
859.13	22588
859.263	22637
859.396	22664
859.529	22599
859.662	22622
859.795	22561
859.928	22618
860.061	22740
860.194	22786
860.327	22736
860.46	22573
860.592	22679
860.725	22702
860.858	22763
860.99	22588
861.123	22531
861.256	22580
861.388	22660
861.521	23315
861.653	22504
861.786	22519
861.918	22474
862.05	22424
862.183	22527
862.315	22470
862.447	22664
862.58	22474
862.712	22204
862.844	22337
862.976	22519
863.108	22375
863.24	22877
863.372	22238
863.504	22306
863.636	22215
863.768	22344
863.9	22306
864.032	22207
864.164	22375
864.296	22371
864.428	22428
864.559	22459
864.691	22371
864.823	22322
864.954	22348
865.086	22261
865.217	22120
865.349	22086
865.48	22105
865.612	22128
865.743	22253
865.875	22181
866.006	22223
866.137	22177
866.269	22223
866.4	22147
866.531	22166
866.662	22025
866.793	22215
866.924	22044
867.055	22120
867.186	22147
867.317	22272
867.448	21968
867.579	22173
867.71	22040
867.841	22086
867.972	22105
868.103	22097
868.233	22226
868.364	22166
868.495	22192
868.625	22409
868.756	22436
868.886	22268
869.017	22424
869.147	22371
869.278	22554
869.408	22421
869.539	22382
869.669	22478
869.799	22519
869.929	22386
870.06	22504
870.19	22687
870.32	22618
870.45	22801
870.58	22622
870.71	22828
870.84	22850
870.97	22691
871.1	22717
871.23	22934
871.36	23022
871.489	22908
871.619	22869
871.749	22889
871.879	23060
872.008	23010
872.138	22961
872.267	22919
872.397	22767
872.526	22793
872.656	22763
872.785	22847
872.915	22980
873.044	23075
873.173	22953
873.303	23033
873.432	23056
873.561	23003
873.69	23128
873.819	22908
873.948	23044
874.077	23025
874.206	22984
874.335	22961
874.464	23014
874.593	23178
874.722	23105
874.851	23204
874.979	23277
875.108	23231
875.237	23098
875.365	23098
875.494	23185
875.623	23277
875.751	23189
875.88	23132
876.008	23296
876.136	23406
876.265	23741
876.393	23687
876.521	23714
876.65	23714
876.778	23600
876.906	23425
877.034	23611
877.162	23531
877.29	23512
877.418	23459
877.546	23493
877.674	23592
877.802	23623
877.93	23459
878.058	23455
878.185	23383
878.313	23512
878.441	23463
878.568	23398
878.696	23258
878.824	23570
878.951	23589
879.079	23608
879.206	23813
879.333	23646
879.461	23714
879.588	23596
879.715	23684
879.842	23802
879.97	23535
880.097	23322
880.224	23356
880.351	23402
880.478	23265
880.605	23410
880.732	23326
880.859	23547
880.986	23307
881.112	23395
881.239	23197
881.366	23071
881.493	22904
881.619	22942
881.746	22869
881.872	22911
881.999	22900
882.125	22854
882.252	23025
882.378	22812
882.505	22911
882.631	22759
882.757	22618
882.883	22599
883.01	22713
883.136	22546
883.262	22398
883.388	22508
883.514	22485
883.64	22485
883.766	22516
883.892	22306
884.018	22333
884.143	22481
884.269	22542
884.395	22322
884.52	22234
884.646	22230
884.772	22101
884.897	22120
885.023	22230
885.148	22200
885.274	22322
885.399	22173
885.524	22276
885.65	22253
885.775	22249
885.9	22306
886.025	22344
886.15	22253
886.275	22181
886.4	22128
886.525	22166
886.65	22078
886.775	22154
886.9	22287
887.025	22500
887.149	22215
887.274	22025
887.399	21941
887.523	21934
887.648	21945
887.773	21819
887.897	22154
888.021	22063
888.146	21998
888.27	22097
888.395	22017
888.519	22010
888.643	22025
888.767	22120
888.891	21903
889.015	21876
889.139	21755
889.263	21831
889.387	21934
889.511	22002
889.635	21861
889.759	21728
889.883	21838
890.006	21770
890.13	21827
890.254	21724
890.377	21576
890.501	21545
890.624	21481
890.748	21496
890.871	21447
890.995	21340
891.118	21272
891.241	21275
891.364	21275
891.488	21462
891.611	21439
891.734	21287
891.857	21275
891.98	21340
892.103	21294
892.226	21260
892.349	21237
892.471	21051
892.594	21119
892.717	21321
892.839	21192
892.962	21192
893.085	21233
893.207	21150
893.33	21070
893.452	21169
893.575	21192
893.697	21157
893.819	21329
893.941	21275
894.064	21420
894.186	21233
894.308	21131
894.43	21272
894.552	21412
894.674	21188
894.796	21062
894.918	21058
895.04	21108
895.161	21256
895.283	21108
895.405	21081
895.526	21195
895.648	21230
895.769	21313
895.891	21207
896.012	21214
896.134	21302
896.255	21093
896.376	21169
896.498	21112
896.619	21173
896.74	21218
896.861	21249
896.982	21504
897.103	21599
897.224	21485
897.345	21294
897.466	21408
897.587	21397
897.708	21572
897.828	21504
897.949	21283
898.07	21245
898.19	21332
898.311	21431
898.431	21291
898.552	21370
898.672	21397
898.792	21443
898.913	21344
899.033	21211
899.153	21131
899.273	20990
899.393	21070
899.513	21062
899.633	21173
899.753	21112
899.873	21116
899.993	21123
900.113	21017
900.232	20967
900.352	21047
900.472	21009
900.591	20762
900.711	20838
900.83	20826
900.95	20921
901.069	20864
901.189	20644
901.308	20541
901.427	20400
901.546	20339
901.665	20564
901.784	20419
901.904	20404
902.023	20176
902.141	19974
902.26	19989
902.379	19970
902.498	19913
902.617	19989
902.735	19928
902.854	19890
902.973	19772
903.091	19582
903.21	19628
903.328	19605
903.446	19540
903.565	19369
903.683	19480
903.801	19400
903.919	19324
904.038	19362
904.156	19297
904.274	19244
904.392	19065
904.51	19129
904.627	19171
904.745	19141
904.863	19137
904.981	18890
905.098	18772
905.216	18810
905.334	18848
905.451	18909
905.569	18897
905.686	18932
905.803	18760
905.921	18604
906.038	18715
906.155	18608
906.272	18471
906.389	18544
906.506	18369
906.623	18365
906.74	18395
906.857	18220
906.974	18235
907.091	18342
907.208	18471
907.324	18407
907.441	18273
907.557	18117
907.674	18053
907.79	18030
907.907	17977
908.023	17996
908.139	18034
908.256	17916
908.372	17954
908.488	17916
908.604	17851
908.72	17760
908.836	17714
908.952	17729
909.068	17882
909.184	17786
909.3	17764
909.415	17703
909.531	17786
909.647	17562
909.762	17425
909.878	17379
909.993	17383
910.108	17414
910.224	17391
910.339	17379
910.454	17349
910.57	17227
910.685	17193
910.8	17425
910.915	17391
911.03	17220
911.145	17162
911.259	17075
911.374	17094
911.489	16991
911.604	16805
911.718	16740
911.833	16793
911.947	16664
912.062	16554
912.176	16702
912.291	16885
912.405	16736
912.519	16991
912.633	16889
912.748	16820
912.862	16691
912.976	16584
913.09	16462
913.204	16554
913.318	16554
913.431	16618
913.545	16641
913.659	16656
913.772	16508
913.886	16402
914	16344
914.113	16459
914.226	16497
914.34	16489
914.453	16272
914.566	16356
914.68	16238
914.793	16204
914.906	16086
915.019	15941
915.132	15861
915.245	15915
915.358	15998
915.47	15903
915.583	15915
915.696	15975
915.809	16059
915.921	16120
916.034	15941
916.146	15827
916.259	15838
916.371	16006
916.483	15789
916.595	15816
916.708	15728
916.82	15800
916.932	15720
917.044	15606
917.156	15705
917.268	15545
917.38	15648
917.491	15587
917.603	15538
917.715	15675
917.826	15644
917.938	15523
918.049	15519
918.161	15523
918.272	15622
918.384	15599
918.495	15443
918.606	15332
918.717	15233
918.828	15302
918.939	15230
919.05	15268
919.161	15272
919.272	15138
919.383	15180
919.494	15351
919.604	15397
919.715	15344
919.826	15184
919.936	15310
920.047	15340
920.157	15176
920.267	15382
920.378	15237
920.488	15173
920.598	15408
920.708	15511
920.818	15310
920.928	15294
921.038	15504
921.148	15492
921.258	15142
921.368	15138
921.477	15009
921.587	14948
921.697	14861
921.806	15020
921.916	14819
922.025	14762
922.134	14667
922.244	14495
922.353	14663
922.462	14522
922.571	14343
922.68	14374
922.789	14225
922.898	14294
923.007	14164
923.116	14305
923.224	14195
923.333	14157
923.442	14130
923.55	13978
923.659	14062
923.767	14138
923.876	13997
923.984	14065
924.092	13902
924.201	14123
924.309	13959
924.417	13925
924.525	13986
924.633	13887
924.741	14823
924.849	13731
924.956	13738
925.064	13643
925.172	13613
925.279	13601
925.387	13639
925.494	13567
925.602	13674
925.709	13742
925.816	13518
925.924	13464
926.031	13620
926.138	13632
926.245	13674
926.352	13373
926.459	13552
926.566	13578
926.673	13502
926.779	13381
926.886	13282
926.993	13247
927.099	13145
927.206	13171
927.312	13088
927.419	13221
927.525	13126
927.631	13206
927.737	13118
927.843	12993
927.95	12875
928.056	12928
928.162	12989
928.267	13019
928.373	13647
928.479	12970
928.585	12806
928.69	12837
928.796	13000
928.901	12791
929.007	12760
929.112	12772
929.218	12837
929.323	12738
929.428	12734
929.533	12802
929.638	12597
929.743	12608
929.848	12688
929.953	12612
930.058	12509
930.163	12304
930.267	12365
930.372	12494
930.477	12319
930.581	12532
930.685	12342
930.79	12266
930.894	12319
930.998	12194
931.103	12391
931.207	12041
931.311	11885
931.415	11794
931.519	11668
931.623	11619
