Data from test_V78500241_1910.txt Node
Date: Fri Mar 25 15:55:01 CST 2022
User: usil
Spectrometer: V785-0024
Trigger mode: 0
Integration Time (sec): 4.000000E-1
Scans to average: 1
Nonlinearity correction enabled: false
Boxcar width: 0
Storing dark spectrum: false
XAxis mode: Wavelengths
Number of Pixels in Spectrum: 1024
>>>>>Begin Spectral Data<<<<<
801.071	28744
801.214	28694
801.356	28504
801.499	28455
801.641	28375
801.783	28348
801.926	28447
802.068	28344
802.211	28265
802.353	28299
802.496	28086
802.638	28101
802.78	27914
802.923	27926
803.065	27991
803.208	27998
803.35	28082
803.492	28166
803.635	28398
803.777	28120
803.919	28333
804.061	28580
804.204	28303
804.346	28185
804.488	28238
804.63	28226
804.773	28219
804.915	28500
805.057	28363
805.199	28280
805.341	28432
805.483	28470
805.626	28306
805.768	28329
805.91	28447
806.052	28459
806.194	28443
806.336	28592
806.478	28546
806.62	28348
806.762	28557
806.904	28691
807.046	29010
807.188	28850
807.33	28942
807.472	28987
807.614	28831
807.756	28748
807.898	28778
808.04	28793
808.182	28713
808.324	28733
808.465	28866
808.607	28934
808.749	29254
808.891	29239
809.033	29204
809.174	29147
809.316	29105
809.458	29094
809.6	29117
809.741	29299
809.883	29356
810.025	29337
810.166	29379
810.308	29406
810.45	29273
810.591	29417
810.733	29140
810.875	29102
811.016	29105
811.158	29094
811.299	29368
811.441	29375
811.582	29254
811.724	29185
811.865	29041
812.007	29223
812.148	29147
812.29	29098
812.431	29497
812.573	29425
812.714	29566
812.855	29680
812.997	29703
813.138	29729
813.279	29840
813.421	29691
813.562	29509
813.703	29581
813.845	29368
813.986	29067
814.127	29022
814.268	28968
814.41	28938
814.551	28934
814.692	28850
814.833	28782
814.974	28801
815.115	28881
815.256	28679
815.397	28630
815.539	28679
815.68	28710
815.821	28645
815.962	28637
816.103	28679
816.244	28531
816.385	28508
816.526	28268
816.666	28284
816.807	28082
816.948	28325
817.089	28158
817.23	28219
817.371	28219
817.512	28032
817.653	28120
817.793	28017
817.934	28040
818.075	28265
818.216	28036
818.356	28135
818.497	28105
818.638	27914
818.778	27819
818.919	27914
819.06	27991
819.2	27994
819.341	28116
819.481	28284
819.622	28261
819.762	28447
819.903	28577
820.043	28382
820.184	28455
820.324	28196
820.465	28386
820.605	28257
820.746	28280
820.886	28181
821.026	28386
821.167	28185
821.307	28291
821.447	28280
821.588	27937
821.728	28044
821.868	27827
822.008	27724
822.149	27622
822.289	27781
822.429	27370
822.569	27291
822.709	27386
822.849	27184
822.99	27218
823.13	27135
823.27	27112
823.41	26971
823.55	26887
823.69	27024
823.83	27116
823.97	27043
824.11	26777
824.25	26830
824.389	26937
824.529	26906
824.669	26807
824.809	27028
824.949	27024
825.089	27058
825.228	26918
825.368	26613
825.508	26648
825.648	26697
825.787	26663
825.927	26815
826.067	26636
826.206	26815
826.346	26800
826.485	26598
826.625	26758
826.765	26929
826.904	26678
827.044	26442
827.183	26476
827.323	26404
827.462	26484
827.601	26594
827.741	26518
827.88	26453
828.02	26343
828.159	26499
828.298	26419
828.437	26492
828.577	26374
828.716	26606
828.855	26286
828.994	26115
829.134	26043
829.273	26077
829.412	26069
829.551	26103
829.69	26263
829.829	26088
829.968	26126
830.107	26233
830.246	26161
830.385	26107
830.524	25978
830.663	26058
830.802	25856
830.941	25681
831.08	25769
831.219	25856
831.357	25868
831.496	26016
831.635	25666
831.774	25674
831.913	25651
832.051	25552
832.19	25597
832.329	25529
832.467	25400
832.606	25324
832.744	25187
832.883	25373
833.022	25278
833.16	25324
833.299	25426
833.437	25514
833.576	25464
833.714	25487
833.852	25502
833.991	25419
834.129	25449
834.267	25521
834.406	25544
834.544	25651
834.682	25514
834.821	25422
834.959	25685
835.097	25495
835.235	25392
835.373	25499
835.511	25392
835.65	25228
835.788	25247
835.926	25175
836.064	25126
836.202	25141
836.34	25346
836.478	25422
836.615	25027
836.753	25285
836.891	25331
837.029	25206
837.167	25251
837.305	25095
837.443	25152
837.58	25129
837.718	25126
837.856	25038
837.993	24992
838.131	25129
838.269	24935
838.406	24985
838.544	24875
838.681	24760
838.819	24772
838.956	24551
839.094	24525
839.231	24597
839.369	24692
839.506	24924
839.643	24795
839.781	24650
839.918	24486
840.055	24551
840.193	24601
840.33	24391
840.467	24673
840.604	24555
840.742	24707
840.879	24190
841.016	24426
841.153	24292
841.29	24467
841.427	24490
841.564	24445
841.701	24464
841.838	24517
841.975	24395
842.112	24464
842.249	24220
842.385	24190
842.522	24426
842.659	24395
842.796	24167
842.933	24327
843.069	24213
843.206	24235
843.343	24174
843.479	24247
843.616	24289
843.752	24076
843.889	24030
844.025	24144
844.162	23958
844.298	24133
844.435	23961
844.571	23942
844.708	24041
844.844	24159
844.98	24213
845.117	24041
845.253	23878
845.389	23893
845.525	23908
845.661	23840
845.798	23695
845.934	23710
846.07	23729
846.206	23786
846.342	23904
846.478	23805
846.614	23516
846.75	23410
846.886	23455
847.022	23421
847.158	23592
847.294	23417
847.429	23482
847.565	23368
847.701	23684
847.837	23147
847.972	23166
848.108	23143
848.244	23216
848.379	23140
848.515	22938
848.65	22953
848.786	23143
848.921	23132
849.057	23166
849.192	23197
849.328	23140
849.463	23010
849.598	22911
849.734	22908
849.869	22824
850.004	22828
850.14	22828
850.275	22896
850.41	22774
850.545	22877
850.68	22725
850.815	22824
850.95	22725
851.085	23025
851.22	22938
851.355	22812
851.49	22755
851.625	22778
851.76	22843
851.895	22592
852.03	22687
852.165	22919
852.299	22706
852.434	22877
852.569	22915
852.703	22801
852.838	22866
852.973	22984
853.107	22934
853.242	22710
853.376	22809
853.511	22504
853.645	22626
853.78	22660
853.914	22592
854.048	22615
854.183	22641
854.317	22512
854.451	22809
854.585	22634
854.72	22535
854.854	22710
854.988	22527
855.122	22569
855.256	22702
855.39	22630
855.524	22683
855.658	22603
855.792	22569
855.926	22641
856.06	22710
856.194	22702
856.327	22577
856.461	22607
856.595	22497
856.729	22500
856.862	22850
856.996	22592
857.13	22561
857.263	22653
857.397	22630
857.53	22561
857.664	22736
857.797	22740
857.931	22778
858.064	22710
858.197	22843
858.331	22649
858.464	22618
858.597	22577
858.731	22462
858.864	22596
858.997	22603
859.13	22596
859.263	22577
859.396	22790
859.529	22489
859.662	22519
859.795	22527
859.928	22592
860.061	22778
860.194	22866
860.327	22694
860.46	22748
860.592	22786
860.725	22733
860.858	22740
860.99	22668
861.123	22519
861.256	22512
861.388	22630
861.521	23368
861.653	22504
861.786	22344
861.918	22455
862.05	22542
862.183	22550
862.315	22580
862.447	22630
862.58	22599
862.712	22265
862.844	22257
862.976	22310
863.108	22344
863.24	22923
863.372	22295
863.504	22306
863.636	22344
863.768	22276
863.9	22249
864.032	22344
864.164	22219
864.296	22207
864.428	22405
864.559	22424
864.691	22379
864.823	22402
864.954	22360
865.086	22341
865.217	22223
865.349	22177
865.48	22162
865.612	22131
865.743	22333
865.875	22303
866.006	22276
866.137	22246
866.269	22341
866.4	22192
866.531	22116
866.662	22078
866.793	22097
866.924	22021
867.055	22143
867.186	22192
867.317	22211
867.448	21903
867.579	22090
867.71	22074
867.841	21983
867.972	22143
868.103	22131
868.233	22207
868.364	22147
868.495	22196
868.625	22306
868.756	22459
868.886	22303
869.017	22291
869.147	22519
869.278	22497
869.408	22466
869.539	22333
869.669	22386
869.799	22421
869.929	22519
870.06	22455
870.19	22672
870.32	22634
870.45	22698
870.58	22763
870.71	22721
870.84	22740
870.97	22790
871.1	22828
871.23	23041
871.36	22923
871.489	22824
871.619	22911
871.749	23025
871.879	23124
872.008	23105
872.138	23033
872.267	23041
872.397	22797
872.526	22824
872.656	22729
872.785	22809
872.915	22873
873.044	23048
873.173	23041
873.303	22965
873.432	22942
873.561	23037
873.69	22946
873.819	22991
873.948	23166
874.077	22976
874.206	23014
874.335	22885
874.464	23022
874.593	23083
874.722	23060
874.851	23189
874.979	23227
875.108	23288
875.237	23109
875.365	23094
875.494	23117
875.623	23029
875.751	23117
875.88	23094
876.008	23307
876.136	23254
876.265	23570
876.393	23627
876.521	23604
876.65	23665
876.778	23467
876.906	23589
877.034	23611
877.162	23463
877.29	23376
877.418	23535
877.546	23551
877.674	23463
877.802	23490
877.93	23608
878.058	23395
878.185	23497
878.313	23516
878.441	23512
878.568	23318
878.696	23425
878.824	23589
878.951	23604
879.079	23608
879.206	23863
879.333	23722
879.461	23600
879.588	23589
879.715	23615
879.842	23859
879.97	23524
880.097	23410
880.224	23216
880.351	23497
880.478	23383
880.605	23337
880.732	23364
880.859	23600
880.986	23258
881.112	23406
881.239	23128
881.366	23079
881.493	22938
881.619	22877
881.746	22908
881.872	22930
881.999	22790
882.125	22835
882.252	22831
882.378	22911
882.505	23033
882.631	22721
882.757	22546
882.883	22630
883.01	22565
883.136	22523
883.262	22516
883.388	22398
883.514	22538
883.64	22550
883.766	22481
883.892	22363
884.018	22371
884.143	22508
884.269	22531
884.395	22318
884.52	22158
884.646	22177
884.772	22181
884.897	22074
885.023	22268
885.148	22341
885.274	22303
885.399	22367
885.524	22234
885.65	22139
885.775	22162
885.9	22093
886.025	22154
886.15	22230
886.275	22105
886.4	21918
886.525	22150
886.65	22093
886.775	22032
886.9	22402
887.025	22318
887.149	22211
887.274	22105
887.399	21987
887.523	21994
887.648	21888
887.773	21880
887.897	21922
888.021	21998
888.146	22006
888.27	22093
888.395	21991
888.519	21926
888.643	21930
888.767	22021
888.891	21949
889.015	21774
889.139	21816
889.263	21641
889.387	21785
889.511	22021
889.635	21876
889.759	21743
889.883	21743
890.006	21781
890.13	21686
890.254	21679
890.377	21625
890.501	21504
890.624	21564
890.748	21408
890.871	21393
890.995	21218
891.118	21291
891.241	21154
891.364	21291
891.488	21428
891.611	21374
891.734	21325
891.857	21138
891.98	21192
892.103	21287
892.226	21329
892.349	21207
892.471	21108
892.594	21192
892.717	21233
892.839	21096
892.962	21260
893.085	21192
893.207	21203
893.33	21096
893.452	21062
893.575	21279
893.697	21119
893.819	21344
893.941	21405
894.064	21237
894.186	21077
894.308	21173
894.43	21203
894.552	21264
894.674	21218
894.796	21020
894.918	21100
895.04	21127
895.161	21203
895.283	21382
895.405	21077
895.526	21173
895.648	21112
895.769	21294
895.891	21211
896.012	21283
896.134	21321
896.255	21024
896.376	21127
896.498	21165
896.619	21249
896.74	21138
896.861	21226
896.982	21405
897.103	21641
897.224	21321
897.345	21389
897.466	21447
897.587	21405
897.708	21408
897.828	21412
897.949	21287
898.07	21237
898.19	21294
898.311	21408
898.431	21298
898.552	21256
898.672	21412
898.792	21397
898.913	21294
899.033	21226
899.153	21154
899.273	21131
899.393	21051
899.513	20986
899.633	21039
899.753	21173
899.873	21028
899.993	21127
900.113	21058
900.232	20986
900.352	20975
900.472	20823
900.591	20899
900.711	20826
900.83	20864
900.95	20895
901.069	20967
901.189	20701
901.308	20514
901.427	20495
901.546	20465
901.665	20362
901.784	20423
901.904	20298
902.023	20145
902.141	20046
902.26	19993
902.379	19955
902.498	19986
902.617	19753
902.735	19928
902.854	19932
902.973	19807
903.091	19613
903.21	19635
903.328	19605
903.446	19514
903.565	19548
903.683	19472
903.801	19373
903.919	19278
904.038	19312
904.156	19202
904.274	19160
904.392	19069
904.51	19118
904.627	19213
904.745	19179
904.863	19263
904.981	18882
905.098	18897
905.216	18745
905.334	18760
905.451	18901
905.569	18844
905.686	18890
905.803	18722
905.921	18525
906.038	18787
906.155	18661
906.272	18475
906.389	18388
906.506	18350
906.623	18311
906.74	18346
906.857	18140
906.974	18232
907.091	18395
907.208	18494
907.324	18334
907.441	18258
907.557	18026
907.674	17973
907.79	17882
907.907	17965
908.023	18110
908.139	18083
908.256	17992
908.372	17878
908.488	17874
908.604	17714
908.72	17832
908.836	17775
908.952	17741
909.068	17714
909.184	17786
909.3	17798
909.415	17699
909.531	17627
909.647	17512
909.762	17554
909.878	17250
909.993	17334
910.108	17436
910.224	17356
910.339	17334
910.454	17315
910.57	17258
910.685	17170
910.8	17410
910.915	17356
911.03	17223
911.145	17025
911.259	17041
911.374	17025
911.489	16949
911.604	16881
911.718	16801
911.833	16710
911.947	16839
912.062	16558
912.176	16763
912.291	16786
912.405	16786
912.519	16961
912.633	16949
912.748	16767
912.862	16710
912.976	16519
913.09	16493
913.204	16493
913.318	16527
913.431	16637
913.545	16611
913.659	16546
913.772	16527
913.886	16447
914	16314
914.113	16371
914.226	16424
914.34	16504
914.453	16211
914.566	16314
914.68	16284
914.793	16158
914.906	15922
915.019	16017
915.132	15888
915.245	15964
915.358	15987
915.47	15960
915.583	16017
915.696	15888
915.809	16013
915.921	16051
916.034	15842
916.146	15888
916.259	15751
916.371	15983
916.483	15816
916.595	15800
916.708	15835
916.82	15728
916.932	15717
917.044	15682
917.156	15656
917.268	15622
917.38	15557
917.491	15507
917.603	15507
917.715	15694
917.826	15530
917.938	15462
918.049	15401
918.161	15542
918.272	15622
918.384	15599
918.495	15443
918.606	15298
918.717	15302
918.828	15340
918.939	15325
919.05	15203
919.161	15252
919.272	15058
919.383	15123
919.494	15363
919.604	15492
919.715	15279
919.826	15154
919.936	15218
920.047	15317
920.157	15264
920.267	15412
920.378	15188
920.488	15237
920.598	15355
920.708	15477
920.818	15355
920.928	15313
921.038	15549
921.148	15557
921.258	15252
921.368	15116
921.477	15024
921.587	14944
921.697	14785
921.806	14937
921.916	14849
922.025	14682
922.134	14541
922.244	14492
922.353	14625
922.462	14476
922.571	14431
922.68	14282
922.789	14233
922.898	14248
923.007	14221
923.116	14313
923.224	14225
923.333	14229
923.442	14054
923.55	14115
923.659	14008
923.767	14062
923.876	13982
923.984	14107
924.092	13864
924.201	14012
924.309	13978
924.417	13951
924.525	13849
924.633	13925
924.741	14689
924.849	13719
924.956	13860
925.064	13666
925.172	13556
925.279	13597
925.387	13693
925.494	13681
925.602	13681
925.709	13670
925.816	13537
925.924	13533
926.031	13643
926.138	13434
926.245	13571
926.352	13354
926.459	13537
926.566	13548
926.673	13491
926.779	13377
926.886	13297
926.993	13171
927.099	13282
927.206	13080
927.312	13149
927.419	13194
927.525	13145
927.631	13198
927.737	13019
927.843	13004
927.95	12852
928.056	12962
928.162	12935
928.267	13084
928.373	13556
928.479	13042
928.585	12696
928.69	12947
928.796	12932
928.901	12760
929.007	12730
929.112	12848
929.218	12700
929.323	12681
929.428	12635
929.533	12848
929.638	12635
929.743	12597
929.848	12681
929.953	12604
930.058	12544
930.163	12296
930.267	12418
930.372	12414
930.477	12311
930.581	12460
930.685	12338
930.79	12095
930.894	12285
930.998	12175
931.103	12330
931.207	11935
931.311	11851
931.415	11828
931.519	11596
931.623	11543
