Data from test_V78500241_324.txt Node
Date: Fri Mar 25 15:44:02 CST 2022
User: usil
Spectrometer: V785-0024
Trigger mode: 0
Integration Time (sec): 4.000000E-1
Scans to average: 1
Nonlinearity correction enabled: false
Boxcar width: 0
Storing dark spectrum: false
XAxis mode: Wavelengths
Number of Pixels in Spectrum: 1024
>>>>>Begin Spectral Data<<<<<
801.071	29824
801.214	29794
801.356	29551
801.499	29570
801.641	29585
801.783	29672
801.926	29570
802.068	29531
802.211	29296
802.353	29318
802.496	29197
802.638	29174
802.78	29113
802.923	29075
803.065	29033
803.208	29159
803.35	29083
803.492	29208
803.635	29421
803.777	29159
803.919	29463
804.061	29638
804.204	29467
804.346	29159
804.488	29140
804.63	29402
804.773	29223
804.915	29254
805.057	29292
805.199	29277
805.341	29478
805.483	29577
805.626	29368
805.768	29303
805.91	29383
806.052	29455
806.194	29337
806.336	29463
806.478	29589
806.62	29478
806.762	29703
806.904	29699
807.046	29977
807.188	29939
807.33	30007
807.472	29996
807.614	29942
807.756	29802
807.898	29802
808.04	29783
808.182	29710
808.324	29878
808.465	29733
808.607	29878
808.749	30136
808.891	30289
809.033	30304
809.174	30213
809.316	30011
809.458	30117
809.6	30072
809.741	30349
809.883	30330
810.025	30376
810.166	30513
810.308	30437
810.45	30391
810.591	30304
810.733	30251
810.875	30007
811.016	29969
811.158	30106
811.299	30384
811.441	30273
811.582	30258
811.724	30114
811.865	30095
812.007	30228
812.148	29992
812.29	30224
812.431	30319
812.573	30319
812.714	30467
812.855	30616
812.997	30840
813.138	30939
813.279	30566
813.421	30555
813.562	30620
813.703	30574
813.845	30399
813.986	30049
814.127	29813
814.268	29745
814.41	29726
814.551	29805
814.692	29862
814.833	29752
814.974	29809
815.115	29828
815.256	29611
815.397	29764
815.539	29638
815.68	29429
815.821	29448
815.962	29646
816.103	29539
816.244	29402
816.385	29417
816.526	29372
816.666	29071
816.807	28976
816.948	29132
817.089	29246
817.23	29208
817.371	28904
817.512	29067
817.653	29060
817.793	29037
817.934	29117
818.075	28976
818.216	29006
818.356	28858
818.497	28934
818.638	28752
818.778	28786
818.919	28786
819.06	28854
819.2	28873
819.341	28999
819.481	28919
819.622	29155
819.762	29223
819.903	29124
820.043	29197
820.184	29166
820.324	29121
820.465	29288
820.605	29124
820.746	29083
820.886	29025
821.026	29117
821.167	29136
821.307	29151
821.447	29029
821.588	28938
821.728	28683
821.868	28500
822.008	28622
822.149	28489
822.289	28322
822.429	28226
822.569	28219
822.709	28078
822.849	28116
822.99	27979
823.13	27987
823.27	27808
823.41	27827
823.55	27538
823.69	27816
823.83	27736
823.97	27679
824.11	27526
824.25	27500
824.389	27447
824.529	27603
824.669	27633
824.809	27671
824.949	27614
825.089	27591
825.228	27648
825.368	27382
825.508	27427
825.648	27447
825.787	27397
825.927	27454
826.067	27424
826.206	27431
826.346	27462
826.485	27523
826.625	27370
826.765	27534
826.904	27389
827.044	27188
827.183	27192
827.323	27043
827.462	27165
827.601	27169
827.741	27150
827.88	27055
828.02	26929
828.159	27093
828.298	26975
828.437	27017
828.577	27085
828.716	27207
828.855	26944
828.994	26826
829.134	26845
829.273	26777
829.412	26655
829.551	26629
829.69	26644
829.829	26712
829.968	26758
830.107	26689
830.246	26826
830.385	26587
830.524	26636
830.663	26613
830.802	26446
830.941	26339
831.08	26389
831.219	26358
831.357	26286
831.496	26446
831.635	26294
831.774	26229
831.913	26202
832.051	26081
832.19	26001
832.329	26103
832.467	26005
832.606	25974
832.744	25871
832.883	25970
833.022	25989
833.16	25947
833.299	25890
833.437	25959
833.576	25959
833.714	25959
833.852	26081
833.991	26081
834.129	26005
834.267	26031
834.406	26107
834.544	25902
834.682	26046
834.821	25818
834.959	26039
835.097	25928
835.235	26065
835.373	26005
835.511	25883
835.65	25936
835.788	25746
835.926	25681
836.064	25635
836.202	25571
836.34	25750
836.478	25959
836.615	25715
836.753	25647
836.891	25822
837.029	25734
837.167	25651
837.305	25620
837.443	25643
837.58	25537
837.718	25693
837.856	25578
837.993	25487
838.131	25578
838.269	25445
838.406	25415
838.544	25365
838.681	25285
838.819	25118
838.956	25065
839.094	24981
839.231	25065
839.369	25209
839.506	25548
839.643	25152
839.781	25076
839.918	24859
840.055	25042
840.193	24951
840.33	24962
840.467	25042
840.604	24894
840.742	25266
840.879	24837
841.016	24962
841.153	24817
841.29	24943
841.427	24856
841.564	24947
841.701	24791
841.838	24814
841.975	24840
842.112	24787
842.249	24684
842.385	24589
842.522	24951
842.659	24665
842.796	24665
842.933	24635
843.069	24597
843.206	24604
843.343	24612
843.479	24380
843.616	24464
843.752	24441
843.889	24380
844.025	24540
844.162	24361
844.298	24601
844.435	24247
844.571	24407
844.708	24372
844.844	24574
844.98	24521
845.117	24467
845.253	24300
845.389	24148
845.525	24334
845.661	24167
845.798	24182
845.934	24216
846.07	24049
846.206	23992
846.342	24171
846.478	24026
846.614	23965
846.75	23733
846.886	23745
847.022	23783
847.158	23764
847.294	23745
847.429	23859
847.565	23661
847.701	23980
847.837	23562
847.972	23448
848.108	23668
848.244	23566
848.379	23265
848.515	23200
848.65	23337
848.786	23398
848.921	23265
849.057	23436
849.192	23406
849.328	23315
849.463	23383
849.598	23315
849.734	23296
849.869	23124
850.004	23147
850.14	23124
850.275	23037
850.41	22862
850.545	23124
850.68	23041
850.815	23136
850.95	23041
851.085	23181
851.22	23102
851.355	23071
851.49	23086
851.625	23018
851.76	23018
851.895	22881
852.03	22953
852.165	23067
852.299	23083
852.434	23220
852.569	23090
852.703	23102
852.838	22995
852.973	23121
853.107	23178
853.242	22942
853.376	22927
853.511	22759
853.645	22885
853.78	22999
853.914	22987
854.048	22835
854.183	22774
854.317	22812
854.451	23109
854.585	22774
854.72	22953
854.854	22896
854.988	22835
855.122	22828
855.256	22771
855.39	22702
855.524	22927
855.658	22934
855.792	22854
855.926	22927
856.06	22919
856.194	23022
856.327	22915
856.461	22862
856.595	22767
856.729	22744
856.862	23033
856.996	22824
857.13	22995
857.263	23086
857.397	22900
857.53	22881
857.664	22908
857.797	22927
857.931	23014
858.064	22908
858.197	22824
858.331	22828
858.464	22736
858.597	22736
858.731	22927
858.864	22790
858.997	22710
859.13	22873
859.263	22946
859.396	22919
859.529	22729
859.662	22843
859.795	22759
859.928	22812
860.061	22915
860.194	23033
860.327	22805
860.46	22820
860.592	22930
860.725	22869
860.858	22946
860.99	22831
861.123	22755
861.256	22774
861.388	22889
861.521	23543
861.653	22706
861.786	22557
861.918	22656
862.05	22736
862.183	22778
862.315	22801
862.447	22892
862.58	22877
862.712	22580
862.844	22542
862.976	22630
863.108	22596
863.24	22984
863.372	22405
863.504	22497
863.636	22508
863.768	22455
863.9	22554
864.032	22504
864.164	22531
864.296	22398
864.428	22573
864.559	22664
864.691	22611
864.823	22569
864.954	22485
865.086	22504
865.217	22394
865.349	22306
865.48	22375
865.612	22527
865.743	22466
865.875	22398
866.006	22333
866.137	22394
866.269	22318
866.4	22394
866.531	22341
866.662	22200
866.793	22455
866.924	22299
867.055	22310
867.186	22352
867.317	22234
867.448	22196
867.579	22291
867.71	22181
867.841	22310
867.972	22238
868.103	22337
868.233	22303
868.364	22295
868.495	22371
868.625	22554
868.756	22565
868.886	22508
869.017	22546
869.147	22489
869.278	22698
869.408	22580
869.539	22637
869.669	22538
869.799	22497
869.929	22603
870.06	22630
870.19	22824
870.32	22908
870.45	22759
870.58	22919
870.71	23155
870.84	22953
870.97	23060
871.1	22930
871.23	23014
871.36	23147
871.489	23014
871.619	23075
871.749	23044
871.879	23113
872.008	23212
872.138	23071
872.267	23235
872.397	23014
872.526	23098
872.656	22930
872.785	22828
872.915	23166
873.044	23094
873.173	23121
873.303	23204
873.432	23231
873.561	23113
873.69	23178
873.819	23071
873.948	23273
874.077	23071
874.206	23242
874.335	23117
874.464	23246
874.593	23425
874.722	23345
874.851	23330
874.979	23433
875.108	23482
875.237	23353
875.365	23277
875.494	23356
875.623	23417
875.751	23318
875.88	23406
876.008	23360
876.136	23406
876.265	23672
876.393	23752
876.521	23767
876.65	23836
876.778	23737
876.906	23634
877.034	23600
877.162	23627
877.29	23497
877.418	23585
877.546	23672
877.674	23653
877.802	23619
877.93	23695
878.058	23611
878.185	23577
878.313	23638
878.441	23767
878.568	23501
878.696	23615
878.824	23691
878.951	23798
879.079	23882
879.206	23961
879.333	23775
879.461	23756
879.588	23695
879.715	23764
879.842	24057
879.97	23786
880.097	23566
880.224	23467
880.351	23429
880.478	23585
880.605	23490
880.732	23493
880.859	23703
880.986	23554
881.112	23433
881.239	23478
881.366	23303
881.493	23280
881.619	23132
881.746	23124
881.872	23056
881.999	23041
882.125	22946
882.252	23121
882.378	23132
882.505	23124
882.631	22869
882.757	22763
882.883	22733
883.01	22820
883.136	22675
883.262	22645
883.388	22660
883.514	22843
883.64	22729
883.766	22664
883.892	22523
884.018	22565
884.143	22755
884.269	22797
884.395	22443
884.52	22310
884.646	22314
884.772	22284
884.897	22310
885.023	22417
885.148	22447
885.274	22497
885.399	22329
885.524	22295
885.65	22344
885.775	22405
885.9	22295
886.025	22527
886.15	22268
886.275	22246
886.4	22386
886.525	22295
886.65	22325
886.775	22371
886.9	22386
887.025	22592
887.149	22295
887.274	22097
887.399	22070
887.523	22059
887.648	21945
887.773	21960
887.897	22226
888.021	22272
888.146	22032
888.27	22196
888.395	22139
888.519	22109
888.643	22097
888.767	22162
888.891	22048
889.015	21888
889.139	22010
889.263	21937
889.387	22017
889.511	22006
889.635	22074
889.759	21937
889.883	21675
890.006	21869
890.13	22006
890.254	21816
890.377	21823
890.501	21759
890.624	21542
890.748	21580
890.871	21538
890.995	21481
891.118	21458
891.241	21428
891.364	21428
891.488	21526
891.611	21450
891.734	21542
891.857	21466
891.98	21568
892.103	21401
892.226	21485
892.349	21386
892.471	21203
892.594	21397
892.717	21317
892.839	21245
892.962	21214
893.085	21416
893.207	21310
893.33	21154
893.452	21173
893.575	21329
893.697	21214
893.819	21450
893.941	21538
894.064	21367
894.186	21340
894.308	21173
894.43	21416
894.552	21462
894.674	21378
894.796	21237
894.918	21264
895.04	21214
895.161	21298
895.283	21382
895.405	21283
895.526	21268
895.648	21241
895.769	21310
895.891	21321
896.012	21351
896.134	21317
896.255	21279
896.376	21272
896.498	21268
896.619	21420
896.74	21294
896.861	21351
896.982	21698
897.103	21842
897.224	21614
897.345	21515
897.466	21477
897.587	21523
897.708	21583
897.828	21553
897.949	21443
898.07	21329
898.19	21507
898.311	21549
898.431	21473
898.552	21397
898.672	21473
898.792	21477
898.913	21454
899.033	21382
899.153	21355
899.273	21017
899.393	21089
899.513	21252
899.633	21218
899.753	21207
899.873	21104
899.993	21256
900.113	21017
900.232	21146
900.352	21058
900.472	20960
900.591	20960
900.711	20944
900.83	20948
900.95	21013
901.069	21108
901.189	20823
901.308	20758
901.427	20530
901.546	20461
901.665	20606
901.784	20556
901.904	20347
902.023	20275
902.141	20111
902.26	19978
902.379	20218
902.498	19982
902.617	20035
902.735	20062
902.854	19852
902.973	19955
903.091	19693
903.21	19738
903.328	19750
903.446	19613
903.565	19468
903.683	19419
903.801	19308
903.919	19377
904.038	19457
904.156	19259
904.274	19282
904.392	19232
904.51	19209
904.627	19137
904.745	19244
904.863	19209
904.981	19072
905.098	18829
905.216	18924
905.334	18806
905.451	18764
905.569	18913
905.686	18897
905.803	18814
905.921	18608
906.038	18738
906.155	18688
906.272	18650
906.389	18479
906.506	18350
906.623	18391
906.74	18353
906.857	18262
906.974	18323
907.091	18422
907.208	18467
907.324	18403
907.441	18289
907.557	18064
907.674	17992
907.79	18060
907.907	18072
908.023	18148
908.139	18098
908.256	17980
908.372	17920
908.488	17920
908.604	17828
908.72	17687
908.836	17783
908.952	17737
909.068	17802
909.184	17984
909.3	17813
909.415	17878
909.531	17889
909.647	17463
909.762	17444
909.878	17360
909.993	17436
910.108	17455
910.224	17360
910.339	17364
910.454	17277
910.57	17235
910.685	17258
910.8	17383
910.915	17440
911.03	17178
911.145	17045
911.259	17033
911.374	16995
911.489	16976
911.604	16896
911.718	16679
911.833	16782
911.947	16713
912.062	16546
912.176	16778
912.291	16687
912.405	16786
912.519	16999
912.633	16991
912.748	16733
912.862	16679
912.976	16554
913.09	16459
913.204	16428
913.318	16398
913.431	16592
913.545	16649
913.659	16672
913.772	16470
913.886	16337
914	16451
914.113	16379
914.226	16421
914.34	16398
914.453	16150
914.566	16363
914.68	16177
914.793	16204
914.906	16090
915.019	15949
915.132	15850
915.245	15968
915.358	16006
915.47	15907
915.583	15876
915.696	15892
915.809	15968
915.921	16013
916.034	15854
916.146	15888
916.259	15762
916.371	15789
916.483	15873
916.595	15747
916.708	15717
916.82	15785
916.932	15663
917.044	15816
917.156	15614
917.268	15526
917.38	15564
917.491	15397
917.603	15584
917.715	15576
917.826	15618
917.938	15504
918.049	15374
918.161	15481
918.272	15526
918.384	15610
918.495	15424
918.606	15184
918.717	15218
918.828	15310
918.939	15351
919.05	15135
919.161	15241
919.272	15062
919.383	15070
919.494	15268
919.604	15542
919.715	15199
919.826	15154
919.936	15203
920.047	15233
920.157	15161
920.267	15374
920.378	15283
920.488	15214
920.598	15393
920.708	15519
920.818	15317
920.928	15325
921.038	15466
921.148	15439
921.258	15192
921.368	15028
921.477	15024
921.587	14811
921.697	14773
921.806	14864
921.916	14735
922.025	14625
922.134	14602
922.244	14556
922.353	14583
922.462	14454
922.571	14377
922.68	14259
922.789	14145
922.898	14237
923.007	14138
923.116	14164
923.224	14119
923.333	14240
923.442	14020
923.55	13970
923.659	14043
923.767	14103
923.876	13967
923.984	14043
924.092	13818
924.201	13875
924.309	13883
924.417	13864
924.525	13791
924.633	13822
924.741	14533
924.849	13533
924.956	13719
925.064	13670
925.172	13499
925.279	13529
925.387	13521
925.494	13537
925.602	13647
925.709	13658
925.816	13514
925.924	13533
926.031	13590
926.138	13521
926.245	13476
926.352	13396
926.459	13460
926.566	13533
926.673	13365
926.779	13263
926.886	13251
926.993	13080
927.099	13183
927.206	13038
927.312	13065
927.419	13065
927.525	13053
927.631	13095
927.737	12935
927.843	12935
927.95	12878
928.056	12909
928.162	12966
928.267	12882
928.373	13502
928.479	12932
928.585	12726
928.69	12981
928.796	12894
928.901	12650
929.007	12658
929.112	12760
929.218	12738
929.323	12635
929.428	12604
929.533	12764
929.638	12498
929.743	12532
929.848	12627
929.953	12574
930.058	12433
930.163	12262
930.267	12365
930.372	12437
930.477	12311
930.581	12445
930.685	12281
930.79	12175
930.894	12243
930.998	12076
931.103	12296
931.207	11870
931.311	11764
931.415	11668
931.519	11581
931.623	11547
