Data from test_V78500241_429.txt Node
Date: Fri Mar 25 15:44:46 CST 2022
User: usil
Spectrometer: V785-0024
Trigger mode: 0
Integration Time (sec): 4.000000E-1
Scans to average: 1
Nonlinearity correction enabled: false
Boxcar width: 0
Storing dark spectrum: false
XAxis mode: Wavelengths
Number of Pixels in Spectrum: 1024
>>>>>Begin Spectral Data<<<<<
801.071	28379
801.214	28386
801.356	28131
801.499	28055
801.641	28093
801.783	28029
801.926	27945
802.068	27869
802.211	27778
802.353	27766
802.496	27663
802.638	27682
802.78	27416
802.923	27530
803.065	27587
803.208	27625
803.35	27599
803.492	27709
803.635	27789
803.777	27618
803.919	27633
804.061	28044
804.204	27724
804.346	27762
804.488	27709
804.63	27542
804.773	27739
804.915	27622
805.057	27785
805.199	27736
805.341	27762
805.483	27880
805.626	27759
805.768	27667
805.91	27873
806.052	27751
806.194	27717
806.336	27983
806.478	27800
806.62	27785
806.762	27884
806.904	28093
807.046	28360
807.188	28162
807.33	28226
807.472	28329
807.614	28158
807.756	28082
807.898	28067
808.04	27983
808.182	28086
808.324	28169
808.465	28169
808.607	28299
808.749	28306
808.891	28508
809.033	28672
809.174	28455
809.316	28500
809.458	28603
809.6	28405
809.741	28557
809.883	28557
810.025	28721
810.166	28573
810.308	28656
810.45	28588
810.591	28641
810.733	28432
810.875	28379
811.016	28314
811.158	28272
811.299	28538
811.441	28630
811.582	28523
811.724	28341
811.865	28303
812.007	28451
812.148	28280
812.29	28462
812.431	28561
812.573	28797
812.714	28866
812.855	28949
812.997	29064
813.138	29109
813.279	29189
813.421	29006
813.562	28843
813.703	28839
813.845	28641
813.986	28280
814.127	28169
814.268	28070
814.41	28059
814.551	27994
814.692	28200
814.833	28013
814.974	28097
815.115	28109
815.256	27857
815.397	27884
815.539	27770
815.68	27770
815.821	27854
815.962	27774
816.103	27781
816.244	27591
816.385	27667
816.526	27530
816.666	27439
816.807	27317
816.948	27329
817.089	27507
817.23	27485
817.371	27344
817.512	27230
817.653	27329
817.793	27291
817.934	27203
818.075	27317
818.216	27245
818.356	27108
818.497	27100
818.638	27024
818.778	27039
818.919	27089
819.06	27108
819.2	27077
819.341	27272
819.481	27256
819.622	27439
819.762	27526
819.903	27439
820.043	27492
820.184	27252
820.324	27321
820.465	27401
820.605	27370
820.746	27241
820.886	27222
821.026	27294
821.167	27188
821.307	27367
821.447	27325
821.588	27222
821.728	27085
821.868	26853
822.008	26819
822.149	26629
822.289	26583
822.429	26389
822.569	26419
822.709	26294
822.849	26103
822.99	26252
823.13	26119
823.27	25989
823.41	26005
823.55	25887
823.69	26012
823.83	25997
823.97	25909
824.11	25795
824.25	25769
824.389	25689
824.529	25906
824.669	25738
824.809	25898
824.949	25776
825.089	25875
825.228	25906
825.368	25609
825.508	25738
825.648	25613
825.787	25723
825.927	25723
826.067	25609
826.206	25495
826.346	25746
826.485	25780
826.625	25518
826.765	25666
826.904	25674
827.044	25430
827.183	25350
827.323	25301
827.462	25373
827.601	25343
827.741	25171
827.88	25179
828.02	25274
828.159	25259
828.298	25350
828.437	25327
828.577	25274
828.716	25407
828.855	25263
828.994	25088
829.134	24966
829.273	24970
829.412	25095
829.551	24882
829.69	25031
829.829	25015
829.968	25046
830.107	25046
830.246	24966
830.385	24970
830.524	24859
830.663	24852
830.802	24642
830.941	24517
831.08	24471
831.219	24517
831.357	24639
831.496	24886
831.635	24688
831.774	24479
831.913	24448
832.051	24410
832.19	24228
832.329	24311
832.467	24273
832.606	24235
832.744	24129
832.883	24281
833.022	24136
833.16	24155
833.299	24205
833.437	24235
833.576	24182
833.714	24232
833.852	24353
833.991	24289
834.129	24380
834.267	24258
834.406	24308
834.544	24209
834.682	24258
834.821	24121
834.959	24418
835.097	24186
835.235	24330
835.373	24186
835.511	24186
835.65	24007
835.788	24167
835.926	23885
836.064	23714
836.202	24049
836.34	24049
836.478	24247
836.615	24057
836.753	23939
836.891	24011
837.029	24045
837.167	24018
837.305	23882
837.443	23958
837.58	23935
837.718	24022
837.856	23893
837.993	23817
838.131	23889
838.269	23809
838.406	23840
838.544	23745
838.681	23623
838.819	23467
838.956	23330
839.094	23395
839.231	23356
839.369	23471
839.506	23668
839.643	23600
839.781	23482
839.918	23159
840.055	23334
840.193	23376
840.33	23223
840.467	23162
840.604	23311
840.742	23558
840.879	23075
841.016	23178
841.153	23136
841.29	23334
841.427	23216
841.564	23250
841.701	23200
841.838	23174
841.975	23185
842.112	23208
842.249	23113
842.385	23006
842.522	23231
842.659	22965
842.796	22965
842.933	22976
843.069	22828
843.206	22938
843.343	22991
843.479	22972
843.616	22930
843.752	22687
843.889	22809
844.025	22805
844.162	22672
844.298	22759
844.435	22649
844.571	22641
844.708	22733
844.844	22828
844.98	22885
845.117	22831
845.253	22649
845.389	22481
845.525	22672
845.661	22580
845.798	22363
845.934	22474
846.07	22466
846.206	22409
846.342	22592
846.478	22394
846.614	22188
846.75	22188
846.886	22188
847.022	22325
847.158	22040
847.294	22181
847.429	22074
847.565	22112
847.701	22303
847.837	21926
847.972	21892
848.108	22055
848.244	22002
848.379	21827
848.515	21797
848.65	21808
848.786	21816
848.921	21709
849.057	21831
849.192	21762
849.328	21819
849.463	21884
849.598	21675
849.734	21701
849.869	21686
850.004	21488
850.14	21580
850.275	21557
850.41	21439
850.545	21439
850.68	21386
850.815	21511
850.95	21481
851.085	21641
851.22	21675
851.355	21488
851.49	21481
851.625	21428
851.76	21443
851.895	21443
852.03	21348
852.165	21542
852.299	21568
852.434	21561
852.569	21526
852.703	21530
852.838	21477
852.973	21519
853.107	21595
853.242	21424
853.376	21332
853.511	21173
853.645	21268
853.78	21393
853.914	21332
854.048	21249
854.183	21169
854.317	21428
854.451	21378
854.585	21264
854.72	21317
854.854	21378
854.988	21245
855.122	21268
855.256	21237
855.39	21420
855.524	21408
855.658	21389
855.792	21302
855.926	21325
856.06	21291
856.194	21367
856.327	21317
856.461	21169
856.595	21252
856.729	21245
856.862	21466
856.996	21340
857.13	21336
857.263	21488
857.397	21401
857.53	21412
857.664	21340
857.797	21447
857.931	21332
858.064	21283
858.197	21317
858.331	21279
858.464	21218
858.597	21169
858.731	21260
858.864	21188
858.997	21272
859.13	21260
859.263	21378
859.396	21386
859.529	21275
859.662	21256
859.795	21302
859.928	21199
860.061	21412
860.194	21386
860.327	21302
860.46	21329
860.592	21294
860.725	21374
860.858	21412
860.99	21192
861.123	21192
861.256	21252
861.388	21272
861.521	21804
861.653	21150
861.786	21070
861.918	21081
862.05	21100
862.183	21199
862.315	21275
862.447	21237
862.58	21150
862.712	21036
862.844	20910
862.976	21024
863.108	20994
863.24	21416
863.372	20956
863.504	20956
863.636	20910
863.768	20975
863.9	20944
864.032	20823
864.164	20941
864.296	20906
864.428	20948
864.559	21039
864.691	20948
864.823	20918
864.954	20902
865.086	20887
865.217	20819
865.349	20762
865.48	20834
865.612	20750
865.743	21036
865.875	20785
866.006	20746
866.137	20956
866.269	20819
866.4	20944
866.531	20712
866.662	20746
866.793	20788
866.924	20777
867.055	20762
867.186	20678
867.317	20735
867.448	20670
867.579	20735
867.71	20754
867.841	20670
867.972	20807
868.103	20895
868.233	20788
868.364	20769
868.495	20868
868.625	20960
868.756	21093
868.886	20929
869.017	21062
869.147	21089
869.278	21096
869.408	21032
869.539	21024
869.669	21047
869.799	20967
869.929	21051
870.06	21233
870.19	21374
870.32	21378
870.45	21397
870.58	21424
870.71	21477
870.84	21511
870.97	21401
871.1	21310
871.23	21572
871.36	21603
871.489	21416
871.619	21549
871.749	21595
871.879	21568
872.008	21774
872.138	21610
872.267	21682
872.397	21557
872.526	21466
872.656	21397
872.785	21428
872.915	21705
873.044	21641
873.173	21686
873.303	21644
873.432	21701
873.561	21781
873.69	21606
873.819	21652
873.948	21724
874.077	21580
874.206	21553
874.335	21652
874.464	21728
874.593	21911
874.722	21827
874.851	21972
874.979	21816
875.108	21937
875.237	21895
875.365	21789
875.494	21895
875.623	21869
875.751	21831
875.88	21915
876.008	22021
876.136	22143
876.265	22249
876.393	22424
876.521	22310
876.65	22405
876.778	22207
876.906	22120
877.034	22276
877.162	22291
877.29	22090
877.418	22143
877.546	22295
877.674	22169
877.802	22246
877.93	22204
878.058	22116
878.185	22032
878.313	22166
878.441	22192
878.568	22048
878.696	22177
878.824	22333
878.951	22333
879.079	22360
879.206	22588
879.333	22325
879.461	22249
879.588	22257
879.715	22409
879.842	22421
879.97	22204
880.097	22116
880.224	22029
880.351	22105
880.478	22120
880.605	22055
880.732	22059
880.859	22253
880.986	22021
881.112	22078
881.239	21945
881.366	21720
881.493	21743
881.619	21656
881.746	21515
881.872	21637
881.999	21648
882.125	21500
882.252	21698
882.378	21576
882.505	21774
882.631	21485
882.757	21268
882.883	21393
883.01	21439
883.136	21355
883.262	21245
883.388	21157
883.514	21283
883.64	21317
883.766	21207
883.892	21165
884.018	21150
884.143	21287
884.269	21325
884.395	21047
884.52	21009
884.646	20979
884.772	20902
884.897	20906
885.023	21013
885.148	21108
885.274	21135
885.399	20880
885.524	21005
885.65	21013
885.775	20979
885.9	20979
886.025	21058
886.15	21074
886.275	20872
886.4	20800
886.525	20887
886.65	20906
886.775	20868
886.9	21131
887.025	21131
887.149	20887
887.274	20651
887.399	20739
887.523	20807
887.648	20720
887.773	20655
887.897	20754
888.021	20804
888.146	20621
888.27	20804
888.395	20735
888.519	20819
888.643	20838
888.767	20842
888.891	20663
889.015	20507
889.139	20556
889.263	20560
889.387	20606
889.511	20693
889.635	20689
889.759	20473
889.883	20484
890.006	20545
890.13	20571
890.254	20522
890.377	20457
890.501	20248
890.624	20248
890.748	20495
890.871	20244
890.995	20005
891.118	20039
891.241	20111
891.364	20183
891.488	20252
891.611	20153
891.734	20187
891.857	20100
891.98	20031
892.103	20157
892.226	20103
892.349	20012
892.471	19925
892.594	20142
892.717	20176
892.839	20027
892.962	20024
893.085	20161
893.207	20012
893.33	19719
893.452	19871
893.575	19951
893.697	19944
893.819	20122
893.941	20286
894.064	20062
894.186	19997
894.308	19936
894.43	20035
894.552	20153
894.674	20008
894.796	19917
894.918	19963
895.04	20077
895.161	20054
895.283	20130
895.405	19871
895.526	20046
895.648	20012
895.769	20016
895.891	20081
896.012	20024
896.134	20020
896.255	20031
896.376	19940
896.498	20103
896.619	20092
896.74	20020
896.861	20103
896.982	20332
897.103	20560
897.224	20328
897.345	20324
897.466	20069
897.587	20256
897.708	20305
897.828	20282
897.949	20244
898.07	20054
898.19	20126
898.311	20396
898.431	20248
898.552	20187
898.672	20259
898.792	20313
898.913	20298
899.033	20126
899.153	20073
899.273	19951
899.393	20031
899.513	20001
899.633	19963
899.753	20065
899.873	19921
899.993	20062
900.113	19852
900.232	19909
900.352	19871
900.472	19757
900.591	19647
900.711	19841
900.83	19837
900.95	19833
901.069	19868
901.189	19704
901.308	19464
901.427	19304
901.546	19388
901.665	19403
901.784	19312
901.904	19263
902.023	19160
902.141	18821
902.26	18913
902.379	19015
902.498	18802
902.617	18749
902.735	18871
902.854	18783
902.973	18783
903.091	18464
903.21	18521
903.328	18486
903.446	18376
903.565	18300
903.683	18327
903.801	18167
903.919	18232
904.038	18197
904.156	18095
904.274	18125
904.392	18178
904.51	18072
904.627	17958
904.745	18057
904.863	18144
904.981	17920
905.098	17805
905.216	17729
905.334	17771
905.451	17737
905.569	17767
905.686	17802
905.803	17741
905.921	17600
906.038	17619
906.155	17638
906.272	17395
906.389	17436
906.506	17273
906.623	17299
906.74	17258
906.857	17174
906.974	17273
907.091	17387
907.208	17406
907.324	17337
907.441	17239
907.557	16946
907.674	16984
907.79	16900
907.907	16934
908.023	17025
908.139	16946
908.256	16923
908.372	16889
908.488	16831
908.604	16740
908.72	16656
908.836	16649
908.952	16645
909.068	16694
909.184	16740
909.3	16660
909.415	16736
909.531	16698
909.647	16413
909.762	16382
909.878	16443
909.993	16512
910.108	16352
910.224	16375
910.339	16375
910.454	16253
910.57	16272
910.685	16013
910.8	16287
910.915	16318
911.03	16249
911.145	16006
911.259	15930
911.374	15998
911.489	15915
911.604	15876
911.718	15709
911.833	15778
911.947	15644
912.062	15656
912.176	15804
912.291	15774
912.405	15751
912.519	15968
912.633	15842
912.748	15736
912.862	15652
912.976	15500
913.09	15485
913.204	15443
913.318	15469
913.431	15743
913.545	15595
913.659	15587
913.772	15622
913.886	15367
914	15329
914.113	15378
914.226	15428
914.34	15386
914.453	15283
914.566	15325
914.68	15222
914.793	15264
914.906	14941
915.019	14956
915.132	14880
915.245	14967
915.358	14933
915.47	14982
915.583	14941
915.696	14914
915.809	15108
915.921	15039
916.034	14998
916.146	14857
916.259	14716
916.371	14880
916.483	14891
916.595	14800
916.708	14834
916.82	14796
916.932	14788
917.044	14754
917.156	14735
917.268	14655
917.38	14617
917.491	14545
917.603	14651
917.715	14705
917.826	14682
917.938	14511
918.049	14507
918.161	14568
918.272	14610
918.384	14697
918.495	14530
918.606	14514
918.717	14336
918.828	14408
918.939	14393
919.05	14332
919.161	14267
919.272	14138
919.383	14100
919.494	14396
919.604	14632
919.715	14404
919.826	14259
919.936	14286
920.047	14404
920.157	14324
920.267	14621
920.378	14343
920.488	14339
920.598	14457
920.708	14590
920.818	14450
920.928	14511
921.038	14727
921.148	14598
921.258	14271
921.368	14142
921.477	14153
921.587	14103
921.697	13936
921.806	14092
921.916	13940
922.025	13780
922.134	13666
922.244	13742
922.353	13685
922.462	13552
922.571	13582
922.68	13396
922.789	13225
922.898	13411
923.007	13320
923.116	13350
923.224	13304
923.333	13335
923.442	13145
923.55	13171
923.659	13232
923.767	13221
923.876	13110
923.984	13141
924.092	13053
924.201	13107
924.309	13168
924.417	13095
924.525	12977
924.633	13000
924.741	13784
924.849	12810
924.956	12970
925.064	12760
925.172	12753
925.279	12745
925.387	12894
925.494	12719
925.602	12935
925.709	12810
925.816	12730
925.924	12734
926.031	12886
926.138	12783
926.245	12837
926.352	12620
926.459	12730
926.566	12825
926.673	12582
926.779	12574
926.886	12456
926.993	12418
927.099	12369
927.206	12315
927.312	12281
927.419	12369
927.525	12319
927.631	12414
927.737	12243
927.843	12102
927.95	12114
928.056	12136
928.162	12178
928.267	12235
928.373	12844
928.479	12365
928.585	12064
928.69	12197
928.796	12216
928.901	12003
929.007	11893
929.112	11958
929.218	11946
929.323	11992
929.428	11870
929.533	11977
929.638	11775
929.743	11855
929.848	11904
929.953	11809
930.058	11729
930.163	11600
930.267	11642
930.372	11729
930.477	11592
930.581	11802
930.685	11638
930.79	11471
930.894	11474
930.998	11448
931.103	11551
931.207	11242
931.311	11170
931.415	11041
931.519	10877
931.623	10835
