Data from test_V78500241_1504.txt Node
Date: Fri Mar 25 15:52:13 CST 2022
User: usil
Spectrometer: V785-0024
Trigger mode: 0
Integration Time (sec): 4.000000E-1
Scans to average: 1
Nonlinearity correction enabled: false
Boxcar width: 0
Storing dark spectrum: false
XAxis mode: Wavelengths
Number of Pixels in Spectrum: 1024
>>>>>Begin Spectral Data<<<<<
801.071	27994
801.214	27789
801.356	27660
801.499	27572
801.641	27568
801.783	27473
801.926	27511
802.068	27534
802.211	27370
802.353	27454
802.496	27291
802.638	27195
802.78	27135
802.923	27123
803.065	27127
803.208	27055
803.35	27173
803.492	27283
803.635	27279
803.777	27260
803.919	27313
804.061	27743
804.204	27378
804.346	27207
804.488	27195
804.63	27218
804.773	27256
804.915	27359
805.057	27496
805.199	27203
805.341	27370
805.483	27458
805.626	27564
805.768	27458
805.91	27348
806.052	27492
806.194	27477
806.336	27462
806.478	27564
806.62	27519
806.762	27701
806.904	27747
807.046	27934
807.188	27934
807.33	27964
807.472	28029
807.614	27804
807.756	28002
807.898	27797
808.04	27759
808.182	27652
808.324	27690
808.465	27869
808.607	27937
808.749	28128
808.891	28086
809.033	28367
809.174	28093
809.316	28147
809.458	28090
809.6	27994
809.741	28329
809.883	28314
810.025	28424
810.166	28398
810.308	28405
810.45	28390
810.591	28128
810.733	28116
810.875	28177
811.016	27949
811.158	28097
811.299	28116
811.441	28284
811.582	28272
811.724	28192
811.865	28166
812.007	28131
812.148	28135
812.29	28177
812.431	28223
812.573	28371
812.714	28489
812.855	28546
812.997	28634
813.138	28930
813.279	28755
813.421	28637
813.562	28577
813.703	28352
813.845	28440
813.986	28223
814.127	27865
814.268	27671
814.41	27755
814.551	27873
814.692	27823
814.833	27781
814.974	27827
815.115	27724
815.256	27720
815.397	27797
815.539	27690
815.68	27526
815.821	27572
815.962	27572
816.103	27549
816.244	27454
816.385	27424
816.526	27317
816.666	27096
816.807	27119
816.948	27287
817.089	27283
817.23	27116
817.371	27093
817.512	27192
817.653	27005
817.793	26998
817.934	27032
818.075	27207
818.216	27093
818.356	26963
818.497	26998
818.638	26796
818.778	26849
818.919	26857
819.06	26853
819.2	27013
819.341	27123
819.481	26990
819.622	27241
819.762	27485
819.903	27412
820.043	27275
820.184	27298
820.324	27275
820.465	27272
820.605	27237
820.746	27256
820.886	27032
821.026	27020
821.167	27218
821.307	27222
821.447	27135
821.588	27074
821.728	26902
821.868	26648
822.008	26568
822.149	26530
822.289	26530
822.429	26305
822.569	26195
822.709	26358
822.849	26001
822.99	26145
823.13	26039
823.27	26008
823.41	25875
823.55	25731
823.69	25902
823.83	26024
823.97	25757
824.11	25689
824.25	25609
824.389	25704
824.529	25841
824.669	25776
824.809	26027
824.949	25753
825.089	25887
825.228	25841
825.368	25639
825.508	25506
825.648	25677
825.787	25521
825.927	25685
826.067	25552
826.206	25643
826.346	25628
826.485	25784
826.625	25693
826.765	25704
826.904	25472
827.044	25499
827.183	25392
827.323	25274
827.462	25365
827.601	25438
827.741	25365
827.88	25331
828.02	25179
828.159	25312
828.298	25213
828.437	25419
828.577	25373
828.716	25396
828.855	25175
828.994	24985
829.134	25095
829.273	25110
829.412	25038
829.551	24890
829.69	25099
829.829	25148
829.968	25187
830.107	25084
830.246	24894
830.385	24924
830.524	24954
830.663	24825
830.802	24703
830.941	24528
831.08	24661
831.219	24692
831.357	24658
831.496	24837
831.635	24658
831.774	24502
831.913	24456
832.051	24471
832.19	24388
832.329	24376
832.467	24136
832.606	24216
832.744	24167
832.883	24163
833.022	24304
833.16	24289
833.299	24220
833.437	24220
833.576	24361
833.714	24407
833.852	24384
833.991	24513
834.129	24517
834.267	24479
834.406	24429
834.544	24464
834.682	24509
834.821	24388
834.959	24391
835.097	24334
835.235	24350
835.373	24357
835.511	24182
835.65	24159
835.788	24136
835.926	24133
836.064	24003
836.202	24102
836.34	24133
836.478	24125
836.615	24178
836.753	24319
836.891	24296
837.029	24330
837.167	24186
837.305	24072
837.443	24194
837.58	24015
837.718	24057
837.856	24030
837.993	24053
838.131	24072
838.269	23821
838.406	23882
838.544	23859
838.681	23817
838.819	23661
838.956	23395
839.094	23512
839.231	23535
839.369	23615
839.506	23798
839.643	23805
839.781	23383
839.918	23398
840.055	23379
840.193	23337
840.33	23402
840.467	23406
840.604	23512
840.742	23748
840.879	23159
841.016	23307
841.153	23299
841.29	23410
841.427	23417
841.564	23398
841.701	23364
841.838	23334
841.975	23356
842.112	23330
842.249	23239
842.385	23170
842.522	23292
842.659	23178
842.796	23025
842.933	23246
843.069	23052
843.206	23071
843.343	23140
843.479	23200
843.616	23136
843.752	22908
843.889	22972
844.025	22987
844.162	22854
844.298	23037
844.435	22904
844.571	22900
844.708	23006
844.844	23060
844.98	23014
845.117	22976
845.253	22782
845.389	22793
845.525	22759
845.661	22793
845.798	22694
845.934	22706
846.07	22573
846.206	22554
846.342	22778
846.478	22626
846.614	22394
846.75	22329
846.886	22329
847.022	22493
847.158	22417
847.294	22447
847.429	22413
847.565	22375
847.701	22759
847.837	22105
847.972	22048
848.108	22128
848.244	22234
848.379	22074
848.515	21983
848.65	21911
848.786	21964
848.921	22067
849.057	22154
849.192	22059
849.328	21960
849.463	22021
849.598	21953
849.734	21934
849.869	21873
850.004	21671
850.14	21732
850.275	21705
850.41	21603
850.545	21656
850.68	21736
850.815	21747
850.95	21819
851.085	21895
851.22	21823
851.355	21751
851.49	21720
851.625	21743
851.76	21770
851.895	21625
852.03	21633
852.165	21759
852.299	21728
852.434	21842
852.569	21838
852.703	21698
852.838	21774
852.973	21880
853.107	21987
853.242	21728
853.376	21568
853.511	21511
853.645	21545
853.78	21644
853.914	21610
854.048	21450
854.183	21545
854.317	21572
854.451	21755
854.585	21519
854.72	21420
854.854	21572
854.988	21526
855.122	21553
855.256	21389
855.39	21549
855.524	21606
855.658	21644
855.792	21538
855.926	21587
856.06	21747
856.194	21709
856.327	21564
856.461	21473
856.595	21428
856.729	21534
856.862	21701
856.996	21564
857.13	21759
857.263	21614
857.397	21660
857.53	21720
857.664	21530
857.797	21682
857.931	21652
858.064	21618
858.197	21724
858.331	21511
858.464	21454
858.597	21420
858.731	21477
858.864	21462
858.997	21507
859.13	21625
859.263	21515
859.396	21549
859.529	21545
859.662	21466
859.795	21519
859.928	21576
860.061	21698
860.194	21797
860.327	21614
860.46	21549
860.592	21648
860.725	21865
860.858	21694
860.99	21580
861.123	21542
861.256	21557
861.388	21572
861.521	22059
861.653	21454
861.786	21386
861.918	21363
862.05	21317
862.183	21504
862.315	21431
862.447	21561
862.58	21370
862.712	21203
862.844	21252
862.976	21488
863.108	21412
863.24	21903
863.372	21245
863.504	21176
863.636	21211
863.768	21317
863.9	21279
864.032	21218
864.164	21161
864.296	21386
864.428	21386
864.559	21412
864.691	21313
864.823	21351
864.954	21203
865.086	21272
865.217	21154
865.349	21070
865.48	21127
865.612	21100
865.743	21374
865.875	21233
866.006	21066
866.137	21070
866.269	21176
866.4	21058
866.531	21131
866.662	21077
866.793	20982
866.924	21180
867.055	21245
867.186	21154
867.317	21081
867.448	20998
867.579	21055
867.71	21062
867.841	20910
867.972	21146
868.103	21169
868.233	21085
868.364	21146
868.495	21230
868.625	21275
868.756	21458
868.886	21294
869.017	21374
869.147	21443
869.278	21447
869.408	21397
869.539	21340
869.669	21393
869.799	21363
869.929	21488
870.06	21481
870.19	21755
870.32	21637
870.45	21644
870.58	21713
870.71	21819
870.84	21850
870.97	21857
871.1	21789
871.23	21991
871.36	22093
871.489	21915
871.619	21880
871.749	21865
871.879	21964
872.008	22013
872.138	21899
872.267	21922
872.397	21850
872.526	21827
872.656	21671
872.785	21793
872.915	22010
873.044	22048
873.173	21979
873.303	22044
873.432	22029
873.561	22177
873.69	21949
873.819	22021
873.948	22105
874.077	21964
874.206	21949
874.335	21987
874.464	22078
874.593	22139
874.722	22139
874.851	22196
874.979	22291
875.108	22306
875.237	22120
875.365	22055
875.494	22131
875.623	22318
875.751	22120
875.88	22109
876.008	22546
876.136	22478
876.265	22535
876.393	22740
876.521	22656
876.65	22603
876.778	22436
876.906	22519
877.034	22542
877.162	22546
877.29	22447
877.418	22489
877.546	22485
877.674	22459
877.802	22512
877.93	22466
878.058	22504
878.185	22360
878.313	22519
878.441	22474
878.568	22432
878.696	22557
878.824	22596
878.951	22451
879.079	22721
879.206	22911
879.333	22740
879.461	22691
879.588	22618
879.715	22592
879.842	22656
879.97	22641
880.097	22310
880.224	22398
880.351	22268
880.478	22375
880.605	22344
880.732	22306
880.859	22577
880.986	22386
881.112	22257
881.239	22147
881.366	22025
881.493	21964
881.619	21937
881.746	21903
881.872	21823
881.999	22067
882.125	21915
882.252	21911
882.378	21812
882.505	21956
882.631	21660
882.757	21625
882.883	21759
883.01	21564
883.136	21622
883.262	21408
883.388	21428
883.514	21690
883.64	21679
883.766	21553
883.892	21428
884.018	21450
884.143	21618
884.269	21542
884.395	21420
884.52	21226
884.646	21405
884.772	21252
884.897	21241
885.023	21161
885.148	21241
885.274	21374
885.399	21397
885.524	21252
885.65	21264
885.775	21245
885.9	21249
886.025	21291
886.15	21332
886.275	21233
886.4	21096
886.525	21291
886.65	21157
886.775	21096
886.9	21332
887.025	21348
887.149	21230
887.274	21009
887.399	21142
887.523	21131
887.648	20941
887.773	20990
887.897	21165
888.021	21119
888.146	21005
888.27	21119
888.395	21176
888.519	21020
888.643	20994
888.767	21066
888.891	20952
889.015	20769
889.139	20807
889.263	20819
889.387	20975
889.511	20963
889.635	20925
889.759	20765
889.883	20720
890.006	20933
890.13	20960
890.254	20777
890.377	20781
890.501	20609
890.624	20556
890.748	20571
890.871	20579
890.995	20358
891.118	20214
891.241	20374
891.364	20408
891.488	20549
891.611	20431
891.734	20358
891.857	20590
891.98	20408
892.103	20404
892.226	20457
892.349	20320
892.471	20221
892.594	20286
892.717	20275
892.839	20218
892.962	20343
893.085	20347
893.207	20282
893.33	20142
893.452	20309
893.575	20370
893.697	20244
893.819	20438
893.941	20362
894.064	20343
894.186	20286
894.308	20221
894.43	20286
894.552	20469
894.674	20385
894.796	20180
894.918	20199
895.04	20259
895.161	20347
895.283	20332
895.405	20233
895.526	20301
895.648	20244
895.769	20328
895.891	20286
896.012	20408
896.134	20328
896.255	20328
896.376	20408
896.498	20252
896.619	20332
896.74	20366
896.861	20259
896.982	20556
897.103	20750
897.224	20465
897.345	20488
897.466	20511
897.587	20465
897.708	20735
897.828	20613
897.949	20385
898.07	20385
898.19	20457
898.311	20457
898.431	20358
898.552	20495
898.672	20438
898.792	20560
898.913	20514
899.033	20358
899.153	20336
899.273	20134
899.393	20237
899.513	20290
899.633	20237
899.753	20267
899.873	20263
899.993	20305
900.113	20100
900.232	20221
900.352	20286
900.472	20058
900.591	20111
900.711	20065
900.83	19947
900.95	20122
901.069	20138
901.189	20012
901.308	19734
901.427	19655
901.546	19525
901.665	19719
901.784	19521
901.904	19480
902.023	19457
902.141	19217
902.26	19228
902.379	19160
902.498	19133
902.617	19008
902.735	19152
902.854	19152
902.973	19069
903.091	18787
903.21	18791
903.328	18776
903.446	18669
903.565	18654
903.683	18639
903.801	18517
903.919	18521
904.038	18525
904.156	18388
904.274	18388
904.392	18334
904.51	18372
904.627	18330
904.745	18350
904.863	18448
904.981	18060
905.098	18064
905.216	18038
905.334	18117
905.451	17977
905.569	17897
905.686	18091
905.803	18049
905.921	17745
906.038	17878
906.155	17847
906.272	17817
906.389	17729
906.506	17581
906.623	17615
906.74	17539
906.857	17391
906.974	17463
907.091	17558
907.208	17680
907.324	17554
907.441	17455
907.557	17387
907.674	17356
907.79	17193
907.907	17197
908.023	17284
908.139	17337
908.256	17231
908.372	17155
908.488	17079
908.604	17022
908.72	16908
908.836	17033
908.952	16930
909.068	17048
909.184	17151
909.3	16930
909.415	17113
909.531	17041
909.647	16786
909.762	16668
909.878	16668
909.993	16660
910.108	16653
910.224	16725
910.339	16630
910.454	16558
910.57	16523
910.685	16443
910.8	16698
910.915	16592
911.03	16550
911.145	16447
911.259	16268
911.374	16295
911.489	16234
911.604	16219
911.718	15998
911.833	16093
911.947	15922
912.062	15884
912.176	16162
912.291	16055
912.405	15873
912.519	16128
912.633	16131
912.748	16112
912.862	16032
912.976	15797
913.09	15720
913.204	15812
913.318	15850
913.431	15915
913.545	15949
913.659	15873
913.772	15778
913.886	15751
914	15580
914.113	15755
914.226	15827
914.34	15694
914.453	15523
914.566	15709
914.68	15511
914.793	15534
914.906	15332
915.019	15252
915.132	15169
915.245	15256
915.358	15294
915.47	15230
915.583	15294
915.696	15260
915.809	15393
915.921	15348
916.034	15188
916.146	15169
916.259	15100
916.371	15279
916.483	15218
916.595	15055
916.708	15047
916.82	15055
916.932	15100
917.044	15039
917.156	14960
917.268	14899
917.38	14804
917.491	14883
917.603	14857
917.715	15009
917.826	14956
917.938	14823
918.049	14678
918.161	14830
918.272	14933
918.384	14982
918.495	14921
918.606	14735
918.717	14602
918.828	14594
918.939	14651
919.05	14556
919.161	14682
919.272	14526
919.383	14533
919.494	14735
919.604	14838
919.715	14667
919.826	14587
919.936	14530
920.047	14735
920.157	14571
920.267	14815
920.378	14598
920.488	14552
920.598	14743
920.708	14925
920.818	14727
920.928	14746
921.038	14777
921.148	14842
921.258	14575
921.368	14533
921.477	14377
921.587	14332
921.697	14275
921.806	14313
921.916	14138
922.025	14145
922.134	13925
922.244	14012
922.353	13982
922.462	13879
922.571	13890
922.68	13647
922.789	13677
922.898	13616
923.007	13651
923.116	13655
923.224	13609
923.333	13643
923.442	13495
923.55	13518
923.659	13544
923.767	13563
923.876	13381
923.984	13457
924.092	13369
924.201	13373
924.309	13377
924.417	13362
924.525	13369
924.633	13251
924.741	14271
924.849	13107
924.956	13103
925.064	13118
925.172	12943
925.279	12989
925.387	13110
925.494	13046
925.602	13175
925.709	13114
925.816	13031
925.924	12985
926.031	13053
926.138	12962
926.245	13065
926.352	12913
926.459	13008
926.566	13103
926.673	12882
926.779	12867
926.886	12779
926.993	12642
927.099	12608
927.206	12517
927.312	12608
927.419	12654
927.525	12722
927.631	12623
927.737	12464
927.843	12445
927.95	12399
928.056	12395
928.162	12486
928.267	12471
928.373	13164
928.479	12471
928.585	12182
928.69	12384
928.796	12445
928.901	12353
929.007	12125
929.112	12315
929.218	12232
929.323	12102
929.428	12209
929.533	12285
929.638	12091
929.743	12178
929.848	12155
929.953	12125
930.058	11920
930.163	11908
930.267	11859
930.372	12034
930.477	11805
930.581	12030
930.685	11870
930.79	11710
930.894	11783
930.998	11748
931.103	11821
931.207	11505
931.311	11372
931.415	11273
931.519	11113
931.623	11102
