Data from test_V78500241_2532.txt Node
Date: Fri Mar 25 15:59:20 CST 2022
User: usil
Spectrometer: V785-0024
Trigger mode: 0
Integration Time (sec): 4.000000E-1
Scans to average: 1
Nonlinearity correction enabled: false
Boxcar width: 0
Storing dark spectrum: false
XAxis mode: Wavelengths
Number of Pixels in Spectrum: 1024
>>>>>Begin Spectral Data<<<<<
801.071	28459
801.214	28538
801.356	28135
801.499	28196
801.641	28051
801.783	28105
801.926	28196
802.068	28002
802.211	28002
802.353	27778
802.496	27720
802.638	27816
802.78	27728
802.923	27698
803.065	27762
803.208	27652
803.35	27766
803.492	27850
803.635	27888
803.777	27720
803.919	27975
804.061	28291
804.204	27987
804.346	28013
804.488	27778
804.63	28070
804.773	27732
804.915	28002
805.057	28177
805.199	28032
805.341	28017
805.483	27983
805.626	28006
805.768	27899
805.91	28101
806.052	28101
806.194	28070
806.336	28265
806.478	28090
806.62	28048
806.762	28299
806.904	28265
807.046	28672
807.188	28535
807.33	28409
807.472	28683
807.614	28535
807.756	28546
807.898	28523
808.04	28310
808.182	28265
808.324	28363
808.465	28481
808.607	28656
808.749	28736
808.891	28888
809.033	28968
809.174	28755
809.316	28713
809.458	28763
809.6	28934
809.741	28809
809.883	28965
810.025	28976
810.166	29124
810.308	29044
810.45	28927
810.591	28949
810.733	28733
810.875	28733
811.016	28615
811.158	28668
811.299	28858
811.441	28858
811.582	28782
811.724	28801
811.865	28839
812.007	28881
812.148	28691
812.29	28755
812.431	28904
812.573	29025
812.714	29193
812.855	29326
812.997	29379
813.138	29539
813.279	29353
813.421	29322
813.562	29132
813.703	29113
813.845	29003
813.986	28710
814.127	28653
814.268	28421
814.41	28538
814.551	28489
814.692	28493
814.833	28303
814.974	28573
815.115	28341
815.256	28299
815.397	28386
815.539	28382
815.68	28219
815.821	28261
815.962	28234
816.103	28249
816.244	28124
816.385	28147
816.526	27930
816.666	27937
816.807	27785
816.948	27728
817.089	27895
817.23	27812
817.371	27663
817.512	27675
817.653	27743
817.793	27660
817.934	27709
818.075	27762
818.216	27739
818.356	27713
818.497	27576
818.638	27587
818.778	27511
818.919	27561
819.06	27656
819.2	27599
819.341	27759
819.481	27667
819.622	27926
819.762	28215
819.903	28040
820.043	27941
820.184	27994
820.324	27994
820.465	27884
820.605	27987
820.746	27869
820.886	27724
821.026	27945
821.167	27831
821.307	27823
821.447	27724
821.588	27572
821.728	27671
821.868	27321
822.008	27359
822.149	27180
822.289	27222
822.429	26944
822.569	26781
822.709	27043
822.849	26754
822.99	26777
823.13	26781
823.27	26606
823.41	26617
823.55	26400
823.69	26507
823.83	26568
823.97	26446
824.11	26366
824.25	26324
824.389	26412
824.529	26552
824.669	26461
824.809	26438
824.949	26530
825.089	26461
825.228	26351
825.368	26389
825.508	26267
825.648	26328
825.787	26377
825.927	26358
826.067	26229
826.206	26256
826.346	26183
826.485	26229
826.625	26286
826.765	26286
826.904	26374
827.044	26012
827.183	26172
827.323	25932
827.462	26043
827.601	25982
827.741	25928
827.88	25883
828.02	26043
828.159	25944
828.298	25894
828.437	26043
828.577	25871
828.716	26065
828.855	25955
828.994	25674
829.134	25757
829.273	25849
829.412	25674
829.551	25609
829.69	25658
829.829	25788
829.968	25856
830.107	25852
830.246	25681
830.385	25647
830.524	25529
830.663	25502
830.802	25350
830.941	25255
831.08	25240
831.219	25403
831.357	25388
831.496	25655
831.635	25331
831.774	25171
831.913	25088
832.051	25031
832.19	25023
832.329	25080
832.467	25122
832.606	24844
832.744	24935
832.883	24772
833.022	24897
833.16	24996
833.299	24970
833.437	25145
833.576	25015
833.714	25027
833.852	25091
833.991	25072
834.129	25091
834.267	25061
834.406	25072
834.544	24996
834.682	25031
834.821	24962
834.959	25114
835.097	24878
835.235	24985
835.373	24981
835.511	24966
835.65	24909
835.788	24859
835.926	24798
836.064	24787
836.202	24547
836.34	24878
836.478	24981
836.615	24837
836.753	24859
836.891	24958
837.029	24871
837.167	24768
837.305	24760
837.443	24711
837.58	24669
837.718	24878
837.856	24677
837.993	24665
838.131	24703
838.269	24570
838.406	24486
838.544	24304
838.681	24437
838.819	24213
838.956	24140
839.094	24152
839.231	24038
839.369	24311
839.506	24517
839.643	24433
839.781	24190
839.918	24114
840.055	24171
840.193	24022
840.33	23973
840.467	24174
840.604	24068
840.742	24258
840.879	23802
841.016	23893
841.153	23942
841.29	24076
841.427	24034
841.564	24155
841.701	23942
841.838	23840
841.975	23863
842.112	23942
842.249	23893
842.385	23942
842.522	24098
842.659	23893
842.796	23783
842.933	23771
843.069	23729
843.206	23767
843.343	23870
843.479	23832
843.616	23809
843.752	23486
843.889	23531
844.025	23680
844.162	23627
844.298	23646
844.435	23611
844.571	23657
844.708	23558
844.844	23684
844.98	23687
845.117	23573
845.253	23402
845.389	23493
845.525	23516
845.661	23356
845.798	23387
845.934	23429
846.07	23425
846.206	23368
846.342	23353
846.478	23303
846.614	23151
846.75	23064
846.886	23052
847.022	22999
847.158	22991
847.294	23090
847.429	23037
847.565	23041
847.701	23216
847.837	22748
847.972	22683
848.108	22896
848.244	22831
848.379	22664
848.515	22603
848.65	22565
848.786	22500
848.921	22607
849.057	22771
849.192	22801
849.328	22630
849.463	22748
849.598	22622
849.734	22432
849.869	22478
850.004	22371
850.14	22523
850.275	22402
850.41	22310
850.545	22382
850.68	22356
850.815	22421
850.95	22333
851.085	22645
851.22	22493
851.355	22428
851.49	22322
851.625	22356
851.76	22421
851.895	22265
852.03	22295
852.165	22390
852.299	22344
852.434	22485
852.569	22405
852.703	22325
852.838	22478
852.973	22512
853.107	22512
853.242	22398
853.376	22276
853.511	22067
853.645	22169
853.78	22318
853.914	22207
854.048	22101
854.183	22116
854.317	22230
854.451	22470
854.585	22025
854.72	22291
854.854	22215
854.988	22154
855.122	22147
855.256	22109
855.39	22150
855.524	22360
855.658	22211
855.792	22207
855.926	22139
856.06	22139
856.194	22246
856.327	22074
856.461	22166
856.595	22303
856.729	22040
856.862	22204
856.996	22204
857.13	22238
857.263	22291
857.397	22291
857.53	22025
857.664	22196
857.797	22344
857.931	22333
858.064	22223
858.197	22223
858.331	22249
858.464	22147
858.597	22135
858.731	22082
858.864	22196
858.997	22082
859.13	22204
859.263	22086
859.396	22223
859.529	22093
859.662	22105
859.795	22143
859.928	22314
860.061	22272
860.194	22360
860.327	22268
860.46	22303
860.592	22375
860.725	22280
860.858	22333
860.99	22215
861.123	22131
861.256	22238
861.388	22303
861.521	22987
861.653	22101
861.786	21941
861.918	22025
862.05	22067
862.183	22116
862.315	22154
862.447	22147
862.58	22078
862.712	21941
862.844	21869
862.976	21922
863.108	22006
863.24	22207
863.372	21922
863.504	21930
863.636	21892
863.768	22021
863.9	21949
864.032	21857
864.164	21915
864.296	21816
864.428	22051
864.559	22010
864.691	21903
864.823	21934
864.954	21918
865.086	21873
865.217	21804
865.349	21709
865.48	21831
865.612	21701
865.743	21915
865.875	21808
866.006	21819
866.137	21705
866.269	21736
866.4	21903
866.531	21686
866.662	21778
866.793	21641
866.924	21583
867.055	21641
867.186	21739
867.317	21648
867.448	21595
867.579	21736
867.71	21743
867.841	21625
867.972	21778
868.103	21701
868.233	21698
868.364	21679
868.495	21842
868.625	21968
868.756	21972
868.886	21926
869.017	22010
869.147	22055
869.278	22063
869.408	21934
869.539	21930
869.669	22032
869.799	22063
869.929	22105
870.06	22044
870.19	22348
870.32	22143
870.45	22268
870.58	22398
870.71	22466
870.84	22405
870.97	22242
871.1	22280
871.23	22542
871.36	22603
871.489	22424
871.619	22538
871.749	22474
871.879	22618
872.008	22653
872.138	22519
872.267	22615
872.397	22306
872.526	22440
872.656	22398
872.785	22440
872.915	22550
873.044	22557
873.173	22527
873.303	22611
873.432	22462
873.561	22645
873.69	22622
873.819	22584
873.948	22622
874.077	22611
874.206	22634
874.335	22569
874.464	22668
874.593	22763
874.722	22740
874.851	22915
874.979	22843
875.108	22805
875.237	22816
875.365	22767
875.494	22793
875.623	22812
875.751	22713
875.88	22767
876.008	22961
876.136	23052
876.265	23143
876.393	23273
876.521	23239
876.65	23197
876.778	23189
876.906	23041
877.034	23223
877.162	23159
877.29	22999
877.418	23098
877.546	23037
877.674	23136
877.802	23147
877.93	23018
878.058	23170
878.185	22972
878.313	23246
878.441	23094
878.568	23006
878.696	23048
878.824	23128
878.951	23197
879.079	23410
879.206	23471
879.333	23223
879.461	23220
879.588	23326
879.715	23185
879.842	23353
879.97	23318
880.097	22976
880.224	22987
880.351	23033
880.478	23041
880.605	22858
880.732	22877
880.859	23037
880.986	22946
881.112	22923
881.239	22793
881.366	22687
881.493	22607
881.619	22603
881.746	22504
881.872	22584
881.999	22493
882.125	22402
882.252	22489
882.378	22508
882.505	22645
882.631	22386
882.757	22234
882.883	22291
883.01	22238
883.136	22173
883.262	22067
883.388	22029
883.514	22181
883.64	22223
883.766	22070
883.892	21972
884.018	21956
884.143	22154
884.269	22150
884.395	21838
884.52	21785
884.646	21827
884.772	21861
884.897	21770
885.023	21903
885.148	21998
885.274	22013
885.399	22021
885.524	21854
885.65	21884
885.775	21823
885.9	21724
886.025	21911
886.15	21823
886.275	21793
886.4	21819
886.525	21888
886.65	21724
886.775	21736
886.9	21991
887.025	22010
887.149	21785
887.274	21637
887.399	21648
887.523	21568
887.648	21583
887.773	21424
887.897	21690
888.021	21713
888.146	21542
888.27	21671
888.395	21633
888.519	21561
888.643	21618
888.767	21663
888.891	21458
889.015	21424
889.139	21401
889.263	21268
889.387	21530
889.511	21587
889.635	21492
889.759	21420
889.883	21435
890.006	21359
890.13	21458
890.254	21306
890.377	21245
890.501	21211
890.624	21077
890.748	21123
890.871	21051
890.995	20967
891.118	20967
891.241	21051
891.364	20891
891.488	21070
891.611	20941
891.734	20967
891.857	20952
891.98	20960
892.103	20891
892.226	20857
892.349	20811
892.471	20769
892.594	20853
892.717	20914
892.839	20857
892.962	20861
893.085	20941
893.207	20857
893.33	20606
893.452	20705
893.575	20815
893.697	20644
893.819	20960
893.941	21077
894.064	20952
894.186	20773
894.308	20754
894.43	20880
894.552	21062
894.674	20872
894.796	20636
894.918	20921
895.04	20830
895.161	20857
895.283	20902
895.405	20796
895.526	20758
895.648	20807
895.769	20948
895.891	20807
896.012	20895
896.134	20952
896.255	20838
896.376	20857
896.498	20853
896.619	20887
896.74	20765
896.861	20830
896.982	21176
897.103	21344
897.224	21169
897.345	21032
897.466	20941
897.587	21032
897.708	21173
897.828	21085
897.949	20979
898.07	20853
898.19	21055
898.311	21093
898.431	20937
898.552	20990
898.672	21081
898.792	21077
898.913	21028
899.033	20998
899.153	20826
899.273	20712
899.393	20754
899.513	20842
899.633	20754
899.753	20864
899.873	20648
899.993	20746
900.113	20644
900.232	20731
900.352	20720
900.472	20579
900.591	20594
900.711	20522
900.83	20465
900.95	20594
901.069	20651
901.189	20377
901.308	20176
901.427	20134
901.546	20142
901.665	20107
901.784	20130
901.904	19989
902.023	19932
902.141	19719
902.26	19552
902.379	19731
902.498	19655
902.617	19525
902.735	19605
902.854	19575
902.973	19563
903.091	19270
903.21	19297
903.328	19247
903.446	19179
903.565	19122
903.683	19095
903.801	18954
903.919	19015
904.038	19008
904.156	18916
904.274	18886
904.392	18894
904.51	18741
904.627	18848
904.745	18840
904.863	18894
904.981	18661
905.098	18433
905.216	18445
905.334	18612
905.451	18517
905.569	18448
905.686	18528
905.803	18445
905.921	18232
906.038	18418
906.155	18338
906.272	18155
906.389	18190
906.506	18015
906.623	18102
906.74	18121
906.857	17813
906.974	17863
907.091	18148
907.208	18197
907.324	17950
907.441	17946
907.557	17714
907.674	17722
907.79	17691
907.907	17691
908.023	17920
908.139	17764
908.256	17729
908.372	17627
908.488	17638
908.604	17615
908.72	17421
908.836	17368
908.952	17490
909.068	17532
909.184	17611
909.3	17433
909.415	17448
909.531	17478
909.647	17258
909.762	17162
909.878	17067
909.993	17128
910.108	17140
910.224	17083
910.339	17151
910.454	16984
910.57	16976
910.685	16908
910.8	17193
910.915	17140
911.03	17029
911.145	16748
911.259	16786
911.374	16786
911.489	16824
911.604	16702
911.718	16470
911.833	16516
911.947	16481
912.062	16249
912.176	16428
912.291	16558
912.405	16402
912.519	16603
912.633	16596
912.748	16428
912.862	16489
912.976	16261
913.09	16253
913.204	16230
913.318	16272
913.431	16303
913.545	16337
913.659	16519
913.772	16234
913.886	16139
914	16082
914.113	16116
914.226	16211
914.34	16185
914.453	15895
914.566	16109
914.68	15926
914.793	15930
914.906	15648
915.019	15713
915.132	15675
915.245	15720
915.358	15743
915.47	15694
915.583	15701
915.696	15625
915.809	15755
915.921	15736
916.034	15580
916.146	15564
916.259	15462
916.371	15656
916.483	15542
916.595	15580
916.708	15473
916.82	15477
916.932	15488
917.044	15481
917.156	15447
917.268	15332
917.38	15279
917.491	15226
917.603	15287
917.715	15298
917.826	15393
917.938	15176
918.049	15211
918.161	15237
918.272	15287
918.384	15431
918.495	15184
918.606	15074
918.717	15039
918.828	15112
918.939	15089
919.05	15036
919.161	15043
919.272	14925
919.383	14842
919.494	15017
919.604	15302
919.715	14982
919.826	14960
919.936	15051
920.047	15028
920.157	15005
920.267	15233
920.378	15051
920.488	14963
920.598	15180
920.708	15317
920.818	15127
920.928	15047
921.038	15256
921.148	15416
921.258	14921
921.368	14785
921.477	14769
921.587	14632
921.697	14568
921.806	14746
921.916	14602
922.025	14423
922.134	14370
922.244	14381
922.353	14480
922.462	14206
922.571	14130
922.68	14043
922.789	14058
922.898	13928
923.007	13894
923.116	14012
923.224	13986
923.333	13986
923.442	13860
923.55	13780
923.659	13944
923.767	13936
923.876	13731
923.984	13795
924.092	13818
924.201	13780
924.309	13696
924.417	13757
924.525	13651
924.633	13681
924.741	14393
924.849	13502
924.956	13597
925.064	13407
925.172	13335
925.279	13331
925.387	13396
925.494	13460
925.602	13575
925.709	13487
925.816	13240
925.924	13350
926.031	13350
926.138	13206
926.245	13308
926.352	13179
926.459	13312
926.566	13415
926.673	13228
926.779	13213
926.886	13145
926.993	12932
927.099	13076
927.206	12878
927.312	12894
927.419	13004
927.525	12943
927.631	12947
927.737	12837
927.843	12753
927.95	12749
928.056	12700
928.162	12764
928.267	12802
928.373	13430
928.479	12837
928.585	12722
928.69	12768
928.796	12719
928.901	12544
929.007	12498
929.112	12642
929.218	12601
929.323	12490
929.428	12452
929.533	12597
929.638	12414
929.743	12334
929.848	12448
929.953	12391
930.058	12254
930.163	12159
930.267	12106
930.372	12254
930.477	12136
930.581	12342
930.685	12102
930.79	12053
930.894	11988
930.998	11950
931.103	12133
931.207	11817
931.311	11767
931.415	11657
931.519	11482
931.623	11349
