Data from test_V78500241_509.txt Node
Date: Fri Mar 25 15:45:19 CST 2022
User: usil
Spectrometer: V785-0024
Trigger mode: 0
Integration Time (sec): 4.000000E-1
Scans to average: 1
Nonlinearity correction enabled: false
Boxcar width: 0
Storing dark spectrum: false
XAxis mode: Wavelengths
Number of Pixels in Spectrum: 1024
>>>>>Begin Spectral Data<<<<<
801.071	27393
801.214	27321
801.356	26944
801.499	27024
801.641	26819
801.783	26868
801.926	26937
802.068	26883
802.211	26682
802.353	26621
802.496	26530
802.638	26556
802.78	26438
802.923	26446
803.065	26396
803.208	26412
803.35	26336
803.492	26469
803.635	26465
803.777	26545
803.919	26537
804.061	26914
804.204	26625
804.346	26522
804.488	26568
804.63	26678
804.773	26457
804.915	26587
805.057	26651
805.199	26606
805.341	26678
805.483	26617
805.626	26674
805.768	26545
805.91	26708
806.052	26777
806.194	26674
806.336	26880
806.478	26800
806.62	26648
806.762	26804
806.904	27009
807.046	27184
807.188	27085
807.33	27077
807.472	27116
807.614	27104
807.756	27013
807.898	26967
808.04	26807
808.182	26758
808.324	27005
808.465	26910
808.607	27184
808.749	27321
808.891	27370
809.033	27534
809.174	27408
809.316	27287
809.458	27397
809.6	27332
809.741	27443
809.883	27523
810.025	27652
810.166	27622
810.308	27580
810.45	27595
810.591	27447
810.733	27355
810.875	27230
811.016	27135
811.158	27207
811.299	27507
811.441	27294
811.582	27450
811.724	27203
811.865	27287
812.007	27207
812.148	27211
812.29	27382
812.431	27454
812.573	27675
812.714	27732
812.855	27827
812.997	27972
813.138	28147
813.279	27884
813.421	27895
813.562	27770
813.703	27701
813.845	27587
813.986	27279
814.127	27100
814.268	27096
814.41	27051
814.551	26876
814.692	27062
814.833	26979
814.974	26948
815.115	26948
815.256	26834
815.397	26819
815.539	26876
815.68	26769
815.821	26705
815.962	26765
816.103	26701
816.244	26556
816.385	26541
816.526	26674
816.666	26423
816.807	26164
816.948	26381
817.089	26434
817.23	26366
817.371	26347
817.512	26358
817.653	26214
817.793	26221
817.934	26168
818.075	26180
818.216	26282
818.356	26122
818.497	26024
818.638	26073
818.778	25989
818.919	25982
819.06	26069
819.2	26073
819.341	26191
819.481	26214
819.622	26221
819.762	26537
819.903	26465
820.043	26488
820.184	26503
820.324	26347
820.465	26358
820.605	26366
820.746	26301
820.886	26145
821.026	26263
821.167	26202
821.307	26469
821.447	26157
821.588	26138
821.728	26065
821.868	25959
822.008	25719
822.149	25662
822.289	25689
822.429	25460
822.569	25464
822.709	25400
822.849	25190
822.99	25137
823.13	25240
823.27	25072
823.41	24935
823.55	24928
823.69	25019
823.83	25129
823.97	24966
824.11	24875
824.25	24935
824.389	24825
824.529	24924
824.669	24852
824.809	24848
824.949	24897
825.089	24920
825.228	24787
825.368	24673
825.508	24582
825.648	24779
825.787	24719
825.927	24829
826.067	24620
826.206	24623
826.346	24650
826.485	24627
826.625	24589
826.765	24654
826.904	24593
827.044	24570
827.183	24445
827.323	24285
827.462	24414
827.601	24304
827.741	24308
827.88	24464
828.02	24205
828.159	24296
828.298	24391
828.437	24372
828.577	24388
828.716	24517
828.855	24327
828.994	24015
829.134	24030
829.273	24057
829.412	24152
829.551	24072
829.69	23977
829.829	24007
829.968	23939
830.107	24144
830.246	24091
830.385	24083
830.524	24007
830.663	23851
830.802	23653
830.941	23741
831.08	23707
831.219	23764
831.357	23707
831.496	23946
831.635	23684
831.774	23570
831.913	23452
832.051	23497
832.19	23520
832.329	23402
832.467	23318
832.606	23341
832.744	23414
832.883	23410
833.022	23159
833.16	23414
833.299	23239
833.437	23387
833.576	23391
833.714	23562
833.852	23429
833.991	23493
834.129	23478
834.267	23501
834.406	23341
834.544	23516
834.682	23501
834.821	23402
834.959	23505
835.097	23303
835.235	23433
835.373	23307
835.511	23376
835.65	23280
835.788	23235
835.926	23056
836.064	23006
836.202	23090
836.34	23311
836.478	23364
836.615	23288
836.753	23356
836.891	23356
837.029	23151
837.167	23223
837.305	23178
837.443	23136
837.58	23071
837.718	23136
837.856	23018
837.993	23102
838.131	23098
838.269	22938
838.406	22858
838.544	22965
838.681	22634
838.819	22706
838.956	22691
839.094	22599
839.231	22653
839.369	22653
839.506	22949
839.643	22687
839.781	22588
839.918	22474
840.055	22622
840.193	22535
840.33	22588
840.467	22561
840.604	22527
840.742	22835
840.879	22432
841.016	22451
841.153	22485
841.29	22599
841.427	22432
841.564	22443
841.701	22462
841.838	22447
841.975	22363
842.112	22379
842.249	22284
842.385	22303
842.522	22516
842.659	22310
842.796	22234
842.933	22276
843.069	22177
843.206	22226
843.343	22337
843.479	22200
843.616	22166
843.752	22025
843.889	22010
844.025	22093
844.162	21907
844.298	22070
844.435	22078
844.571	21972
844.708	21975
844.844	22131
844.98	22067
845.117	22048
845.253	22021
845.389	21838
845.525	21926
845.661	21903
845.798	21747
845.934	21762
846.07	21717
846.206	21812
846.342	21949
846.478	21747
846.614	21515
846.75	21454
846.886	21473
847.022	21488
847.158	21492
847.294	21511
847.429	21466
847.565	21450
847.701	21656
847.837	21237
847.972	21275
848.108	21260
848.244	21233
848.379	21199
848.515	21024
848.65	21020
848.786	21131
848.921	20994
849.057	20994
849.192	21142
849.328	21180
849.463	21108
849.598	21070
849.734	21024
849.869	21028
850.004	20925
850.14	20864
850.275	20796
850.41	20762
850.545	20758
850.68	20921
850.815	20807
850.95	20834
851.085	21009
851.22	20967
851.355	20807
851.49	20941
851.625	20826
851.76	20743
851.895	20716
852.03	20712
852.165	20887
852.299	20921
852.434	20910
852.569	20853
852.703	20781
852.838	21017
852.973	20994
853.107	20990
853.242	20804
853.376	20727
853.511	20514
853.645	20503
853.78	20845
853.914	20636
854.048	20682
854.183	20579
854.317	20735
854.451	20830
854.585	20632
854.72	20697
854.854	20807
854.988	20617
855.122	20659
855.256	20571
855.39	20659
855.524	20625
855.658	20785
855.792	20743
855.926	20655
856.06	20769
856.194	20750
856.327	20762
856.461	20670
856.595	20575
856.729	20712
856.862	20720
856.996	20583
857.13	20674
857.263	20811
857.397	20765
857.53	20644
857.664	20769
857.797	20834
857.931	20716
858.064	20708
858.197	20864
858.331	20602
858.464	20583
858.597	20587
858.731	20739
858.864	20476
858.997	20568
859.13	20560
859.263	20697
859.396	20807
859.529	20621
859.662	20632
859.795	20499
859.928	20705
860.061	20724
860.194	20807
860.327	20667
860.46	20689
860.592	20765
860.725	20891
860.858	20796
860.99	20686
861.123	20663
861.256	20587
861.388	20655
861.521	21207
861.653	20560
861.786	20480
861.918	20587
862.05	20560
862.183	20564
862.315	20537
862.447	20689
862.58	20625
862.712	20469
862.844	20374
862.976	20438
863.108	20473
863.24	20902
863.372	20248
863.504	20393
863.636	20377
863.768	20575
863.9	20461
864.032	20233
864.164	20423
864.296	20259
864.428	20476
864.559	20400
864.691	20412
864.823	20275
864.954	20358
865.086	20305
865.217	20282
865.349	20202
865.48	20248
865.612	20347
865.743	20431
865.875	20351
866.006	20259
866.137	20358
866.269	20343
866.4	20267
866.531	20275
866.662	20305
866.793	20221
866.924	20298
867.055	20339
867.186	20282
867.317	20092
867.448	20126
867.579	20256
867.71	20100
867.841	20142
867.972	20252
868.103	20229
868.233	20187
868.364	20301
868.495	20221
868.625	20408
868.756	20545
868.886	20377
869.017	20457
869.147	20507
869.278	20495
869.408	20499
869.539	20461
869.669	20499
869.799	20533
869.929	20571
870.06	20587
870.19	20807
870.32	20678
870.45	20834
870.58	20868
870.71	21039
870.84	21013
870.97	20849
871.1	20777
871.23	21127
871.36	21066
871.489	21028
871.619	21062
871.749	21028
871.879	21013
872.008	21291
872.138	21203
872.267	21173
872.397	20941
872.526	20902
872.656	20853
872.785	20868
872.915	21184
873.044	21188
873.173	21020
873.303	21184
873.432	21127
873.561	21108
873.69	21104
873.819	21036
873.948	21188
874.077	21127
874.206	21116
874.335	21127
874.464	21180
874.593	21287
874.722	21313
874.851	21351
874.979	21363
875.108	21462
875.237	21332
875.365	21317
875.494	21332
875.623	21424
875.751	21313
875.88	21412
876.008	21488
876.136	21504
876.265	21778
876.393	21888
876.521	21861
876.65	21846
876.778	21614
876.906	21648
877.034	21591
877.162	21553
877.29	21618
877.418	21747
877.546	21648
877.674	21732
877.802	21713
877.93	21641
878.058	21671
878.185	21564
878.313	21701
878.441	21568
878.568	21583
878.696	21679
878.824	21816
878.951	21823
879.079	21846
879.206	21937
879.333	21888
879.461	21614
879.588	21732
879.715	21922
879.842	21937
879.97	21778
880.097	21462
880.224	21583
880.351	21561
880.478	21564
880.605	21481
880.732	21500
880.859	21717
880.986	21572
881.112	21572
881.239	21447
881.366	21237
881.493	21211
881.619	21142
881.746	21104
881.872	21108
881.999	20963
882.125	21039
882.252	21161
882.378	21062
882.505	21272
882.631	20963
882.757	20849
882.883	20902
883.01	20826
883.136	20625
883.262	20720
883.388	20629
883.514	20956
883.64	20750
883.766	20651
883.892	20590
884.018	20598
884.143	20743
884.269	20765
884.395	20545
884.52	20526
884.646	20351
884.772	20396
884.897	20313
885.023	20473
885.148	20492
885.274	20556
885.399	20541
885.524	20434
885.65	20545
885.775	20629
885.9	20438
886.025	20564
886.15	20571
886.275	20298
886.4	20366
886.525	20366
886.65	20324
886.775	20415
886.9	20476
887.025	20667
887.149	20370
887.274	20362
887.399	20240
887.523	20153
887.648	20229
887.773	20172
887.897	20259
888.021	20248
888.146	20252
888.27	20328
888.395	20320
888.519	20339
888.643	20305
888.767	20210
888.891	20138
889.015	20020
889.139	20168
889.263	19982
889.387	20176
889.511	20244
889.635	20130
889.759	19928
889.883	20005
890.006	19997
890.13	20130
890.254	19997
890.377	19909
890.501	19738
890.624	19837
890.748	19940
890.871	19662
890.995	19647
891.118	19495
891.241	19590
891.364	19616
891.488	19788
891.611	19632
891.734	19567
891.857	19689
891.98	19624
892.103	19609
892.226	19609
892.349	19632
892.471	19415
892.594	19613
892.717	19586
892.839	19521
892.962	19533
893.085	19514
893.207	19537
893.33	19422
893.452	19396
893.575	19464
893.697	19533
893.819	19734
893.941	19814
894.064	19635
894.186	19556
894.308	19354
894.43	19632
894.552	19719
894.674	19578
894.796	19388
894.918	19483
895.04	19597
895.161	19624
895.283	19578
895.405	19518
895.526	19533
895.648	19559
895.769	19491
895.891	19590
896.012	19696
896.134	19620
896.255	19510
896.376	19415
896.498	19563
896.619	19480
896.74	19457
896.861	19662
896.982	19868
897.103	19963
897.224	19871
897.345	19753
897.466	19704
897.587	19814
897.708	19898
897.828	19799
897.949	19746
898.07	19628
898.19	19685
898.311	19917
898.431	19708
898.552	19700
898.672	19875
898.792	19849
898.913	19909
899.033	19693
899.153	19613
899.273	19537
899.393	19533
899.513	19586
899.633	19556
899.753	19506
899.873	19559
899.993	19567
900.113	19499
900.232	19521
900.352	19453
900.472	19369
900.591	19324
900.711	19384
900.83	19202
900.95	19491
901.069	19327
901.189	19202
901.308	18943
901.427	18905
901.546	18909
901.665	18947
901.784	18981
901.904	18802
902.023	18589
902.141	18528
902.26	18441
902.379	18559
902.498	18353
902.617	18437
902.735	18448
902.854	18433
902.973	18407
903.091	18213
903.21	18068
903.328	18057
903.446	18087
903.565	18026
903.683	17840
903.801	17813
903.919	17904
904.038	17786
904.156	17729
904.274	17840
904.392	17649
904.51	17729
904.627	17707
904.745	17786
904.863	17703
904.981	17467
905.098	17326
905.216	17429
905.334	17364
905.451	17387
905.569	17334
905.686	17444
905.803	17288
905.921	17254
906.038	17220
906.155	17197
906.272	17159
906.389	17102
906.506	16915
906.623	16904
906.74	16858
906.857	16805
906.974	16858
907.091	17037
907.208	16984
907.324	16850
907.441	16873
907.557	16660
907.674	16603
907.79	16535
907.907	16550
908.023	16603
908.139	16687
908.256	16436
908.372	16550
908.488	16470
908.604	16440
908.72	16306
908.836	16443
908.952	16344
909.068	16356
909.184	16440
909.3	16375
909.415	16432
909.531	16421
909.647	16158
909.762	15994
909.878	16040
909.993	15994
910.108	16082
910.224	15975
910.339	15975
910.454	15960
910.57	15960
910.685	15743
910.8	16036
910.915	16048
911.03	15857
911.145	15587
911.259	15732
911.374	15679
911.489	15507
911.604	15557
911.718	15462
911.833	15348
911.947	15279
912.062	15256
912.176	15542
912.291	15447
912.405	15378
912.519	15511
912.633	15545
912.748	15420
912.862	15447
912.976	15279
913.09	15051
913.204	15093
913.318	15233
913.431	15313
913.545	15207
913.659	15325
913.772	15184
913.886	15093
914	15024
914.113	15123
914.226	15184
914.34	15089
914.453	14891
914.566	15085
914.68	14921
914.793	14921
914.906	14720
915.019	14724
915.132	14526
915.245	14648
915.358	14750
915.47	14598
915.583	14579
915.696	14640
915.809	14788
915.921	14773
916.034	14602
916.146	14564
916.259	14564
916.371	14705
916.483	14651
916.595	14492
916.708	14533
916.82	14522
916.932	14446
917.044	14442
917.156	14480
917.268	14298
917.38	14358
917.491	14404
917.603	14317
917.715	14400
917.826	14423
917.938	14267
918.049	14153
918.161	14313
918.272	14434
918.384	14362
918.495	14309
918.606	14115
918.717	14020
918.828	14111
918.939	14024
919.05	14084
919.161	14027
919.272	13940
919.383	13967
919.494	14183
919.604	14259
919.715	14096
919.826	14043
919.936	13986
920.047	14115
920.157	14046
920.267	14256
920.378	14103
920.488	14069
920.598	14248
920.708	14419
920.818	14172
920.928	14183
921.038	14396
921.148	14408
921.258	14130
921.368	13982
921.477	13860
921.587	13830
921.697	13727
921.806	13841
921.916	13727
922.025	13518
922.134	13464
922.244	13476
922.353	13563
922.462	13415
922.571	13251
922.68	13133
922.789	13114
922.898	13175
923.007	13095
923.116	13145
923.224	13107
923.333	13023
923.442	13038
923.55	12996
923.659	12932
923.767	13023
923.876	12875
923.984	12947
924.092	12878
924.201	12875
924.309	12875
924.417	12859
924.525	12711
924.633	12817
924.741	13510
924.849	12547
924.956	12703
925.064	12544
925.172	12509
925.279	12547
925.387	12574
925.494	12677
925.602	12650
925.709	12631
925.816	12448
925.924	12460
926.031	12601
926.138	12540
926.245	12570
926.352	12384
926.459	12570
926.566	12593
926.673	12399
926.779	12266
926.886	12281
926.993	12220
927.099	12133
927.206	12087
927.312	12019
927.419	12110
927.525	12155
927.631	12190
927.737	12015
927.843	11969
927.95	11912
928.056	11942
928.162	12007
928.267	11965
928.373	12623
928.479	12079
928.585	11908
928.69	11961
928.796	11977
928.901	11843
929.007	11703
929.112	11805
929.218	11851
929.323	11684
929.428	11672
929.533	11847
929.638	11646
929.743	11684
929.848	11775
929.953	11657
930.058	11646
930.163	11364
930.267	11474
930.372	11592
930.477	11353
930.581	11619
930.685	11497
930.79	11311
930.894	11307
930.998	11315
931.103	11429
931.207	11094
931.311	10984
931.415	10889
931.519	10714
931.623	10679
