Data from test_V78500241_2160.txt Node
Date: Fri Mar 25 15:56:45 CST 2022
User: usil
Spectrometer: V785-0024
Trigger mode: 0
Integration Time (sec): 4.000000E-1
Scans to average: 1
Nonlinearity correction enabled: false
Boxcar width: 0
Storing dark spectrum: false
XAxis mode: Wavelengths
Number of Pixels in Spectrum: 1024
>>>>>Begin Spectral Data<<<<<
801.071	28862
801.214	28869
801.356	28527
801.499	28592
801.641	28306
801.783	28352
801.926	28470
802.068	28394
802.211	28413
802.353	28318
802.496	28101
802.638	28158
802.78	28169
802.923	28128
803.065	27991
803.208	28029
803.35	28120
803.492	28249
803.635	28215
803.777	28249
803.919	28352
804.061	28622
804.204	28519
804.346	28284
804.488	28310
804.63	28318
804.773	28242
804.915	28451
805.057	28542
805.199	28413
805.341	28645
805.483	28565
805.626	28634
805.768	28561
805.91	28596
806.052	28516
806.194	28504
806.336	28683
806.478	28424
806.62	28641
806.762	28797
806.904	28725
807.046	28972
807.188	28892
807.33	28995
807.472	28919
807.614	28904
807.756	28885
807.898	28786
808.04	28847
808.182	28881
808.324	28793
808.465	28774
808.607	29204
808.749	29345
808.891	29288
809.033	29410
809.174	29284
809.316	29239
809.458	29181
809.6	29189
809.741	29364
809.883	29368
810.025	29535
810.166	29638
810.308	29516
810.45	29410
810.591	29379
810.733	29284
810.875	29311
811.016	29254
811.158	29181
811.299	29429
811.441	29353
811.582	29368
811.724	29231
811.865	29212
812.007	29170
812.148	29265
812.29	29318
812.431	29356
812.573	29543
812.714	29562
812.855	29710
812.997	29977
813.138	29973
813.279	29859
813.421	29794
813.562	29790
813.703	29615
813.845	29440
813.986	29128
814.127	29140
814.268	28919
814.41	28976
814.551	29014
814.692	29117
814.833	28927
814.974	29003
815.115	29041
815.256	28881
815.397	28656
815.539	28801
815.68	28831
815.821	28801
815.962	28771
816.103	28641
816.244	28698
816.385	28474
816.526	28546
816.666	28382
816.807	28196
816.948	28329
817.089	28360
817.23	28268
817.371	28219
817.512	28291
817.653	28287
817.793	28181
817.934	28226
818.075	28276
818.216	28348
818.356	28166
818.497	28143
818.638	27914
818.778	28059
818.919	28063
819.06	28059
819.2	28147
819.341	28268
819.481	28204
819.622	28371
819.762	28611
819.903	28550
820.043	28523
820.184	28516
820.324	28432
820.465	28451
820.605	28299
820.746	28443
820.886	28265
821.026	28226
821.167	28185
821.307	28421
821.447	28287
821.588	28147
821.728	27975
821.868	27918
822.008	27709
822.149	27743
822.289	27622
822.429	27545
822.569	27363
822.709	27408
822.849	27222
822.99	27268
823.13	27348
823.27	27230
823.41	27051
823.55	27043
823.69	27062
823.83	27039
823.97	26937
824.11	26929
824.25	26849
824.389	26960
824.529	27039
824.669	26937
824.809	27036
824.949	27020
825.089	26994
825.228	26933
825.368	26796
825.508	26712
825.648	26910
825.787	26788
825.927	26857
826.067	26594
826.206	26769
826.346	26731
826.485	26811
826.625	26693
826.765	26785
826.904	26845
827.044	26602
827.183	26545
827.323	26427
827.462	26644
827.601	26427
827.741	26366
827.88	26495
828.02	26404
828.159	26442
828.298	26492
828.437	26587
828.577	26332
828.716	26594
828.855	26385
828.994	26233
829.134	26164
829.273	26271
829.412	26237
829.551	26081
829.69	26142
829.829	26107
829.968	26180
830.107	26142
830.246	26111
830.385	26081
830.524	26081
830.663	25947
830.802	25966
830.941	25712
831.08	25799
831.219	25890
831.357	25746
831.496	25921
831.635	25826
831.774	25567
831.913	25700
832.051	25624
832.19	25578
832.329	25662
832.467	25586
832.606	25381
832.744	25335
832.883	25457
833.022	25422
833.16	25434
833.299	25464
833.437	25506
833.576	25422
833.714	25483
833.852	25502
833.991	25479
834.129	25533
834.267	25624
834.406	25514
834.544	25518
834.682	25487
834.821	25590
834.959	25685
835.097	25495
835.235	25578
835.373	25525
835.511	25403
835.65	25297
835.788	25343
835.926	25145
836.064	25050
836.202	25118
836.34	25350
836.478	25510
836.615	25274
836.753	25251
836.891	25403
837.029	25327
837.167	25247
837.305	25350
837.443	25251
837.58	25133
837.718	25103
837.856	25228
837.993	24996
838.131	25129
838.269	25133
838.406	25050
838.544	24989
838.681	24806
838.819	24768
838.956	24517
839.094	24604
839.231	24700
839.369	24760
839.506	24943
839.643	24825
839.781	24627
839.918	24654
840.055	24464
840.193	24486
840.33	24486
840.467	24460
840.604	24604
840.742	24764
840.879	24471
841.016	24517
841.153	24616
841.29	24521
841.427	24498
841.564	24604
841.701	24509
841.838	24407
841.975	24384
842.112	24388
842.249	24235
842.385	24239
842.522	24437
842.659	24262
842.796	24262
842.933	24323
843.069	24144
843.206	24155
843.343	24388
843.479	24216
843.616	24251
843.752	24049
843.889	24079
844.025	24296
844.162	24034
844.298	24007
844.435	24045
844.571	23904
844.708	24003
844.844	24182
844.98	24163
845.117	24159
845.253	23828
845.389	23935
845.525	23901
845.661	23802
845.798	23699
845.934	23767
846.07	23771
846.206	23828
846.342	23847
846.478	23737
846.614	23608
846.75	23486
846.886	23440
847.022	23608
847.158	23642
847.294	23554
847.429	23501
847.565	23467
847.701	23653
847.837	23216
847.972	23170
848.108	23280
848.244	23303
848.379	23239
848.515	23056
848.65	22999
848.786	23197
848.921	23067
849.057	23216
849.192	23170
849.328	23071
849.463	22991
849.598	23041
849.734	22942
849.869	22820
850.004	22923
850.14	22801
850.275	22889
850.41	22725
850.545	22790
850.68	22774
850.815	22786
850.95	22961
851.085	22991
851.22	22896
851.355	22797
851.49	22869
851.625	22755
851.76	22828
851.895	22725
852.03	22839
852.165	22778
852.299	22793
852.434	22987
852.569	22919
852.703	22881
852.838	22881
852.973	23025
853.107	22911
853.242	22729
853.376	22615
853.511	22512
853.645	22615
853.78	22725
853.914	22649
854.048	22706
854.183	22596
854.317	22626
854.451	22820
854.585	22573
854.72	22660
854.854	22672
854.988	22519
855.122	22626
855.256	22428
855.39	22596
855.524	22740
855.658	22710
855.792	22691
855.926	22687
856.06	22626
856.194	22816
856.327	22752
856.461	22512
856.595	22580
856.729	22710
856.862	22820
856.996	22607
857.13	22706
857.263	22812
857.397	22786
857.53	22668
857.664	22618
857.797	22626
857.931	22691
858.064	22698
858.197	22767
858.331	22691
858.464	22634
858.597	22459
858.731	22656
858.864	22687
858.997	22580
859.13	22790
859.263	22649
859.396	22691
859.529	22554
859.662	22649
859.795	22603
859.928	22584
860.061	22755
860.194	22835
860.327	22767
860.46	22679
860.592	22812
860.725	22786
860.858	22793
860.99	22618
861.123	22535
861.256	22523
861.388	22729
861.521	23364
861.653	22466
861.786	22440
861.918	22493
862.05	22497
862.183	22561
862.315	22675
862.447	22565
862.58	22531
862.712	22352
862.844	22287
862.976	22451
863.108	22474
863.24	22873
863.372	22398
863.504	22337
863.636	22474
863.768	22352
863.9	22367
864.032	22352
864.164	22272
864.296	22405
864.428	22527
864.559	22470
864.691	22405
864.823	22428
864.954	22356
865.086	22249
865.217	22219
865.349	22242
865.48	22276
865.612	22276
865.743	22322
865.875	22249
866.006	22135
866.137	22295
866.269	22116
866.4	22128
866.531	22131
866.662	22143
866.793	22162
866.924	22211
867.055	22299
867.186	22207
867.317	22196
867.448	22105
867.579	22166
867.71	22101
867.841	21956
867.972	22246
868.103	22150
868.233	22169
868.364	22074
868.495	22318
868.625	22405
868.756	22459
868.886	22348
869.017	22379
869.147	22523
869.278	22466
869.408	22531
869.539	22375
869.669	22592
869.799	22462
869.929	22580
870.06	22470
870.19	22694
870.32	22744
870.45	22797
870.58	22869
870.71	22980
870.84	22965
870.97	22774
871.1	22736
871.23	22949
871.36	22908
871.489	22881
871.619	23003
871.749	23067
871.879	23018
872.008	23159
872.138	23083
872.267	22987
872.397	22881
872.526	22862
872.656	22869
872.785	22923
872.915	23037
873.044	23102
873.173	23071
873.303	23105
873.432	23079
873.561	23090
873.69	23014
873.819	22987
873.948	23109
874.077	23075
874.206	22953
874.335	22972
874.464	23136
874.593	23231
874.722	23193
874.851	23284
874.979	23254
875.108	23212
875.237	23105
875.365	23056
875.494	23227
875.623	23334
875.751	23159
875.88	23246
876.008	23307
876.136	23406
876.265	23581
876.393	23676
876.521	23661
876.65	23687
876.778	23699
876.906	23463
877.034	23600
877.162	23486
877.29	23524
877.418	23528
877.546	23562
877.674	23497
877.802	23524
877.93	23471
878.058	23558
878.185	23379
878.313	23611
878.441	23459
878.568	23436
878.696	23551
878.824	23570
878.951	23691
879.079	23741
879.206	23786
879.333	23615
879.461	23566
879.588	23703
879.715	23843
879.842	23824
879.97	23474
880.097	23299
880.224	23356
880.351	23459
880.478	23429
880.605	23436
880.732	23318
880.859	23543
880.986	23402
881.112	23425
881.239	23189
881.366	23220
881.493	23033
881.619	22991
881.746	22892
881.872	22911
881.999	22968
882.125	22919
882.252	23052
882.378	23018
882.505	23071
882.631	22790
882.757	22721
882.883	22793
883.01	22653
883.136	22550
883.262	22516
883.388	22424
883.514	22656
883.64	22573
883.766	22512
883.892	22409
884.018	22443
884.143	22527
884.269	22569
884.395	22455
884.52	22299
884.646	22169
884.772	22173
884.897	22059
885.023	22230
885.148	22379
885.274	22337
885.399	22226
885.524	22280
885.65	22265
885.775	22261
885.9	22131
886.025	22367
886.15	22261
886.275	22261
886.4	22192
886.525	22185
886.65	22090
886.775	22090
886.9	22481
887.025	22481
887.149	22223
887.274	22139
887.399	22051
887.523	21911
887.648	21998
887.773	21915
887.897	22112
888.021	21949
888.146	21789
888.27	22086
888.395	22124
888.519	22010
888.643	22067
888.767	21975
888.891	21930
889.015	21827
889.139	21823
889.263	21759
889.387	21876
889.511	21937
889.635	21895
889.759	21759
889.883	21804
890.006	21808
890.13	21865
890.254	21713
890.377	21781
890.501	21652
890.624	21572
890.748	21538
890.871	21424
890.995	21397
891.118	21249
891.241	21397
891.364	21336
891.488	21462
891.611	21408
891.734	21272
891.857	21367
891.98	21264
892.103	21378
892.226	21313
892.349	21184
892.471	21081
892.594	21226
892.717	21241
892.839	21214
892.962	21256
893.085	21310
893.207	21268
893.33	21108
893.452	21192
893.575	21230
893.697	21192
893.819	21401
893.941	21374
894.064	21431
894.186	21150
894.308	21043
894.43	21264
894.552	21283
894.674	21332
894.796	21192
894.918	21211
895.04	21169
895.161	21405
895.283	21226
895.405	21074
895.526	21146
895.648	21150
895.769	21310
895.891	21252
896.012	21306
896.134	21245
896.255	21154
896.376	21093
896.498	21176
896.619	21237
896.74	21226
896.861	21169
896.982	21504
897.103	21564
897.224	21492
897.345	21408
897.466	21420
897.587	21469
897.708	21473
897.828	21557
897.949	21454
898.07	21207
898.19	21214
898.311	21408
898.431	21287
898.552	21507
898.672	21511
898.792	21450
898.913	21355
899.033	21332
899.153	21142
899.273	21100
899.393	21043
899.513	21283
899.633	21074
899.753	21100
899.873	21100
899.993	21108
900.113	21036
900.232	21089
900.352	20944
900.472	20929
900.591	20963
900.711	21005
900.83	20857
900.95	20925
901.069	20925
901.189	20731
901.308	20549
901.427	20450
901.546	20450
901.665	20537
901.784	20473
901.904	20320
902.023	20225
902.141	20107
902.26	20069
902.379	20153
902.498	19890
902.617	19970
902.735	19993
902.854	19951
902.973	19928
903.091	19719
903.21	19655
903.328	19540
903.446	19472
903.565	19563
903.683	19480
903.801	19282
903.919	19407
904.038	19362
904.156	19209
904.274	19278
904.392	19175
904.51	19183
904.627	19156
904.745	19171
904.863	19179
904.981	18935
905.098	18768
905.216	18878
905.334	18787
905.451	18829
905.569	18806
905.686	18859
905.803	18730
905.921	18559
906.038	18620
906.155	18684
906.272	18437
906.389	18483
906.506	18384
906.623	18399
906.74	18361
906.857	18262
906.974	18186
907.091	18433
907.208	18376
907.324	18330
907.441	18232
907.557	18083
907.674	18095
907.79	17988
907.907	18076
908.023	18152
908.139	18003
908.256	18110
908.372	17946
908.488	17885
908.604	17764
908.72	17809
908.836	17824
908.952	17710
909.068	17824
909.184	17965
909.3	17828
909.415	17824
909.531	17851
909.647	17600
909.762	17516
909.878	17471
909.993	17509
910.108	17573
910.224	17387
910.339	17493
910.454	17334
910.57	17330
910.685	17231
910.8	17505
910.915	17376
911.03	17185
911.145	17098
911.259	17075
911.374	17079
911.489	17079
911.604	16835
911.718	16763
911.833	16702
911.947	16698
912.062	16656
912.176	16831
912.291	16801
912.405	16847
912.519	16938
912.633	16904
912.748	16812
912.862	16752
912.976	16588
913.09	16485
913.204	16500
913.318	16660
913.431	16630
913.545	16538
913.659	16721
913.772	16546
913.886	16375
914	16360
914.113	16504
914.226	16443
914.34	16497
914.453	16280
914.566	16417
914.68	16306
914.793	16173
914.906	15968
915.019	16017
915.132	15846
915.245	15884
915.358	15945
915.47	16036
915.583	15907
915.696	15941
915.809	16048
915.921	16029
916.034	15915
916.146	15835
916.259	15903
916.371	15835
916.483	15865
916.595	15698
916.708	15774
916.82	15736
916.932	15736
917.044	15701
917.156	15679
917.268	15576
917.38	15709
917.491	15591
917.603	15614
917.715	15690
917.826	15675
917.938	15591
918.049	15351
918.161	15549
918.272	15572
918.384	15663
918.495	15477
918.606	15340
918.717	15287
918.828	15412
918.939	15443
919.05	15184
919.161	15397
919.272	15097
919.383	15230
919.494	15370
919.604	15534
919.715	15291
919.826	15157
919.936	15249
920.047	15325
920.157	15203
920.267	15374
920.378	15241
920.488	15317
920.598	15389
920.708	15515
920.818	15393
920.928	15298
921.038	15542
921.148	15469
921.258	15127
921.368	15093
921.477	14971
921.587	14891
921.697	14902
921.806	15047
921.916	14944
922.025	14659
922.134	14579
922.244	14461
922.353	14636
922.462	14465
922.571	14400
922.68	14343
922.789	14248
922.898	14286
923.007	14199
923.116	14305
923.224	14252
923.333	14210
923.442	14081
923.55	14126
923.659	14020
923.767	14237
923.876	14005
923.984	14069
924.092	14024
924.201	13989
924.309	14005
924.417	13951
924.525	13936
924.633	13944
924.741	14720
924.849	13738
924.956	13807
925.064	13658
925.172	13628
925.279	13597
925.387	13666
925.494	13594
925.602	13750
925.709	13628
925.816	13514
925.924	13571
926.031	13582
926.138	13582
926.245	13609
926.352	13415
926.459	13609
926.566	13575
926.673	13506
926.779	13392
926.886	13358
926.993	13168
927.099	13152
927.206	13228
927.312	13175
927.419	13133
927.525	13171
927.631	13175
927.737	13065
927.843	13019
927.95	12939
928.056	12993
928.162	12996
928.267	13050
928.373	13643
928.479	13091
928.585	12757
928.69	12993
928.796	12920
928.901	12829
929.007	12707
929.112	12707
929.218	12734
929.323	12719
929.428	12707
929.533	12825
929.638	12646
929.743	12650
929.848	12654
929.953	12650
930.058	12448
930.163	12308
930.267	12403
930.372	12597
930.477	12365
930.581	12471
930.685	12426
930.79	12262
930.894	12239
930.998	12167
931.103	12365
931.207	11942
931.311	11897
931.415	11824
931.519	11600
931.623	11551
