Data from test_V78500241_739.txt Node
Date: Fri Mar 25 15:46:55 CST 2022
User: usil
Spectrometer: V785-0024
Trigger mode: 0
Integration Time (sec): 4.000000E-1
Scans to average: 1
Nonlinearity correction enabled: false
Boxcar width: 0
Storing dark spectrum: false
XAxis mode: Wavelengths
Number of Pixels in Spectrum: 1024
>>>>>Begin Spectral Data<<<<<
801.071	28059
801.214	28002
801.356	27709
801.499	27629
801.641	27648
801.783	27629
801.926	27682
802.068	27686
802.211	27564
802.353	27427
802.496	27329
802.638	27192
802.78	27260
802.923	27207
803.065	27207
803.208	27306
803.35	27348
803.492	27317
803.635	27496
803.777	27439
803.919	27496
804.061	27797
804.204	27507
804.346	27279
804.488	27397
804.63	27393
804.773	27252
804.915	27603
805.057	27599
805.199	27466
805.341	27568
805.483	27671
805.626	27534
805.768	27515
805.91	27500
806.052	27633
806.194	27580
806.336	27747
806.478	27698
806.62	27572
806.762	27614
806.904	27941
807.046	28105
807.188	28040
807.33	28002
807.472	27968
807.614	28029
807.756	28036
807.898	27930
808.04	27827
808.182	27975
808.324	27907
808.465	27975
808.607	28105
808.749	28093
808.891	28417
809.033	28424
809.174	28451
809.316	28405
809.458	28303
809.6	28272
809.741	28413
809.883	28417
810.025	28733
810.166	28557
810.308	28577
810.45	28546
810.591	28588
810.733	28105
810.875	28112
811.016	28204
811.158	28219
811.299	28421
811.441	28401
811.582	28363
811.724	28322
811.865	28421
812.007	28295
812.148	28382
812.29	28405
812.431	28519
812.573	28721
812.714	28637
812.855	28729
812.997	28805
813.138	29003
813.279	28972
813.421	28850
813.562	28904
813.703	28664
813.845	28599
813.986	28276
814.127	27998
814.268	28055
814.41	28021
814.551	28040
814.692	28135
814.833	27975
814.974	28051
815.115	27998
815.256	27911
815.397	27899
815.539	27880
815.68	27888
815.821	27713
815.962	27930
816.103	27743
816.244	27629
816.385	27481
816.526	27500
816.666	27302
816.807	27310
816.948	27329
817.089	27370
817.23	27420
817.371	27199
817.512	27184
817.653	27169
817.793	27226
817.934	27161
818.075	27389
818.216	27374
818.356	27256
818.497	27119
818.638	27108
818.778	27055
818.919	27116
819.06	27104
819.2	27070
819.341	27351
819.481	27226
819.622	27526
819.762	27641
819.903	27534
820.043	27405
820.184	27435
820.324	27405
820.465	27523
820.605	27454
820.746	27462
820.886	27199
821.026	27344
821.167	27260
821.307	27401
821.447	27393
821.588	27230
821.728	27081
821.868	27077
822.008	26682
822.149	26834
822.289	26674
822.429	26560
822.569	26476
822.709	26427
822.849	26225
822.99	26210
823.13	26115
823.27	26313
823.41	26183
823.55	26020
823.69	26103
823.83	26008
823.97	26058
824.11	25799
824.25	25868
824.389	26008
824.529	26005
824.669	25902
824.809	26012
824.949	25936
825.089	26058
825.228	25947
825.368	25894
825.508	25761
825.648	25841
825.787	25932
825.927	25913
826.067	25830
826.206	25731
826.346	25841
826.485	25852
826.625	25841
826.765	25925
826.904	25833
827.044	25457
827.183	25613
827.323	25563
827.462	25552
827.601	25499
827.741	25479
827.88	25582
828.02	25472
828.159	25403
828.298	25559
828.437	25533
828.577	25460
828.716	25540
828.855	25468
828.994	25251
829.134	25175
829.273	25152
829.412	25297
829.551	25118
829.69	25225
829.829	25137
829.968	25426
830.107	25228
830.246	25301
830.385	25156
830.524	25110
830.663	25004
830.802	24901
830.941	24837
831.08	24703
831.219	24852
831.357	24829
831.496	24996
831.635	24677
831.774	24920
831.913	24703
832.051	24620
832.19	24703
832.329	24525
832.467	24422
832.606	24464
832.744	24407
832.883	24456
833.022	24460
833.16	24467
833.299	24494
833.437	24429
833.576	24467
833.714	24540
833.852	24505
833.991	24426
834.129	24589
834.267	24673
834.406	24498
834.544	24646
834.682	24559
834.821	24582
834.959	24547
835.097	24490
835.235	24665
835.373	24582
835.511	24422
835.65	24350
835.788	24330
835.926	24258
836.064	24117
836.202	24224
836.34	24391
836.478	24517
836.615	24232
836.753	24353
836.891	24582
837.029	24308
837.167	24327
837.305	24308
837.443	24235
837.58	24194
837.718	24224
837.856	24209
837.993	24174
838.131	24201
838.269	24041
838.406	24186
838.544	23992
838.681	23790
838.819	23912
838.956	23668
839.094	23665
839.231	23771
839.369	23809
839.506	24133
839.643	23954
839.781	23718
839.918	23642
840.055	23661
840.193	23665
840.33	23634
840.467	23589
840.604	23794
840.742	23843
840.879	23562
841.016	23482
841.153	23478
841.29	23718
841.427	23684
841.564	23634
841.701	23608
841.838	23535
841.975	23554
842.112	23463
842.249	23436
842.385	23193
842.522	23543
842.659	23429
842.796	23440
842.933	23315
843.069	23299
843.206	23322
843.343	23433
843.479	23303
843.616	23402
843.752	23159
843.889	23155
844.025	23337
844.162	23048
844.298	23246
844.435	23090
844.571	23079
844.708	23086
844.844	23185
844.98	23227
845.117	23189
845.253	23033
845.389	22908
845.525	22980
845.661	22828
845.798	22733
845.934	22900
846.07	22812
846.206	22900
846.342	23010
846.478	22778
846.614	22710
846.75	22409
846.886	22565
847.022	22508
847.158	22618
847.294	22462
847.429	22656
847.565	22573
847.701	22790
847.837	22246
847.972	22268
848.108	22394
848.244	22428
848.379	22272
848.515	22162
848.65	22150
848.786	22177
848.921	22086
849.057	22219
849.192	22177
849.328	22215
849.463	22196
849.598	22090
849.734	22131
849.869	21873
850.004	22044
850.14	22017
850.275	21934
850.41	21728
850.545	21888
850.68	21846
850.815	21930
850.95	21899
851.085	22143
851.22	21934
851.355	21930
851.49	21949
851.625	21781
851.76	21979
851.895	21930
852.03	21743
852.165	21941
852.299	21838
852.434	21934
852.569	21869
852.703	21873
852.838	21975
852.973	21991
853.107	22097
853.242	21797
853.376	21861
853.511	21713
853.645	21797
853.78	21755
853.914	21743
854.048	21739
854.183	21732
854.317	21816
854.451	21918
854.585	21778
854.72	21743
854.854	21819
854.988	21675
855.122	21861
855.256	21492
855.39	21732
855.524	21823
855.658	21808
855.792	21804
855.926	21572
856.06	21865
856.194	21823
856.327	21686
856.461	21720
856.595	21667
856.729	21720
856.862	21808
856.996	21842
857.13	21812
857.263	21895
857.397	21850
857.53	21778
857.664	21804
857.797	21937
857.931	21743
858.064	21781
858.197	21854
858.331	21778
858.464	21690
858.597	21701
858.731	21690
858.864	21759
858.997	21770
859.13	21785
859.263	21743
859.396	21762
859.529	21614
859.662	21568
859.795	21682
859.928	21724
860.061	21895
860.194	21892
860.327	21850
860.46	21728
860.592	21781
860.725	21838
860.858	21888
860.99	21778
861.123	21679
861.256	21667
861.388	21686
861.521	22329
861.653	21679
861.786	21538
861.918	21553
862.05	21625
862.183	21488
862.315	21591
862.447	21747
862.58	21743
862.712	21447
862.844	21325
862.976	21511
863.108	21507
863.24	21800
863.372	21412
863.504	21264
863.636	21496
863.768	21488
863.9	21473
864.032	21389
864.164	21325
864.296	21389
864.428	21496
864.559	21500
864.691	21526
864.823	21405
864.954	21454
865.086	21374
865.217	21332
865.349	21302
865.48	21405
865.612	21397
865.743	21462
865.875	21435
866.006	21268
866.137	21241
866.269	21329
866.4	21241
866.531	21211
866.662	21188
866.793	21321
866.924	21237
867.055	21298
867.186	21294
867.317	21245
867.448	21188
867.579	21195
867.71	21074
867.841	21252
867.972	21416
868.103	21287
868.233	21363
868.364	21283
868.495	21496
868.625	21454
868.756	21679
868.886	21428
869.017	21450
869.147	21511
869.278	21561
869.408	21545
869.539	21530
869.669	21572
869.799	21618
869.929	21648
870.06	21618
870.19	21857
870.32	21785
870.45	21835
870.58	21899
870.71	21994
870.84	22139
870.97	21884
871.1	21964
871.23	22177
871.36	22051
871.489	21975
871.619	22242
871.749	22082
871.879	22105
872.008	22185
872.138	22128
872.267	22120
872.397	22040
872.526	21960
872.656	21991
872.785	21937
872.915	22128
873.044	22090
873.173	22032
873.303	22185
873.432	22169
873.561	22223
873.69	22002
873.819	21991
873.948	22223
874.077	22139
874.206	22128
874.335	22147
874.464	22261
874.593	22356
874.722	22265
874.851	22394
874.979	22299
875.108	22303
875.237	22238
875.365	22204
875.494	22166
875.623	22451
875.751	22386
875.88	22386
876.008	22466
876.136	22443
876.265	22752
876.393	22987
876.521	22896
876.65	22736
876.778	22710
876.906	22752
877.034	22626
877.162	22599
877.29	22641
877.418	22683
877.546	22668
877.674	22717
877.802	22649
877.93	22736
878.058	22622
878.185	22493
878.313	22683
878.441	22691
878.568	22580
878.696	22611
878.824	22698
878.951	22698
879.079	22816
879.206	22976
879.333	22892
879.461	22706
879.588	22698
879.715	22946
879.842	23056
879.97	22824
880.097	22523
880.224	22523
880.351	22645
880.478	22531
880.605	22474
880.732	22596
880.859	22717
880.986	22478
881.112	22462
881.239	22443
881.366	22219
881.493	22169
881.619	22051
881.746	22105
881.872	22097
881.999	22067
882.125	21983
882.252	22139
882.378	22112
882.505	22158
882.631	21789
882.757	21808
882.883	21793
883.01	21793
883.136	21755
883.262	21774
883.388	21580
883.514	21797
883.64	21774
883.766	21713
883.892	21469
884.018	21496
884.143	21789
884.269	21747
884.395	21542
884.52	21321
884.646	21439
884.772	21222
884.897	21321
885.023	21359
885.148	21557
885.274	21534
885.399	21492
885.524	21340
885.65	21340
885.775	21397
885.9	21420
886.025	21523
886.15	21481
886.275	21348
886.4	21173
886.525	21412
886.65	21332
886.775	21329
886.9	21534
887.025	21629
887.149	21313
887.274	21199
887.399	21176
887.523	21165
887.648	21100
887.773	21112
887.897	21233
888.021	21192
888.146	21188
888.27	21310
888.395	21351
888.519	21165
888.643	21188
888.767	21302
888.891	21112
889.015	21020
889.139	21005
889.263	20956
889.387	21112
889.511	21157
889.635	21123
889.759	20880
889.883	20994
890.006	20933
890.13	21131
890.254	20845
890.377	20906
890.501	20609
890.624	20682
890.748	20743
890.871	20682
890.995	20503
891.118	20389
891.241	20511
891.364	20526
891.488	20693
891.611	20450
891.734	20549
891.857	20560
891.98	20648
892.103	20526
892.226	20526
892.349	20632
892.471	20389
892.594	20431
892.717	20492
892.839	20450
892.962	20541
893.085	20469
893.207	20454
893.33	20298
893.452	20385
893.575	20488
893.697	20423
893.819	20568
893.941	20613
894.064	20484
894.186	20377
894.308	20377
894.43	20526
894.552	20564
894.674	20442
894.796	20355
894.918	20461
895.04	20332
895.161	20484
895.283	20473
895.405	20454
895.526	20408
895.648	20415
895.769	20450
895.891	20431
896.012	20514
896.134	20484
896.255	20381
896.376	20404
896.498	20381
896.619	20530
896.74	20343
896.861	20396
896.982	20693
897.103	20872
897.224	20648
897.345	20568
897.466	20682
897.587	20606
897.708	20777
897.828	20678
897.949	20545
898.07	20393
898.19	20579
898.311	20712
898.431	20590
898.552	20701
898.672	20724
898.792	20735
898.913	20667
899.033	20663
899.153	20480
899.273	20385
899.393	20431
899.513	20503
899.633	20427
899.753	20381
899.873	20355
899.993	20454
900.113	20332
900.232	20450
900.352	20328
900.472	20233
900.591	20024
900.711	20103
900.83	20199
900.95	20256
901.069	20271
901.189	20073
901.308	19830
901.427	19559
901.546	19868
901.665	19727
901.784	19731
901.904	19643
902.023	19499
902.141	19285
902.26	19270
902.379	19350
902.498	19202
902.617	19377
902.735	19301
902.854	19198
902.973	19247
903.091	18951
903.21	18958
903.328	18890
903.446	18939
903.565	18673
903.683	18734
903.801	18597
903.919	18677
904.038	18597
904.156	18532
904.274	18589
904.392	18486
904.51	18346
904.627	18448
904.745	18456
904.863	18498
904.981	18182
905.098	18209
905.216	18178
905.334	18095
905.451	18254
905.569	18053
905.686	18205
905.803	18194
905.921	17988
906.038	18053
906.155	17984
906.272	17866
906.389	17973
906.506	17657
906.623	17783
906.74	17661
906.857	17676
906.974	17592
907.091	17760
907.208	17893
907.324	17726
907.441	17585
907.557	17417
907.674	17486
907.79	17330
907.907	17455
908.023	17406
908.139	17486
908.256	17265
908.372	17303
908.488	17315
908.604	17060
908.72	17117
908.836	17151
908.952	17155
909.068	17239
909.184	17162
909.3	17147
909.415	17079
909.531	17029
909.647	16892
909.762	16698
909.878	16790
909.993	16847
910.108	16774
910.224	16850
910.339	16691
910.454	16691
910.57	16660
910.685	16630
910.8	16782
910.915	16717
911.03	16656
911.145	16474
911.259	16398
911.374	16413
911.489	16310
911.604	16306
911.718	16109
911.833	16192
911.947	16078
912.062	15987
912.176	16215
912.291	16215
912.405	16173
912.519	16284
912.633	16329
912.748	16234
912.862	16105
912.976	15968
913.09	15823
913.204	15968
913.318	16006
913.431	15949
913.545	16048
913.659	16036
913.772	15884
913.886	15846
914	15774
914.113	15827
914.226	15827
914.34	15903
914.453	15675
914.566	15838
914.68	15622
914.793	15603
914.906	15378
915.019	15332
915.132	15211
915.245	15405
915.358	15439
915.47	15370
915.583	15389
915.696	15351
915.809	15473
915.921	15405
916.034	15344
916.146	15207
916.259	15287
916.371	15382
916.483	15245
916.595	15241
916.708	15154
916.82	15199
916.932	15222
917.044	15142
917.156	15085
917.268	15036
917.38	15013
917.491	15097
917.603	15055
917.715	15066
917.826	15020
917.938	14948
918.049	14857
918.161	14967
918.272	15043
918.384	15009
918.495	14963
918.606	14746
918.717	14727
918.828	14849
918.939	14773
919.05	14632
919.161	14708
919.272	14541
919.383	14530
919.494	14868
919.604	14948
919.715	14701
919.826	14644
919.936	14632
920.047	14762
920.157	14705
920.267	14941
920.378	14743
920.488	14670
920.598	14906
920.708	14998
920.818	14823
920.928	14872
921.038	14971
921.148	15028
921.258	14720
921.368	14663
921.477	14552
921.587	14503
921.697	14415
921.806	14408
921.916	14324
922.025	14183
922.134	14176
922.244	14077
922.353	14225
922.462	13940
922.571	13913
922.68	13750
922.789	13696
922.898	13677
923.007	13670
923.116	13795
923.224	13620
923.333	13693
923.442	13605
923.55	13502
923.659	13510
923.767	13613
923.876	13529
923.984	13556
924.092	13559
924.201	13529
924.309	13525
924.417	13502
924.525	13381
924.633	13358
924.741	14263
924.849	13183
924.956	13301
925.064	13149
925.172	13171
925.279	13145
925.387	13129
925.494	13122
925.602	13198
925.709	13202
925.816	12962
925.924	13160
926.031	13168
926.138	13057
926.245	13050
926.352	12977
926.459	13129
926.566	13114
926.673	12951
926.779	12878
926.886	12882
926.993	12730
927.099	12700
927.206	12662
927.312	12582
927.419	12650
927.525	12669
927.631	12715
927.737	12517
927.843	12521
927.95	12464
928.056	12479
928.162	12517
928.267	12437
928.373	13171
928.479	12646
928.585	12292
928.69	12486
928.796	12525
928.901	12365
929.007	12285
929.112	12418
929.218	12365
929.323	12342
929.428	12209
929.533	12315
929.638	12178
929.743	12216
929.848	12224
929.953	12220
930.058	12049
930.163	11923
930.267	11958
930.372	12041
930.477	11824
930.581	12068
930.685	11996
930.79	11824
930.894	11904
930.998	11790
931.103	12034
931.207	11497
931.311	11497
931.415	11391
931.519	11204
931.623	11162
