Data from test_V78500241_143.txt Node
Date: Fri Mar 25 15:42:47 CST 2022
User: usil
Spectrometer: V785-0024
Trigger mode: 0
Integration Time (sec): 4.000000E-1
Scans to average: 1
Nonlinearity correction enabled: false
Boxcar width: 0
Storing dark spectrum: false
XAxis mode: Wavelengths
Number of Pixels in Spectrum: 1024
>>>>>Begin Spectral Data<<<<<
801.071	29965
801.214	29904
801.356	29589
801.499	29535
801.641	29368
801.783	29326
801.926	29337
802.068	29330
802.211	29410
802.353	29239
802.496	29132
802.638	29083
802.78	29067
802.923	29003
803.065	28877
803.208	29018
803.35	29064
803.492	29174
803.635	29128
803.777	29025
803.919	29159
804.061	29524
804.204	29273
804.346	29185
804.488	29079
804.63	29170
804.773	28999
804.915	29098
805.057	29189
805.199	29147
805.341	29159
805.483	29220
805.626	29204
805.768	29140
805.91	29159
806.052	29303
806.194	29197
806.336	29528
806.478	29242
806.62	29140
806.762	29288
806.904	29471
807.046	29661
807.188	29608
807.33	29611
807.472	29653
807.614	29577
807.756	29566
807.898	29429
808.04	29421
808.182	29501
808.324	29368
808.465	29372
808.607	29611
808.749	29764
808.891	29920
809.033	29939
809.174	29843
809.316	29851
809.458	29847
809.6	29882
809.741	29870
809.883	29756
810.025	29927
810.166	30026
810.308	29977
810.45	30087
810.591	29965
810.733	29760
810.875	29646
811.016	29608
811.158	29642
811.299	29923
811.441	29828
811.582	30022
811.724	29805
811.865	29798
812.007	29733
812.148	29760
812.29	29748
812.431	29969
812.573	30064
812.714	30091
812.855	30239
812.997	30315
813.138	30266
813.279	30277
813.421	30213
813.562	30190
813.703	29923
813.845	29866
813.986	29672
814.127	29535
814.268	29334
814.41	29353
814.551	29375
814.692	29440
814.833	29322
814.974	29322
815.115	29292
815.256	29280
815.397	29090
815.539	29208
815.68	29003
815.821	29064
815.962	29216
816.103	29193
816.244	28968
816.385	28839
816.526	28831
816.666	28573
816.807	28500
816.948	28535
817.089	28733
817.23	28421
817.371	28512
817.512	28363
817.653	28542
817.793	28287
817.934	28569
818.075	28459
818.216	28436
818.356	28371
818.497	28204
818.638	28135
818.778	28120
818.919	28154
819.06	28287
819.2	28112
819.341	28360
819.481	28527
819.622	28531
819.762	28752
819.903	28702
820.043	28508
820.184	28436
820.324	28306
820.465	28550
820.605	28538
820.746	28455
820.886	28333
821.026	28561
821.167	28325
821.307	28554
821.447	28158
821.588	28318
821.728	28169
821.868	28097
822.008	27884
822.149	27857
822.289	27835
822.429	27603
822.569	27447
822.709	27542
822.849	27260
822.99	27218
823.13	27131
823.27	27150
823.41	27032
823.55	26940
823.69	27024
823.83	27032
823.97	27005
824.11	26758
824.25	26853
824.389	26902
824.529	26845
824.669	26960
824.809	26853
824.949	26826
825.089	26910
825.228	26765
825.368	26545
825.508	26724
825.648	26625
825.787	26727
825.927	26845
826.067	26594
826.206	26640
826.346	26796
826.485	26583
826.625	26644
826.765	26712
826.904	26667
827.044	26476
827.183	26396
827.323	26298
827.462	26324
827.601	26400
827.741	26328
827.88	26313
828.02	26206
828.159	26229
828.298	26252
828.437	26294
828.577	26221
828.716	26336
828.855	26088
828.994	26130
829.134	25944
829.273	25902
829.412	25902
829.551	26050
829.69	25936
829.829	25936
829.968	26001
830.107	26027
830.246	25955
830.385	26005
830.524	25757
830.663	25689
830.802	25666
830.941	25479
831.08	25533
831.219	25422
831.357	25506
831.496	25609
831.635	25472
831.774	25415
831.913	25289
832.051	25343
832.19	25217
832.329	25297
832.467	25072
832.606	25103
832.744	25095
832.883	25171
833.022	25133
833.16	25099
833.299	25156
833.437	25080
833.576	25118
833.714	25228
833.852	25247
833.991	25175
834.129	25213
834.267	25187
834.406	25122
834.544	25080
834.682	25046
834.821	25103
834.959	25263
835.097	25053
835.235	25126
835.373	25053
835.511	25046
835.65	24947
835.788	24810
835.926	24726
836.064	24764
836.202	24681
836.34	24909
836.478	24954
836.615	25061
836.753	24947
836.891	25057
837.029	24977
837.167	24943
837.305	24802
837.443	24726
837.58	24719
837.718	24821
837.856	24719
837.993	24616
838.131	24661
838.269	24490
838.406	24658
838.544	24540
838.681	24357
838.819	24346
838.956	24152
839.094	24129
839.231	24258
839.369	24300
839.506	24517
839.643	24292
839.781	24136
839.918	24079
840.055	24053
840.193	24018
840.33	23908
840.467	24022
840.604	24091
840.742	24315
840.879	23916
841.016	23939
841.153	23843
841.29	24106
841.427	24064
841.564	24007
841.701	23988
841.838	23828
841.975	23973
842.112	23935
842.249	23783
842.385	23843
842.522	23923
842.659	23695
842.796	23699
842.933	23687
843.069	23672
843.206	23672
843.343	23760
843.479	23665
843.616	23490
843.752	23528
843.889	23474
844.025	23505
844.162	23292
844.298	23520
844.435	23436
844.571	23391
844.708	23406
844.844	23627
844.98	23463
845.117	23467
845.253	23200
845.389	23288
845.525	23288
845.661	23197
845.798	23060
845.934	23223
846.07	22987
846.206	23200
846.342	23197
846.478	23044
846.614	22927
846.75	22713
846.886	22854
847.022	22900
847.158	22862
847.294	22824
847.429	22995
847.565	22733
847.701	22972
847.837	22538
847.972	22542
848.108	22565
848.244	22702
848.379	22447
848.515	22379
848.65	22314
848.786	22356
848.921	22367
849.057	22516
849.192	22603
849.328	22485
849.463	22268
849.598	22325
849.734	22333
849.869	22173
850.004	22120
850.14	22063
850.275	22177
850.41	21934
850.545	22105
850.68	22070
850.815	22188
850.95	22154
851.085	22265
851.22	22181
851.355	22078
851.49	22109
851.625	22067
851.76	22021
851.895	22059
852.03	21972
852.165	22105
852.299	22135
852.434	22101
852.569	22025
852.703	21991
852.838	22097
852.973	22226
853.107	22223
853.242	21968
853.376	21888
853.511	21838
853.645	21854
853.78	21953
853.914	21857
854.048	21835
854.183	21869
854.317	22029
854.451	22063
854.585	21880
854.72	21899
854.854	21888
854.988	21873
855.122	21907
855.256	21686
855.39	21778
855.524	21922
855.658	21941
855.792	21934
855.926	21880
856.06	22002
856.194	21968
856.327	21915
856.461	21850
856.595	21888
856.729	21873
856.862	22059
856.996	21755
857.13	21819
857.263	21994
857.397	21937
857.53	21774
857.664	21937
857.797	21812
857.931	21987
858.064	21861
858.197	21880
858.331	21842
858.464	21728
858.597	21755
858.731	21831
858.864	21785
858.997	21755
859.13	21785
859.263	21808
859.396	21964
859.529	21823
859.662	21808
859.795	21766
859.928	21884
860.061	21930
860.194	21949
860.327	21835
860.46	21816
860.592	21991
860.725	22013
860.858	21880
860.99	21854
861.123	21705
861.256	21701
861.388	21679
861.521	22379
861.653	21652
861.786	21622
861.918	21682
862.05	21804
862.183	21812
862.315	21915
862.447	21895
862.58	21774
862.712	21526
862.844	21538
862.976	21572
863.108	21591
863.24	21956
863.372	21458
863.504	21553
863.636	21477
863.768	21595
863.9	21526
864.032	21359
864.164	21458
864.296	21450
864.428	21488
864.559	21523
864.691	21595
864.823	21420
864.954	21469
865.086	21389
865.217	21424
865.349	21370
865.48	21439
865.612	21393
865.743	21424
865.875	21431
866.006	21310
866.137	21363
866.269	21382
866.4	21329
866.531	21378
866.662	21336
866.793	21192
866.924	21275
867.055	21230
867.186	21298
867.317	21199
867.448	21233
867.579	21310
867.71	21203
867.841	21195
867.972	21275
868.103	21237
868.233	21233
868.364	21329
868.495	21428
868.625	21420
868.756	21644
868.886	21542
869.017	21572
869.147	21542
869.278	21545
869.408	21580
869.539	21641
869.669	21587
869.799	21663
869.929	21622
870.06	21591
870.19	21835
870.32	21778
870.45	21888
870.58	21915
870.71	21960
870.84	22074
870.97	21846
871.1	21850
871.23	22002
871.36	22070
871.489	22040
871.619	22082
871.749	22090
871.879	22166
872.008	22249
872.138	22169
872.267	22067
872.397	21983
872.526	21850
872.656	21926
872.785	21975
872.915	22067
873.044	22360
873.173	22128
873.303	22223
873.432	22086
873.561	22223
873.69	22105
873.819	22105
873.948	22181
874.077	22158
874.206	22116
874.335	22105
874.464	22257
874.593	22348
874.722	22421
874.851	22375
874.979	22424
875.108	22443
875.237	22299
875.365	22291
875.494	22284
875.623	22451
875.751	22344
875.88	22303
876.008	22493
876.136	22569
876.265	22755
876.393	22869
876.521	22908
876.65	22873
876.778	22797
876.906	22637
877.034	22831
877.162	22691
877.29	22656
877.418	22706
877.546	22729
877.674	22649
877.802	22736
877.93	22740
878.058	22641
878.185	22440
878.313	22729
878.441	22660
878.568	22580
878.696	22622
878.824	22755
878.951	22820
879.079	22889
879.206	22843
879.333	22767
879.461	22733
879.588	22774
879.715	22946
879.842	22923
879.97	22763
880.097	22531
880.224	22535
880.351	22618
880.478	22630
880.605	22459
880.732	22607
880.859	22713
880.986	22599
881.112	22504
881.239	22413
881.366	22238
881.493	22109
881.619	22158
881.746	22181
881.872	22185
881.999	22139
882.125	22021
882.252	22196
882.378	22135
882.505	22162
882.631	22040
882.757	21808
882.883	21960
883.01	21850
883.136	21835
883.262	21701
883.388	21713
883.514	21831
883.64	21781
883.766	21705
883.892	21637
884.018	21572
884.143	21709
884.269	21778
884.395	21732
884.52	21549
884.646	21599
884.772	21439
884.897	21458
885.023	21485
885.148	21534
885.274	21625
885.399	21477
885.524	21511
885.65	21515
885.775	21431
885.9	21367
886.025	21644
886.15	21576
886.275	21348
886.4	21386
886.525	21363
886.65	21211
886.775	21279
886.9	21599
887.025	21572
887.149	21340
887.274	21195
887.399	21188
887.523	21131
887.648	21032
887.773	21093
887.897	21173
888.021	21211
888.146	21108
888.27	21283
888.395	21116
888.519	21188
888.643	21112
888.767	21233
888.891	21001
889.015	20929
889.139	20998
889.263	21013
889.387	21013
889.511	21176
889.635	21131
889.759	21009
889.883	20979
890.006	20967
890.13	20941
890.254	20872
890.377	20785
890.501	20625
890.624	20518
890.748	20773
890.871	20621
890.995	20434
891.118	20499
891.241	20507
891.364	20552
891.488	20602
891.611	20480
891.734	20431
891.857	20625
891.98	20488
892.103	20583
892.226	20427
892.349	20427
892.471	20336
892.594	20362
892.717	20450
892.839	20362
892.962	20408
893.085	20571
893.207	20351
893.33	20389
893.452	20336
893.575	20457
893.697	20404
893.819	20602
893.941	20518
894.064	20503
894.186	20309
894.308	20233
894.43	20606
894.552	20602
894.674	20537
894.796	20415
894.918	20469
895.04	20442
895.161	20389
895.283	20339
895.405	20412
895.526	20351
895.648	20370
895.769	20461
895.891	20457
896.012	20533
896.134	20518
896.255	20427
896.376	20457
896.498	20336
896.619	20461
896.74	20431
896.861	20564
896.982	20864
897.103	20880
897.224	20705
897.345	20735
897.466	20663
897.587	20667
897.708	20689
897.828	20712
897.949	20655
898.07	20473
898.19	20655
898.311	20689
898.431	20583
898.552	20617
898.672	20727
898.792	20648
898.913	20613
899.033	20499
899.153	20328
899.273	20248
899.393	20450
899.513	20465
899.633	20298
899.753	20309
899.873	20252
899.993	20396
900.113	20298
900.232	20282
900.352	20317
900.472	20092
900.591	20122
900.711	20145
900.83	20027
900.95	20244
901.069	20195
901.189	19963
901.308	19784
901.427	19658
901.546	19734
901.665	19742
901.784	19670
901.904	19559
902.023	19476
902.141	19308
902.26	19278
902.379	19263
902.498	19168
902.617	18966
902.735	19190
902.854	19198
902.973	19072
903.091	18837
903.21	18837
903.328	18821
903.446	18715
903.565	18696
903.683	18658
903.801	18532
903.919	18661
904.038	18616
904.156	18380
904.274	18464
904.392	18342
904.51	18376
904.627	18372
904.745	18441
904.863	18479
904.981	18220
905.098	18091
905.216	18110
905.334	18083
905.451	18152
905.569	18049
905.686	17988
905.803	18003
905.921	17847
906.038	17901
906.155	17821
906.272	17638
906.389	17771
906.506	17581
906.623	17577
906.74	17528
906.857	17433
906.974	17520
907.091	17676
907.208	17741
907.324	17592
907.441	17421
907.557	17368
907.674	17212
907.79	17147
907.907	17124
908.023	17239
908.139	17326
908.256	17189
908.372	16984
908.488	17022
908.604	16938
908.72	16915
908.836	16942
908.952	16946
909.068	16938
909.184	17010
909.3	16930
909.415	16949
909.531	16919
909.647	16603
909.762	16603
909.878	16675
909.993	16725
910.108	16554
910.224	16504
910.339	16611
910.454	16569
910.57	16398
910.685	16284
910.8	16569
910.915	16592
911.03	16413
911.145	16310
911.259	16147
911.374	16166
911.489	16196
911.604	16059
911.718	15930
911.833	15907
911.947	15804
912.062	15785
912.176	16048
912.291	15968
912.405	15956
912.519	16173
912.633	16010
912.748	15945
912.862	15831
912.976	15762
913.09	15637
913.204	15709
913.318	15713
913.431	15865
913.545	15774
913.659	15793
913.772	15747
913.886	15663
914	15454
914.113	15675
914.226	15724
914.34	15557
914.453	15428
914.566	15492
914.68	15492
914.793	15351
914.906	15264
915.019	15199
915.132	15032
915.245	15142
915.358	15211
915.47	15077
915.583	15211
915.696	15211
915.809	15256
915.921	15252
916.034	15051
916.146	15043
916.259	15036
916.371	15165
916.483	15062
916.595	15043
916.708	14952
916.82	14982
916.932	14868
917.044	14994
917.156	14880
917.268	14826
917.38	14750
917.491	14632
917.603	14800
917.715	14902
917.826	14811
917.938	14674
918.049	14678
918.161	14731
918.272	14902
918.384	14830
918.495	14705
918.606	14514
918.717	14461
918.828	14590
918.939	14575
919.05	14419
919.161	14476
919.272	14332
919.383	14317
919.494	14537
919.604	14625
919.715	14465
919.826	14377
919.936	14434
920.047	14457
920.157	14377
920.267	14590
920.378	14465
920.488	14442
920.598	14594
920.708	14781
920.818	14549
920.928	14549
921.038	14689
921.148	14731
921.258	14358
921.368	14309
921.477	14176
921.587	14267
921.697	14027
921.806	14172
921.916	13978
922.025	13890
922.134	13791
922.244	13841
922.353	13822
922.462	13693
922.571	13620
922.68	13502
922.789	13365
922.898	13525
923.007	13369
923.116	13396
923.224	13403
923.333	13415
923.442	13445
923.55	13266
923.659	13320
923.767	13434
923.876	13297
923.984	13266
924.092	13152
924.201	13202
924.309	13099
924.417	13206
924.525	13190
924.633	13190
924.741	13803
924.849	12996
924.956	13145
925.064	12920
925.172	12825
925.279	12821
925.387	12901
925.494	12875
925.602	13042
925.709	12966
925.816	12772
925.924	12768
926.031	12905
926.138	12814
926.245	12863
926.352	12738
926.459	12913
926.566	12859
926.673	12772
926.779	12715
926.886	12574
926.993	12486
927.099	12414
927.206	12361
927.312	12334
927.419	12441
927.525	12414
927.631	12547
927.737	12380
927.843	12235
927.95	12133
928.056	12220
928.162	12254
928.267	12270
928.373	12947
928.479	12372
928.585	12159
928.69	12171
928.796	12315
928.901	12186
929.007	11916
929.112	12045
929.218	12076
929.323	12049
929.428	12015
929.533	12072
929.638	11946
929.743	11961
929.848	12038
929.953	11866
930.058	11912
930.163	11615
930.267	11623
930.372	11767
930.477	11524
930.581	11805
930.685	11748
930.79	11562
930.894	11646
930.998	11497
931.103	11688
931.207	11269
931.311	11246
931.415	11121
931.519	10972
931.623	10881
