Data from test_V78500241_3486.txt Node
Date: Fri Mar 25 16:05:57 CST 2022
User: usil
Spectrometer: V785-0024
Trigger mode: 0
Integration Time (sec): 4.000000E-1
Scans to average: 1
Nonlinearity correction enabled: false
Boxcar width: 0
Storing dark spectrum: false
XAxis mode: Wavelengths
Number of Pixels in Spectrum: 1024
>>>>>Begin Spectral Data<<<<<
801.071	29044
801.214	28835
801.356	28839
801.499	28767
801.641	28485
801.783	28729
801.926	28850
802.068	28550
802.211	28584
802.353	28363
802.496	28394
802.638	28268
802.78	28238
802.923	28303
803.065	28162
803.208	28219
803.35	28284
803.492	28352
803.635	28557
803.777	28489
803.919	28573
804.061	28763
804.204	28729
804.346	28664
804.488	28462
804.63	28603
804.773	28523
804.915	28607
805.057	28801
805.199	28550
805.341	28748
805.483	28694
805.626	28687
805.768	28611
805.91	28687
806.052	28793
806.194	28672
806.336	29006
806.478	28755
806.62	28767
806.762	28949
806.904	29105
807.046	29349
807.188	29212
807.33	29334
807.472	29455
807.614	29197
807.756	29216
807.898	29128
808.04	28911
808.182	29048
808.324	29109
808.465	29155
808.607	29292
808.749	29269
808.891	29551
809.033	29619
809.174	29448
809.316	29478
809.458	29535
809.6	29417
809.741	29535
809.883	29604
810.025	29718
810.166	29737
810.308	29710
810.45	29794
810.591	29646
810.733	29402
810.875	29493
811.016	29345
811.158	29364
811.299	29608
811.441	29707
811.582	29733
811.724	29535
811.865	29581
812.007	29383
812.148	29623
812.29	29547
812.431	29710
812.573	29775
812.714	29958
812.855	30018
812.997	30197
813.138	30243
813.279	30045
813.421	29969
813.562	29973
813.703	29897
813.845	29745
813.986	29383
814.127	29223
814.268	29170
814.41	29067
814.551	29178
814.692	29315
814.833	29254
814.974	29140
815.115	29128
815.256	29006
815.397	29136
815.539	29227
815.68	29010
815.821	28911
815.962	29064
816.103	28900
816.244	28831
816.385	28862
816.526	28771
816.666	28546
816.807	28462
816.948	28645
817.089	28615
817.23	28573
817.371	28478
817.512	28440
817.653	28466
817.793	28546
817.934	28573
818.075	28554
818.216	28580
818.356	28386
818.497	28443
818.638	28249
818.778	28356
818.919	28295
819.06	28348
819.2	28542
819.341	28584
819.481	28577
819.622	28759
819.762	28809
819.903	28934
820.043	28809
820.184	28691
820.324	28641
820.465	28927
820.605	28725
820.746	28679
820.886	28519
821.026	28736
821.167	28611
821.307	28725
821.447	28466
821.588	28550
821.728	28394
821.868	28287
822.008	28059
822.149	28021
822.289	27953
822.429	27827
822.569	27755
822.709	27679
822.849	27606
822.99	27504
823.13	27424
823.27	27557
823.41	27427
823.55	27188
823.69	27431
823.83	27298
823.97	27283
824.11	27256
824.25	27017
824.389	27112
824.529	27222
824.669	27119
824.809	27291
824.949	27138
825.089	27310
825.228	27359
825.368	27047
825.508	26910
825.648	27085
825.787	27192
825.927	27184
826.067	26933
826.206	27142
826.346	27184
826.485	27127
826.625	27070
826.765	27298
826.904	27123
827.044	26864
827.183	26940
827.323	26777
827.462	26864
827.601	26842
827.741	26792
827.88	26921
828.02	26769
828.159	26826
828.298	26785
828.437	26819
828.577	26765
828.716	26739
828.855	26632
828.994	26495
829.134	26476
829.273	26533
829.412	26590
829.551	26549
829.69	26537
829.829	26518
829.968	26556
830.107	26568
830.246	26453
830.385	26560
830.524	26412
830.663	26229
830.802	26065
830.941	26145
831.08	26027
831.219	26153
831.357	26172
831.496	26214
831.635	26039
831.774	26039
831.913	25890
832.051	25868
832.19	25932
832.329	25894
832.467	25742
832.606	25700
832.744	25715
832.883	25708
833.022	25761
833.16	25742
833.299	25932
833.437	25864
833.576	25780
833.714	25769
833.852	25890
833.991	25841
834.129	26008
834.267	25811
834.406	25818
834.544	25818
834.682	25738
834.821	25670
834.959	26020
835.097	25833
835.235	25826
835.373	25830
835.511	25731
835.65	25803
835.788	25734
835.926	25514
836.064	25438
836.202	25400
836.34	25628
836.478	25620
836.615	25655
836.753	25620
836.891	25807
837.029	25708
837.167	25719
837.305	25518
837.443	25643
837.58	25415
837.718	25491
837.856	25381
837.993	25430
838.131	25529
838.269	25270
838.406	25324
838.544	25285
838.681	25069
838.819	25152
838.956	24878
839.094	24894
839.231	25145
839.369	25133
839.506	25308
839.643	25168
839.781	24935
839.918	24928
840.055	24989
840.193	24886
840.33	24844
840.467	24837
840.604	24806
840.742	25179
840.879	24673
841.016	24764
841.153	24749
841.29	24825
841.427	24795
841.564	24878
841.701	24825
841.838	24738
841.975	24639
842.112	24703
842.249	24779
842.385	24700
842.522	24844
842.659	24738
842.796	24608
842.933	24456
843.069	24559
843.206	24528
843.343	24711
843.479	24696
843.616	24684
843.752	24391
843.889	24350
844.025	24494
844.162	24376
844.298	24528
844.435	24445
844.571	24346
844.708	24327
844.844	24452
844.98	24422
845.117	24456
845.253	24243
845.389	24167
845.525	24251
845.661	24159
845.798	24136
845.934	24087
846.07	24247
846.206	24125
846.342	24182
846.478	24049
846.614	23927
846.75	23699
846.886	23916
847.022	23904
847.158	23832
847.294	23939
847.429	23840
847.565	23699
847.701	24049
847.837	23627
847.972	23509
848.108	23486
848.244	23596
848.379	23353
848.515	23379
848.65	23341
848.786	23421
848.921	23360
849.057	23562
849.192	23482
849.328	23395
849.463	23440
849.598	23516
849.734	23322
849.869	23246
850.004	23174
850.14	23212
850.275	23220
850.41	23083
850.545	23117
850.68	23231
850.815	23155
850.95	23250
851.085	23425
851.22	23326
851.355	23124
851.49	23185
851.625	23109
851.76	23280
851.895	23052
852.03	23250
852.165	23151
852.299	23178
852.434	23277
852.569	23265
852.703	23048
852.838	23250
852.973	23379
853.107	23303
853.242	23052
853.376	23083
853.511	22892
853.645	22904
853.78	23090
853.914	23033
854.048	22968
854.183	22980
854.317	22900
854.451	23105
854.585	23022
854.72	22987
854.854	23166
854.988	22972
855.122	22896
855.256	22881
855.39	22934
855.524	23064
855.658	23018
855.792	23033
855.926	22984
856.06	23067
856.194	22957
856.327	22957
856.461	22847
856.595	22995
856.729	23022
856.862	23109
856.996	22953
857.13	23014
857.263	23022
857.397	22980
857.53	23029
857.664	23014
857.797	22946
857.931	22991
858.064	23083
858.197	23010
858.331	22923
858.464	22934
858.597	22946
858.731	22984
858.864	23018
858.997	22889
859.13	22911
859.263	22949
859.396	23010
859.529	22995
859.662	22812
859.795	22930
859.928	23022
860.061	23098
860.194	23220
860.327	23041
860.46	23098
860.592	23204
860.725	23174
860.858	23299
860.99	22972
861.123	22900
861.256	22984
861.388	22957
861.521	23668
861.653	22835
861.786	22694
861.918	22812
862.05	22850
862.183	22816
862.315	22961
862.447	22938
862.58	22862
862.712	22710
862.844	22687
862.976	22835
863.108	22828
863.24	23124
863.372	22645
863.504	22717
863.636	22649
863.768	22725
863.9	22653
864.032	22531
864.164	22679
864.296	22797
864.428	22706
864.559	22793
864.691	22729
864.823	22717
864.954	22577
865.086	22641
865.217	22607
865.349	22577
865.48	22634
865.612	22398
865.743	22850
865.875	22653
866.006	22489
866.137	22577
866.269	22459
866.4	22531
866.531	22565
866.662	22428
866.793	22485
866.924	22527
867.055	22481
867.186	22580
867.317	22641
867.448	22295
867.579	22569
867.71	22405
867.841	22417
867.972	22451
868.103	22546
868.233	22428
868.364	22481
868.495	22694
868.625	22668
868.756	22915
868.886	22599
869.017	22721
869.147	22797
869.278	22771
869.408	22656
869.539	22736
869.669	22797
869.799	22839
869.929	22927
870.06	22850
870.19	22987
870.32	23079
870.45	23086
870.58	23212
870.71	23261
870.84	23147
870.97	23128
871.1	23083
871.23	23292
871.36	23349
871.489	23265
871.619	23311
871.749	23433
871.879	23341
872.008	23459
872.138	23387
872.267	23349
872.397	23235
872.526	23258
872.656	23220
872.785	23147
872.915	23303
873.044	23368
873.173	23311
873.303	23337
873.432	23383
873.561	23448
873.69	23398
873.819	23315
873.948	23353
874.077	23360
874.206	23376
874.335	23307
874.464	23463
874.593	23531
874.722	23543
874.851	23509
874.979	23581
875.108	23585
875.237	23551
875.365	23463
875.494	23516
875.623	23592
875.751	23611
875.88	23695
876.008	23592
876.136	23718
876.265	23950
876.393	23999
876.521	24079
876.65	24018
876.778	23958
876.906	23950
877.034	23885
877.162	23863
877.29	23764
877.418	23939
877.546	23961
877.674	23912
877.802	23912
877.93	23824
878.058	23790
878.185	23870
878.313	23775
878.441	23912
878.568	23703
878.696	23897
878.824	23832
878.951	23923
879.079	23999
879.206	24216
879.333	24121
879.461	23893
879.588	23958
879.715	23988
879.842	24030
879.97	23897
880.097	23798
880.224	23604
880.351	23824
880.478	23676
880.605	23619
880.732	23657
880.859	23912
880.986	23737
881.112	23687
881.239	23600
881.366	23353
881.493	23254
881.619	23318
881.746	23315
881.872	23334
881.999	23239
882.125	23273
882.252	23178
882.378	23223
882.505	23280
882.631	23064
882.757	23025
882.883	23075
883.01	23090
883.136	22740
883.262	22801
883.388	22702
883.514	22820
883.64	22942
883.766	22782
883.892	22664
884.018	22683
884.143	22774
884.269	22961
884.395	22634
884.52	22569
884.646	22691
884.772	22519
884.897	22481
885.023	22596
885.148	22641
885.274	22793
885.399	22672
885.524	22550
885.65	22519
885.775	22531
885.9	22470
886.025	22596
886.15	22683
886.275	22390
886.4	22447
886.525	22451
886.65	22523
886.775	22580
886.9	22744
887.025	22736
887.149	22523
887.274	22356
887.399	22318
887.523	22291
887.648	22158
887.773	22246
887.897	22344
888.021	22325
888.146	22219
888.27	22436
888.395	22470
888.519	22276
888.643	22249
888.767	22363
888.891	22310
889.015	22177
889.139	22268
889.263	22116
889.387	22226
889.511	22344
889.635	22150
889.759	22090
889.883	22135
890.006	22120
890.13	22219
890.254	21953
890.377	22059
890.501	21762
890.624	21663
890.748	21842
890.871	21804
890.995	21583
891.118	21515
891.241	21690
891.364	21629
891.488	21739
891.611	21587
891.734	21625
891.857	21698
891.98	21663
892.103	21648
892.226	21644
892.349	21561
892.471	21515
892.594	21485
892.717	21591
892.839	21496
892.962	21549
893.085	21625
893.207	21466
893.33	21477
893.452	21481
893.575	21469
893.697	21587
893.819	21709
893.941	21854
894.064	21599
894.186	21485
894.308	21279
894.43	21553
894.552	21606
894.674	21561
894.796	21435
894.918	21382
895.04	21538
895.161	21500
895.283	21606
895.405	21431
895.526	21477
895.648	21412
895.769	21561
895.891	21431
896.012	21447
896.134	21488
896.255	21485
896.376	21367
896.498	21530
896.619	21424
896.74	21420
896.861	21435
896.982	21717
897.103	21823
897.224	21854
897.345	21595
897.466	21663
897.587	21713
897.708	21762
897.828	21724
897.949	21599
898.07	21526
898.19	21644
898.311	21884
898.431	21580
898.552	21747
898.672	21781
898.792	21682
898.913	21641
899.033	21587
899.153	21515
899.273	21389
899.393	21389
899.513	21469
899.633	21393
899.753	21351
899.873	21393
899.993	21496
900.113	21291
900.232	21408
900.352	21218
900.472	21226
900.591	21135
900.711	21154
900.83	21180
900.95	21180
901.069	21359
901.189	20921
901.308	20773
901.427	20716
901.546	20788
901.665	20743
901.784	20743
901.904	20564
902.023	20556
902.141	20252
902.26	20282
902.379	20343
902.498	20142
902.617	20161
902.735	20214
902.854	20145
902.973	20027
903.091	19902
903.21	19913
903.328	19898
903.446	19788
903.565	19635
903.683	19594
903.801	19681
903.919	19556
904.038	19506
904.156	19396
904.274	19521
904.392	19320
904.51	19430
904.627	19377
904.745	19453
904.863	19464
904.981	19217
905.098	19050
905.216	19015
905.334	19080
905.451	19164
905.569	19038
905.686	19160
905.803	19110
905.921	18897
906.038	18890
906.155	18817
906.272	18783
906.389	18715
906.506	18604
906.623	18658
906.74	18498
906.857	18483
906.974	18551
907.091	18475
907.208	18715
907.324	18582
907.441	18525
907.557	18285
907.674	18266
907.79	18315
907.907	18277
908.023	18289
908.139	18384
908.256	18342
908.372	18155
908.488	18178
908.604	18072
908.72	18007
908.836	17988
908.952	18045
909.068	17942
909.184	18079
909.3	17889
909.415	18026
909.531	18034
909.647	17786
909.762	17752
909.878	17672
909.993	17592
910.108	17741
910.224	17653
910.339	17748
910.454	17524
910.57	17604
910.685	17440
910.8	17691
910.915	17661
911.03	17368
911.145	17337
911.259	17303
911.374	17261
911.489	17227
911.604	17212
911.718	17018
911.833	17094
911.947	16949
912.062	16858
912.176	17067
912.291	16999
912.405	17045
912.519	17212
912.633	17181
912.748	17094
912.862	17052
912.976	16904
913.09	16759
913.204	16805
913.318	16858
913.431	16923
913.545	16809
913.659	16991
913.772	16763
913.886	16664
914	16687
914.113	16698
914.226	16664
914.34	16664
914.453	16489
914.566	16584
914.68	16554
914.793	16443
914.906	16318
915.019	16173
915.132	16211
915.245	16322
915.358	16242
915.47	16268
915.583	16154
915.696	16280
915.809	16291
915.921	16325
916.034	16131
916.146	16013
916.259	16025
916.371	16124
916.483	16105
916.595	16051
916.708	15964
916.82	15941
916.932	15975
917.044	16048
917.156	15979
917.268	15800
917.38	15751
917.491	15926
917.603	15846
917.715	15899
917.826	15903
917.938	15736
918.049	15618
918.161	15701
918.272	15857
918.384	15854
918.495	15747
918.606	15462
918.717	15561
918.828	15553
918.939	15644
919.05	15447
919.161	15397
919.272	15374
919.383	15355
919.494	15526
919.604	15720
919.715	15447
919.826	15435
919.936	15325
920.047	15561
920.157	15576
920.267	15603
920.378	15477
920.488	15382
920.598	15656
920.708	15728
920.818	15584
920.928	15633
921.038	15774
921.148	15747
921.258	15424
921.368	15340
921.477	15256
921.587	15207
921.697	15093
921.806	15104
921.916	15097
922.025	14975
922.134	14811
922.244	14777
922.353	14944
922.462	14705
922.571	14674
922.68	14556
922.789	14457
922.898	14499
923.007	14434
923.116	14575
923.224	14499
923.333	14366
923.442	14358
923.55	14336
923.659	14374
923.767	14271
923.876	14168
923.984	14301
924.092	14145
924.201	14218
924.309	14278
924.417	14142
924.525	14126
924.633	14115
924.741	14849
924.849	13837
924.956	14001
925.064	13864
925.172	13833
925.279	13784
925.387	13852
925.494	13852
925.602	13906
925.709	13875
925.816	13681
925.924	13795
926.031	13837
926.138	13708
926.245	13795
926.352	13731
926.459	13731
926.566	13814
926.673	13624
926.779	13586
926.886	13578
926.993	13422
927.099	13270
927.206	13388
927.312	13320
927.419	13491
927.525	13354
927.631	13350
927.737	13232
927.843	13270
927.95	13080
928.056	13228
928.162	13183
928.267	13168
928.373	13845
928.479	13156
928.585	12935
928.69	13103
928.796	13152
928.901	13019
929.007	12901
929.112	12966
929.218	12932
929.323	12935
929.428	12920
929.533	13031
929.638	12783
929.743	12806
929.848	12859
929.953	12760
930.058	12646
930.163	12574
930.267	12574
930.372	12669
930.477	12528
930.581	12722
930.685	12513
930.79	12460
930.894	12414
930.998	12308
931.103	12525
931.207	12258
931.311	12102
931.415	11939
931.519	11866
931.623	11741
