Data from test_V78500241_62.txt Node
Date: Fri Mar 25 15:42:13 CST 2022
User: usil
Spectrometer: V785-0024
Trigger mode: 0
Integration Time (sec): 4.000000E-1
Scans to average: 1
Nonlinearity correction enabled: false
Boxcar width: 0
Storing dark spectrum: false
XAxis mode: Wavelengths
Number of Pixels in Spectrum: 1024
>>>>>Begin Spectral Data<<<<<
801.071	29942
801.214	29878
801.356	29646
801.499	29600
801.641	29368
801.783	29311
801.926	29425
802.068	29311
802.211	29208
802.353	29280
802.496	29064
802.638	28946
802.78	28968
802.923	28991
803.065	28869
803.208	28999
803.35	28968
803.492	29147
803.635	29208
803.777	29223
803.919	29204
804.061	29425
804.204	29208
804.346	29121
804.488	28888
804.63	29170
804.773	28980
804.915	29208
805.057	29083
805.199	29105
805.341	29193
805.483	29223
805.626	29212
805.768	29121
805.91	29155
806.052	29090
806.194	29086
806.336	29463
806.478	29315
806.62	29406
806.762	29360
806.904	29436
807.046	29710
807.188	29566
807.33	29551
807.472	29737
807.614	29547
807.756	29535
807.898	29467
808.04	29436
808.182	29322
808.324	29509
808.465	29406
808.607	29551
808.749	29817
808.891	29733
809.033	29874
809.174	29733
809.316	29676
809.458	29748
809.6	29790
809.741	29790
809.883	29851
810.025	29931
810.166	30015
810.308	29859
810.45	29996
810.591	29775
810.733	29699
810.875	29623
811.016	29551
811.158	29573
811.299	29882
811.441	29942
811.582	29745
811.724	29634
811.865	29619
812.007	29589
812.148	29680
812.29	29627
812.431	29824
812.573	29942
812.714	29885
812.855	30133
812.997	30220
813.138	30486
813.279	30395
813.421	30106
813.562	30041
813.703	29901
813.845	29817
813.986	29505
814.127	29372
814.268	29223
814.41	29277
814.551	29064
814.692	29322
814.833	29128
814.974	29250
815.115	29402
815.256	29143
815.397	29102
815.539	29025
815.68	28938
815.821	28965
815.962	28824
816.103	28816
816.244	28706
816.385	28778
816.526	28679
816.666	28485
816.807	28493
816.948	28447
817.089	28584
817.23	28436
817.371	28386
817.512	28310
817.653	28230
817.793	28337
817.934	28371
818.075	28310
818.216	28314
818.356	28280
818.497	28219
818.638	27991
818.778	28105
818.919	27953
819.06	28234
819.2	28211
819.341	28204
819.481	28306
819.622	28455
819.762	28767
819.903	28527
820.043	28401
820.184	28390
820.324	28333
820.465	28497
820.605	28466
820.746	28238
820.886	28249
821.026	28337
821.167	28280
821.307	28249
821.447	28105
821.588	28223
821.728	28086
821.868	27762
822.008	27701
822.149	27679
822.289	27583
822.429	27363
822.569	27268
822.709	27237
822.849	27112
822.99	27142
823.13	27173
823.27	27089
823.41	26986
823.55	26940
823.69	26921
823.83	26925
823.97	26956
824.11	26689
824.25	26644
824.389	26754
824.529	26746
824.669	26659
824.809	26899
824.949	26746
825.089	26853
825.228	26727
825.368	26530
825.508	26434
825.648	26541
825.787	26621
825.927	26545
826.067	26537
826.206	26457
826.346	26583
826.485	26568
826.625	26560
826.765	26621
826.904	26590
827.044	26286
827.183	26317
827.323	26092
827.462	26294
827.601	26172
827.741	26168
827.88	26252
828.02	26054
828.159	26054
828.298	26164
828.437	26225
828.577	26031
828.716	26202
828.855	26020
828.994	25784
829.134	25864
829.273	25875
829.412	25776
829.551	25753
829.69	25818
829.829	25921
829.968	25993
830.107	25951
830.246	25845
830.385	25601
830.524	25715
830.663	25597
830.802	25464
830.941	25472
831.08	25225
831.219	25396
831.357	25559
831.496	25525
831.635	25312
831.774	25183
831.913	25289
832.051	25209
832.19	25034
832.329	25179
832.467	24901
832.606	25008
832.744	24958
832.883	24932
833.022	24909
833.16	24867
833.299	24989
833.437	24981
833.576	24958
833.714	24928
833.852	24989
833.991	25046
834.129	25027
834.267	24924
834.406	25015
834.544	24905
834.682	25084
834.821	24932
834.959	25023
835.097	24852
835.235	24985
835.373	24753
835.511	24882
835.65	24703
835.788	24840
835.926	24601
836.064	24559
836.202	24646
836.34	24665
836.478	24802
836.615	24734
836.753	24764
836.891	24787
837.029	24844
837.167	24715
837.305	24658
837.443	24715
837.58	24722
837.718	24749
837.856	24753
837.993	24498
838.131	24623
838.269	24464
838.406	24509
838.544	24479
838.681	24125
838.819	24247
838.956	24167
839.094	23851
839.231	24129
839.369	24190
839.506	24369
839.643	24330
839.781	24030
839.918	23942
840.055	23851
840.193	23885
840.33	23699
840.467	23809
840.604	23870
840.742	24273
840.879	23703
841.016	23653
841.153	23771
841.29	23920
841.427	23878
841.564	23821
841.701	23764
841.838	23809
841.975	23684
842.112	23836
842.249	23638
842.385	23493
842.522	23767
842.659	23634
842.796	23566
842.933	23486
843.069	23433
843.206	23296
843.343	23573
843.479	23486
843.616	23406
843.752	23265
843.889	23193
844.025	23326
844.162	23174
844.298	23212
844.435	23235
844.571	23067
844.708	23197
844.844	23372
844.98	23414
845.117	23414
845.253	23197
845.389	23147
845.525	23102
845.661	23075
845.798	22911
845.934	23083
846.07	22949
846.206	23022
846.342	22984
846.478	22889
846.614	22786
846.75	22607
846.886	22675
847.022	22759
847.158	22645
847.294	22668
847.429	22622
847.565	22584
847.701	22850
847.837	22459
847.972	22284
848.108	22402
848.244	22512
848.379	22230
848.515	22131
848.65	22074
848.786	22246
848.921	22265
849.057	22382
849.192	22196
849.328	22291
849.463	22128
849.598	22154
849.734	22101
849.869	22074
850.004	21998
850.14	22010
850.275	21941
850.41	21869
850.545	21880
850.68	21922
850.815	21972
850.95	21918
851.085	22097
851.22	21945
851.355	21835
851.49	21808
851.625	21800
851.76	21888
851.895	21762
852.03	21873
852.165	21911
852.299	21983
852.434	21987
852.569	21895
852.703	21880
852.838	21968
852.973	22025
853.107	21884
853.242	21812
853.376	21736
853.511	21595
853.645	21736
853.78	21930
853.914	21808
854.048	21739
854.183	21793
854.317	21622
854.451	21823
854.585	21774
854.72	21682
854.854	21682
854.988	21641
855.122	21728
855.256	21477
855.39	21637
855.524	21720
855.658	21542
855.792	21724
855.926	21812
856.06	21694
856.194	21808
856.327	21686
856.461	21622
856.595	21523
856.729	21610
856.862	21800
856.996	21690
857.13	21629
857.263	21755
857.397	21724
857.53	21644
857.664	21717
857.797	21698
857.931	21781
858.064	21709
858.197	21831
858.331	21587
858.464	21504
858.597	21515
858.731	21633
858.864	21561
858.997	21591
859.13	21530
859.263	21663
859.396	21705
859.529	21629
859.662	21576
859.795	21561
859.928	21606
860.061	21698
860.194	21610
860.327	21599
860.46	21507
860.592	21663
860.725	21793
860.858	21637
860.99	21709
861.123	21587
861.256	21519
861.388	21587
861.521	22177
861.653	21450
861.786	21329
861.918	21595
862.05	21618
862.183	21603
862.315	21713
862.447	21679
862.58	21557
862.712	21428
862.844	21256
862.976	21462
863.108	21317
863.24	21557
863.372	21287
863.504	21310
863.636	21260
863.768	21386
863.9	21268
864.032	21188
864.164	21291
864.296	21317
864.428	21374
864.559	21287
864.691	21435
864.823	21222
864.954	21264
865.086	21222
865.217	21195
865.349	21066
865.48	21081
865.612	21298
865.743	21203
865.875	21180
866.006	21154
866.137	21203
866.269	21173
866.4	21131
866.531	21142
866.662	21028
866.793	21020
866.924	21112
867.055	21058
867.186	21131
867.317	21009
867.448	21081
867.579	21066
867.71	20963
867.841	21001
867.972	21127
868.103	20990
868.233	21100
868.364	21074
868.495	21070
868.625	21203
868.756	21325
868.886	21123
869.017	21306
869.147	21412
869.278	21416
869.408	21393
869.539	21298
869.669	21256
869.799	21310
869.929	21481
870.06	21408
870.19	21701
870.32	21610
870.45	21671
870.58	21755
870.71	21823
870.84	21831
870.97	21724
871.1	21732
871.23	21918
871.36	21903
871.489	21804
871.619	21888
871.749	21937
871.879	21873
872.008	22067
872.138	21876
872.267	21819
872.397	21846
872.526	21625
872.656	21759
872.785	21835
872.915	21918
873.044	21983
873.173	21876
873.303	21899
873.432	22097
873.561	21994
873.69	21926
873.819	21937
873.948	22029
874.077	22025
874.206	21903
874.335	21945
874.464	21918
874.593	22272
874.722	22070
874.851	22219
874.979	22154
875.108	22173
875.237	22036
875.365	22139
875.494	22147
875.623	22265
875.751	22177
875.88	22192
876.008	22211
876.136	22268
876.265	22603
876.393	22729
876.521	22630
876.65	22717
876.778	22691
876.906	22516
877.034	22622
877.162	22470
877.29	22474
877.418	22508
877.546	22462
877.674	22436
877.802	22466
877.93	22615
878.058	22375
878.185	22386
878.313	22402
878.441	22584
878.568	22394
878.696	22390
878.824	22561
878.951	22687
879.079	22710
879.206	22713
879.333	22664
879.461	22569
879.588	22626
879.715	22740
879.842	22725
879.97	22557
880.097	22402
880.224	22379
880.351	22504
880.478	22398
880.605	22238
880.732	22303
880.859	22592
880.986	22413
881.112	22451
881.239	22207
881.366	22006
881.493	21975
881.619	21804
881.746	21964
881.872	21956
881.999	21865
882.125	21842
882.252	21842
882.378	21823
882.505	22055
882.631	21857
882.757	21694
882.883	21686
883.01	21656
883.136	21568
883.262	21553
883.388	21595
883.514	21652
883.64	21671
883.766	21545
883.892	21420
884.018	21526
884.143	21663
884.269	21793
884.395	21393
884.52	21268
884.646	21435
884.772	21192
884.897	21268
885.023	21272
885.148	21374
885.274	21332
885.399	21420
885.524	21283
885.65	21192
885.775	21397
885.9	21294
886.025	21355
886.15	21203
886.275	21203
886.4	21218
886.525	21245
886.65	21237
886.775	21100
886.9	21382
887.025	21488
887.149	21173
887.274	20899
887.399	20880
887.523	21020
887.648	20895
887.773	20941
887.897	21032
888.021	20971
888.146	20941
888.27	21017
888.395	21047
888.519	20975
888.643	20971
888.767	20891
888.891	20804
889.015	20743
889.139	20785
889.263	20804
889.387	20861
889.511	20868
889.635	20891
889.759	20708
889.883	20743
890.006	20754
890.13	20777
890.254	20724
890.377	20663
890.501	20461
890.624	20492
890.748	20598
890.871	20374
890.995	20286
891.118	20393
891.241	20370
891.364	20431
891.488	20450
891.611	20355
891.734	20313
891.857	20446
891.98	20461
892.103	20423
892.226	20282
892.349	20336
892.471	20134
892.594	20256
892.717	20434
892.839	20237
892.962	20256
893.085	20214
893.207	20134
893.33	20046
893.452	20180
893.575	20396
893.697	20278
893.819	20393
893.941	20545
894.064	20195
894.186	20145
894.308	20195
894.43	20168
894.552	20427
894.674	20381
894.796	20153
894.918	20191
895.04	20237
895.161	20263
895.283	20195
895.405	20122
895.526	20176
895.648	20210
895.769	20320
895.891	20183
896.012	20370
896.134	20309
896.255	20259
896.376	20256
896.498	20328
896.619	20282
896.74	20343
896.861	20434
896.982	20571
897.103	20796
897.224	20655
897.345	20545
897.466	20347
897.587	20568
897.708	20587
897.828	20446
897.949	20393
898.07	20309
898.19	20374
898.311	20564
898.431	20461
898.552	20461
898.672	20552
898.792	20408
898.913	20457
899.033	20317
899.153	20142
899.273	20111
899.393	20164
899.513	20054
899.633	20081
899.753	20122
899.873	20058
899.993	20157
900.113	20077
900.232	20229
900.352	19955
900.472	19944
900.591	19849
900.711	19925
900.83	19947
900.95	20054
901.069	20046
901.189	19833
901.308	19525
901.427	19468
901.546	19533
901.665	19556
901.784	19552
901.904	19411
902.023	19308
902.141	19012
902.26	19034
902.379	19122
902.498	19103
902.617	18962
902.735	18993
902.854	18962
902.973	18863
903.091	18722
903.21	18597
903.328	18604
903.446	18597
903.565	18372
903.683	18547
903.801	18391
903.919	18418
904.038	18380
904.156	18384
904.274	18289
904.392	18232
904.51	18167
904.627	18117
904.745	18289
904.863	18338
904.981	17916
905.098	17885
905.216	17961
905.334	17859
905.451	17965
905.569	17908
905.686	17843
905.803	17916
905.921	17786
906.038	17672
906.155	17691
906.272	17551
906.389	17600
906.506	17474
906.623	17448
906.74	17417
906.857	17273
906.974	17231
907.091	17486
907.208	17543
907.324	17326
907.441	17204
907.557	17132
907.674	17140
907.79	16984
907.907	16987
908.023	17113
908.139	17147
908.256	17075
908.372	16915
908.488	16934
908.604	16892
908.72	16782
908.836	16664
908.952	16759
909.068	16706
909.184	16824
909.3	16843
909.415	16797
909.531	16729
909.647	16519
909.762	16466
909.878	16363
909.993	16542
910.108	16398
910.224	16440
910.339	16379
910.454	16405
910.57	16204
910.685	16253
910.8	16527
910.915	16360
911.03	16268
911.145	15964
911.259	15918
911.374	15956
911.489	16032
911.604	15915
911.718	15850
911.833	15808
911.947	15660
912.062	15667
912.176	15831
912.291	15816
912.405	15762
912.519	15953
912.633	15918
912.748	15846
912.862	15816
912.976	15622
913.09	15515
913.204	15542
913.318	15488
913.431	15701
913.545	15675
913.659	15698
913.772	15507
913.886	15435
914	15416
914.113	15431
914.226	15447
914.34	15454
914.453	15249
914.566	15397
914.68	15260
914.793	15367
914.906	15058
915.019	14982
915.132	14918
915.245	14967
915.358	14990
915.47	15085
915.583	15055
915.696	15036
915.809	15009
915.921	15108
916.034	14944
916.146	14861
916.259	14826
916.371	15097
916.483	15024
916.595	14807
916.708	14777
916.82	14807
916.932	14845
917.044	14853
917.156	14720
917.268	14610
917.38	14746
917.491	14697
917.603	14731
917.715	14731
917.826	14655
917.938	14575
918.049	14465
918.161	14625
918.272	14750
918.384	14682
918.495	14602
918.606	14423
918.717	14377
918.828	14393
918.939	14362
919.05	14275
919.161	14339
919.272	14202
919.383	14290
919.494	14347
919.604	14549
919.715	14404
919.826	14320
919.936	14286
920.047	14400
920.157	14328
920.267	14552
920.378	14336
920.488	14317
920.598	14526
920.708	14644
920.818	14492
920.928	14507
921.038	14663
921.148	14587
921.258	14298
921.368	14172
921.477	14081
921.587	14153
921.697	13856
921.806	14119
921.916	13932
922.025	13643
922.134	13674
922.244	13719
922.353	13799
922.462	13548
922.571	13491
922.68	13411
922.789	13225
922.898	13293
923.007	13213
923.116	13274
923.224	13335
923.333	13217
923.442	13209
923.55	13118
923.659	13069
923.767	13259
923.876	13129
923.984	13183
924.092	13103
924.201	13137
924.309	13099
924.417	13046
924.525	12905
924.633	13042
924.741	13970
924.849	12852
924.956	12973
925.064	12707
925.172	12688
925.279	12757
925.387	12817
925.494	12738
925.602	12856
925.709	12814
925.816	12684
925.924	12821
926.031	12760
926.138	12646
926.245	12768
926.352	12608
926.459	12802
926.566	12768
926.673	12570
926.779	12479
926.886	12479
926.993	12452
927.099	12372
927.206	12258
927.312	12304
927.419	12243
927.525	12243
927.631	12403
927.737	12292
927.843	12148
927.95	12060
928.056	12247
928.162	12194
928.267	12159
928.373	12741
928.479	12247
928.585	11874
928.69	12110
928.796	12155
928.901	12102
929.007	11843
929.112	12083
929.218	11901
929.323	11882
929.428	11859
929.533	11969
929.638	11809
929.743	11813
929.848	11859
929.953	11741
930.058	11668
930.163	11570
930.267	11634
930.372	11649
930.477	11497
930.581	11695
930.685	11570
930.79	11429
930.894	11455
930.998	11360
931.103	11600
931.207	11242
931.311	11045
931.415	11022
931.519	10778
931.623	10752
