Data from test_V78500241_233.txt Node
Date: Fri Mar 25 15:43:24 CST 2022
User: usil
Spectrometer: V785-0024
Trigger mode: 0
Integration Time (sec): 4.000000E-1
Scans to average: 1
Nonlinearity correction enabled: false
Boxcar width: 0
Storing dark spectrum: false
XAxis mode: Wavelengths
Number of Pixels in Spectrum: 1024
>>>>>Begin Spectral Data<<<<<
801.071	29440
801.214	29524
801.356	29212
801.499	29261
801.641	29060
801.783	29151
801.926	28972
802.068	28919
802.211	28991
802.353	29010
802.496	28744
802.638	28744
802.78	28706
802.923	28637
803.065	28527
803.208	28641
803.35	28649
803.492	28691
803.635	28805
803.777	28736
803.919	28923
804.061	29299
804.204	28927
804.346	28812
804.488	28679
804.63	28809
804.773	28634
804.915	28858
805.057	28911
805.199	28801
805.341	28949
805.483	28854
805.626	28995
805.768	28717
805.91	28957
806.052	28904
806.194	28957
806.336	29109
806.478	28987
806.62	29014
806.762	28930
806.904	29216
807.046	29490
807.188	29421
807.33	29387
807.472	29471
807.614	29223
807.756	29368
807.898	29079
808.04	29105
808.182	29117
808.324	29197
808.465	29204
808.607	29379
808.749	29528
808.891	29535
809.033	29802
809.174	29619
809.316	29455
809.458	29600
809.6	29516
809.741	29558
809.883	29745
810.025	29783
810.166	29859
810.308	29859
810.45	29870
810.591	29611
810.733	29558
810.875	29600
811.016	29448
811.158	29459
811.299	29562
811.441	29737
811.582	29729
811.724	29482
811.865	29448
812.007	29452
812.148	29516
812.29	29528
812.431	29729
812.573	29897
812.714	29999
812.855	29965
812.997	30201
813.138	30273
813.279	30186
813.421	30003
813.562	29965
813.703	29786
813.845	29703
813.986	29406
814.127	29231
814.268	29052
814.41	29200
814.551	29121
814.692	29322
814.833	29109
814.974	29109
815.115	29174
815.256	29018
815.397	29048
815.539	28930
815.68	28999
815.821	28972
815.962	28972
816.103	29003
816.244	28683
816.385	28649
816.526	28653
816.666	28459
816.807	28211
816.948	28421
817.089	28542
817.23	28417
817.371	28398
817.512	28284
817.653	28306
817.793	28200
817.934	28470
818.075	28234
818.216	28401
818.356	28268
818.497	28215
818.638	28093
818.778	28017
818.919	28147
819.06	28029
819.2	28090
819.341	28226
819.481	28318
819.622	28394
819.762	28554
819.903	28474
820.043	28440
820.184	28459
820.324	28481
820.465	28512
820.605	28443
820.746	28394
820.886	28242
821.026	28242
821.167	28341
821.307	28386
821.447	28154
821.588	28234
821.728	28105
821.868	27861
822.008	27682
822.149	27656
822.289	27656
822.429	27496
822.569	27485
822.709	27408
822.849	27184
822.99	27226
823.13	27279
823.27	27066
823.41	27024
823.55	26933
823.69	27005
823.83	26979
823.97	26823
824.11	26773
824.25	26773
824.389	26815
824.529	26891
824.669	26781
824.809	26899
824.949	26838
825.089	26823
825.228	26796
825.368	26648
825.508	26697
825.648	26746
825.787	26739
825.927	26773
826.067	26613
826.206	26716
826.346	26587
826.485	26705
826.625	26636
826.765	26792
826.904	26667
827.044	26355
827.183	26503
827.323	26393
827.462	26492
827.601	26267
827.741	26168
827.88	26366
828.02	26100
828.159	26275
828.298	26248
828.437	26210
828.577	26225
828.716	26290
828.855	26126
828.994	26027
829.134	26069
829.273	26081
829.412	25966
829.551	25963
829.69	25890
829.829	26054
829.968	26103
830.107	26027
830.246	25894
830.385	25868
830.524	25841
830.663	25818
830.802	25594
830.941	25479
831.08	25350
831.219	25723
831.357	25651
831.496	25742
831.635	25502
831.774	25373
831.913	25381
832.051	25285
832.19	25358
832.329	25491
832.467	25110
832.606	25065
832.744	25072
832.883	25091
833.022	25038
833.16	25206
833.299	25274
833.437	25072
833.576	25304
833.714	25232
833.852	25164
833.991	25221
834.129	25407
834.267	25270
834.406	25080
834.544	25206
834.682	25266
834.821	25392
834.959	25335
835.097	25187
835.235	25350
835.373	25160
835.511	25194
835.65	25023
835.788	25129
835.926	25034
836.064	24791
836.202	24897
836.34	25061
836.478	24939
836.615	24951
836.753	24871
836.891	25015
837.029	25065
837.167	24909
837.305	24859
837.443	24787
837.58	24867
837.718	24787
837.856	24795
837.993	24711
838.131	24787
838.269	24730
838.406	24722
838.544	24738
838.681	24452
838.819	24304
838.956	24323
839.094	24304
839.231	24270
839.369	24338
839.506	24635
839.643	24502
839.781	24285
839.918	24068
840.055	24220
840.193	24228
840.33	24159
840.467	24216
840.604	24228
840.742	24410
840.879	24053
841.016	24018
841.153	24015
841.29	24216
841.427	24079
841.564	24003
841.701	24030
841.838	24045
841.975	24064
842.112	24003
842.249	23897
842.385	23874
842.522	24095
842.659	23927
842.796	23870
842.933	23874
843.069	23589
843.206	23756
843.343	23824
843.479	23805
843.616	23783
843.752	23467
843.889	23615
844.025	23687
844.162	23486
844.298	23634
844.435	23452
844.571	23509
844.708	23505
844.844	23733
844.98	23710
845.117	23638
845.253	23539
845.389	23406
845.525	23501
845.661	23406
845.798	23261
845.934	23212
846.07	23299
846.206	23383
846.342	23395
846.478	23193
846.614	23075
846.75	22999
846.886	23006
847.022	22987
847.158	23117
847.294	22965
847.429	23033
847.565	22972
847.701	23147
847.837	22729
847.972	22748
848.108	22820
848.244	22729
848.379	22641
848.515	22561
848.65	22538
848.786	22470
848.921	22474
849.057	22729
849.192	22622
849.328	22459
849.463	22493
849.598	22516
849.734	22367
849.869	22348
850.004	22280
850.14	22375
850.275	22348
850.41	22211
850.545	22139
850.68	22306
850.815	22341
850.95	22284
851.085	22424
851.22	22344
851.355	22497
851.49	22185
851.625	22299
851.76	22192
851.895	22109
852.03	22249
852.165	22230
852.299	22261
852.434	22291
852.569	22284
852.703	22177
852.838	22249
852.973	22402
853.107	22348
853.242	22185
853.376	22074
853.511	21953
853.645	21972
853.78	22238
853.914	21987
854.048	21857
854.183	22074
854.317	22032
854.451	22257
854.585	22040
854.72	22044
854.854	22192
854.988	21945
855.122	22036
855.256	21899
855.39	21907
855.524	22124
855.658	22025
855.792	22013
855.926	22048
856.06	22101
856.194	22097
856.327	22097
856.461	21918
856.595	21964
856.729	21918
856.862	22226
856.996	22051
857.13	22086
857.263	22135
857.397	22207
857.53	21956
857.664	22093
857.797	22090
857.931	22192
858.064	22200
858.197	22013
858.331	22086
858.464	21949
858.597	21945
858.731	22048
858.864	21994
858.997	21873
859.13	21972
859.263	21987
859.396	22116
859.529	21987
859.662	21880
859.795	21968
859.928	22074
860.061	22105
860.194	22063
860.327	22090
860.46	21949
860.592	22101
860.725	22207
860.858	22105
860.99	21934
861.123	21800
861.256	21991
861.388	21991
861.521	22733
861.653	21880
861.786	21861
861.918	21930
862.05	21846
862.183	22070
862.315	22021
862.447	22006
862.58	22006
862.712	21717
862.844	21610
862.976	21759
863.108	21823
863.24	22040
863.372	21629
863.504	21648
863.636	21762
863.768	21751
863.9	21633
864.032	21576
864.164	21660
864.296	21660
864.428	21739
864.559	21755
864.691	21675
864.823	21732
864.954	21694
865.086	21610
865.217	21629
865.349	21473
865.48	21698
865.612	21580
865.743	21766
865.875	21629
866.006	21515
866.137	21583
866.269	21603
866.4	21557
866.531	21447
866.662	21526
866.793	21488
866.924	21435
867.055	21591
867.186	21511
867.317	21431
867.448	21428
867.579	21504
867.71	21443
867.841	21412
867.972	21523
868.103	21466
868.233	21469
868.364	21412
868.495	21583
868.625	21747
868.756	21865
868.886	21732
869.017	21800
869.147	21922
869.278	21975
869.408	21789
869.539	21720
869.669	21937
869.799	21865
869.929	21850
870.06	21903
870.19	22032
870.32	21991
870.45	22109
870.58	22166
870.71	22344
870.84	22257
870.97	22128
871.1	22196
871.23	22337
871.36	22242
871.489	22284
871.619	22280
871.749	22303
871.879	22390
872.008	22432
872.138	22371
872.267	22402
872.397	22131
872.526	22192
872.656	22162
872.785	22162
872.915	22299
873.044	22622
873.173	22367
873.303	22508
873.432	22367
873.561	22466
873.69	22341
873.819	22314
873.948	22516
874.077	22413
874.206	22230
874.335	22386
874.464	22569
874.593	22554
874.722	22561
874.851	22417
874.979	22805
875.108	22733
875.237	22577
875.365	22485
875.494	22550
875.623	22542
875.751	22542
875.88	22596
876.008	22816
876.136	22683
876.265	22965
876.393	22965
876.521	22896
876.65	23105
876.778	23044
876.906	23006
877.034	22904
877.162	23052
877.29	22778
877.418	23071
877.546	22961
877.674	22965
877.802	22999
877.93	22850
878.058	22908
878.185	22858
878.313	23033
878.441	23044
878.568	22683
878.696	22942
878.824	22980
878.951	22976
879.079	23151
879.206	23246
879.333	23056
879.461	22946
879.588	23094
879.715	23102
879.842	23288
879.97	23022
880.097	22763
880.224	22675
880.351	22793
880.478	22797
880.605	22634
880.732	22778
880.859	22984
880.986	22831
881.112	22820
881.239	22653
881.366	22493
881.493	22455
881.619	22325
881.746	22261
881.872	22246
881.999	22303
882.125	22242
882.252	22421
882.378	22268
882.505	22382
882.631	22200
882.757	22044
882.883	22226
883.01	22101
883.136	21945
883.262	21899
883.388	21804
883.514	22067
883.64	22013
883.766	21915
883.892	21804
884.018	21751
884.143	22143
884.269	22070
884.395	21808
884.52	21709
884.646	21781
884.772	21629
884.897	21591
885.023	21663
885.148	21656
885.274	21739
885.399	21701
885.524	21648
885.65	21728
885.775	21682
885.9	21622
886.025	21797
886.15	21709
886.275	21629
886.4	21591
886.525	21675
886.65	21675
886.775	21515
886.9	21705
887.025	21846
887.149	21561
887.274	21530
887.399	21416
887.523	21443
887.648	21348
887.773	21325
887.897	21481
888.021	21393
888.146	21386
888.27	21561
888.395	21542
888.519	21447
888.643	21435
888.767	21435
888.891	21211
889.015	21211
889.139	21325
889.263	21226
889.387	21355
889.511	21389
889.635	21298
889.759	21256
889.883	21043
890.006	21291
890.13	21268
890.254	21142
890.377	21184
890.501	20842
890.624	20899
890.748	21051
890.871	20800
890.995	20731
891.118	20686
891.241	20762
891.364	20796
891.488	20857
891.611	20819
891.734	20830
891.857	20941
891.98	20880
892.103	20811
892.226	20804
892.349	20640
892.471	20613
892.594	20571
892.717	20686
892.839	20594
892.962	20682
893.085	20655
893.207	20648
893.33	20522
893.452	20537
893.575	20701
893.697	20590
893.819	20754
893.941	20826
894.064	20769
894.186	20564
894.308	20556
894.43	20773
894.552	20792
894.674	20804
894.796	20552
894.918	20583
895.04	20617
895.161	20644
895.283	20549
895.405	20552
895.526	20606
895.648	20701
895.769	20796
895.891	20617
896.012	20750
896.134	20830
896.255	20651
896.376	20629
896.498	20693
896.619	20754
896.74	20705
896.861	20663
896.982	20899
897.103	21116
897.224	20975
897.345	20925
897.466	20815
897.587	20918
897.708	21001
897.828	20937
897.949	20861
898.07	20644
898.19	20777
898.311	20914
898.431	20842
898.552	20834
898.672	20868
898.792	20921
898.913	20929
899.033	20735
899.153	20636
899.273	20434
899.393	20598
899.513	20575
899.633	20560
899.753	20503
899.873	20526
899.993	20499
900.113	20488
900.232	20480
900.352	20396
900.472	20377
900.591	20317
900.711	20332
900.83	20332
900.95	20469
901.069	20427
901.189	20240
901.308	20126
901.427	19902
901.546	20008
901.665	19959
901.784	19925
901.904	19814
902.023	19639
902.141	19487
902.26	19426
902.379	19537
902.498	19308
902.617	19346
902.735	19537
902.854	19320
902.973	19373
903.091	19141
903.21	18993
903.328	19110
903.446	18962
903.565	18894
903.683	18837
903.801	18631
903.919	18715
904.038	18688
904.156	18700
904.274	18681
904.392	18692
904.51	18544
904.627	18696
904.745	18791
904.863	18669
904.981	18464
905.098	18319
905.216	18369
905.334	18285
905.451	18216
905.569	18110
905.686	18277
905.803	18281
905.921	18068
906.038	18186
906.155	18053
906.272	17916
906.389	17916
906.506	17786
906.623	17840
906.74	17863
906.857	17760
906.974	17634
907.091	17805
907.208	17863
907.324	17809
907.441	17676
907.557	17543
907.674	17589
907.79	17463
907.907	17524
908.023	17471
908.139	17410
908.256	17398
908.372	17353
908.488	17330
908.604	17220
908.72	17109
908.836	17151
908.952	17147
909.068	17185
909.184	17292
909.3	17151
909.415	17174
909.531	17189
909.647	16919
909.762	16892
909.878	16908
909.993	16942
910.108	16805
910.224	16668
910.339	16862
910.454	16645
910.57	16729
910.685	16710
910.8	16873
910.915	16847
911.03	16713
911.145	16535
911.259	16489
911.374	16428
911.489	16371
911.604	16386
911.718	16185
911.833	16181
911.947	16017
912.062	16086
912.176	16226
912.291	16207
912.405	16238
912.519	16402
912.633	16360
912.748	16200
912.862	16135
912.976	16040
913.09	15892
913.204	15987
913.318	15915
913.431	16051
913.545	16059
913.659	16109
913.772	16006
913.886	15800
914	15739
914.113	15907
914.226	15899
914.34	15861
914.453	15690
914.566	15701
914.68	15606
914.793	15591
914.906	15416
915.019	15336
915.132	15382
915.245	15412
915.358	15374
915.47	15367
915.583	15344
915.696	15401
915.809	15526
915.921	15534
916.034	15325
916.146	15222
916.259	15230
916.371	15336
916.483	15291
916.595	15211
916.708	15100
916.82	15249
916.932	15097
917.044	15252
917.156	15112
917.268	15062
917.38	15058
917.491	14891
917.603	15058
917.715	15127
917.826	15081
917.938	14975
918.049	14830
918.161	14914
918.272	15142
918.384	14994
918.495	14952
918.606	14800
918.717	14804
918.828	14731
918.939	14731
919.05	14670
919.161	14758
919.272	14537
919.383	14621
919.494	14762
919.604	14895
919.715	14712
919.826	14568
919.936	14705
920.047	14811
920.157	14670
920.267	14941
920.378	14693
920.488	14727
920.598	14861
920.708	14933
920.818	14750
920.928	14880
921.038	14925
921.148	14921
921.258	14560
921.368	14579
921.477	14423
921.587	14492
921.697	14267
921.806	14415
921.916	14172
922.025	14126
922.134	14123
922.244	13932
922.353	14088
922.462	13936
922.571	13788
922.68	13700
922.789	13704
922.898	13616
923.007	13563
923.116	13719
923.224	13647
923.333	13571
923.442	13506
923.55	13441
923.659	13548
923.767	13483
923.876	13441
923.984	13518
924.092	13422
924.201	13384
924.309	13403
924.417	13377
924.525	13358
924.633	13365
924.741	14039
924.849	13149
924.956	13301
925.064	13129
925.172	13000
925.279	13099
925.387	13114
925.494	13095
925.602	13209
925.709	13145
925.816	12954
925.924	13084
926.031	13091
926.138	13027
926.245	12996
926.352	12856
926.459	13034
926.566	13000
926.673	12924
926.779	12833
926.886	12677
926.993	12658
927.099	12722
927.206	12654
927.312	12521
927.419	12776
927.525	12650
927.631	12623
927.737	12460
927.843	12513
927.95	12399
928.056	12384
928.162	12433
928.267	12460
928.373	13118
928.479	12513
928.585	12330
928.69	12399
928.796	12357
928.901	12292
929.007	12194
929.112	12281
929.218	12209
929.323	12152
929.428	12216
929.533	12342
929.638	12102
929.743	12053
929.848	12155
929.953	12129
930.058	11931
930.163	11916
930.267	11824
930.372	11984
930.477	11904
930.581	12038
930.685	11920
930.79	11672
930.894	11642
930.998	11737
931.103	11863
931.207	11398
931.311	11349
931.415	11311
931.519	11086
931.623	11064
