Data from test_V78500241_3647.txt Node
Date: Fri Mar 25 16:07:03 CST 2022
User: usil
Spectrometer: V785-0024
Trigger mode: 0
Integration Time (sec): 4.000000E-1
Scans to average: 1
Nonlinearity correction enabled: false
Boxcar width: 0
Storing dark spectrum: false
XAxis mode: Wavelengths
Number of Pixels in Spectrum: 1024
>>>>>Begin Spectral Data<<<<<
801.071	28147
801.214	28150
801.356	28021
801.499	27911
801.641	27827
801.783	27778
801.926	27835
802.068	27755
802.211	27610
802.353	27675
802.496	27504
802.638	27523
802.78	27557
802.923	27367
803.065	27363
803.208	27294
803.35	27523
803.492	27580
803.635	27576
803.777	27633
803.919	27667
804.061	28029
804.204	27572
804.346	27641
804.488	27526
804.63	27641
804.773	27557
804.915	27842
805.057	27831
805.199	27785
805.341	27751
805.483	27789
805.626	27694
805.768	27633
805.91	27857
806.052	27827
806.194	27652
806.336	28101
806.478	27797
806.62	27663
806.762	27964
806.904	28150
807.046	28329
807.188	28181
807.33	28207
807.472	28401
807.614	28253
807.756	28181
807.898	27991
808.04	27945
808.182	27949
808.324	28207
808.465	28154
808.607	28436
808.749	28401
808.891	28561
809.033	28561
809.174	28618
809.316	28440
809.458	28455
809.6	28455
809.741	28504
809.883	28748
810.025	28850
810.166	28740
810.308	28774
810.45	28622
810.591	28744
810.733	28527
810.875	28470
811.016	28318
811.158	28451
811.299	28489
811.441	28626
811.582	28641
811.724	28519
811.865	28519
812.007	28550
812.148	28516
812.29	28577
812.431	28755
812.573	28847
812.714	29010
812.855	28782
812.997	29159
813.138	29128
813.279	29109
813.421	29048
813.562	28942
813.703	28748
813.845	28839
813.986	28409
814.127	28462
814.268	28287
814.41	28219
814.551	28154
814.692	28215
814.833	28105
814.974	28131
815.115	28211
815.256	27998
815.397	28017
815.539	28082
815.68	27979
815.821	27865
815.962	27998
816.103	27945
816.244	27998
816.385	27800
816.526	27694
816.666	27568
816.807	27507
816.948	27538
817.089	27603
817.23	27496
817.371	27561
817.512	27416
817.653	27431
817.793	27492
817.934	27553
818.075	27500
818.216	27473
818.356	27393
818.497	27264
818.638	27184
818.778	27237
818.919	27279
819.06	27302
819.2	27469
819.341	27523
819.481	27382
819.622	27614
819.762	27888
819.903	27686
820.043	27652
820.184	27606
820.324	27682
820.465	27728
820.605	27667
820.746	27534
820.886	27485
821.026	27534
821.167	27488
821.307	27591
821.447	27538
821.588	27564
821.728	27241
821.868	27237
822.008	26994
822.149	26876
822.289	26902
822.429	26830
822.569	26594
822.709	26689
822.849	26427
822.99	26617
823.13	26488
823.27	26499
823.41	26218
823.55	26286
823.69	26317
823.83	26366
823.97	26229
824.11	26122
824.25	26069
824.389	26157
824.529	26084
824.669	26084
824.809	26199
824.949	26214
825.089	26320
825.228	26183
825.368	26062
825.508	25852
825.648	25997
825.787	25997
825.927	26043
826.067	25986
826.206	26111
826.346	26149
826.485	26069
826.625	26012
826.765	26062
826.904	26084
827.044	25746
827.183	25712
827.323	25757
827.462	25719
827.601	25655
827.741	25651
827.88	25715
828.02	25616
828.159	25502
828.298	25746
828.437	25833
828.577	25594
828.716	25734
828.855	25613
828.994	25468
829.134	25415
829.273	25426
829.412	25320
829.551	25209
829.69	25362
829.829	25350
829.968	25411
830.107	25487
830.246	25346
830.385	25304
830.524	25278
830.663	25168
830.802	25145
830.941	25000
831.08	24916
831.219	25076
831.357	24992
831.496	25278
831.635	25027
831.774	24867
831.913	24935
832.051	24772
832.19	24779
832.329	24848
832.467	24692
832.606	24681
832.744	24555
832.883	24650
833.022	24593
833.16	24738
833.299	24882
833.437	24783
833.576	24825
833.714	24726
833.852	24677
833.991	24806
834.129	24745
834.267	24688
834.406	24684
834.544	24730
834.682	24753
834.821	24787
834.959	24840
835.097	24601
835.235	24730
835.373	24738
835.511	24722
835.65	24570
835.788	24616
835.926	24391
836.064	24403
836.202	24365
836.34	24574
836.478	24620
836.615	24684
836.753	24505
836.891	24692
837.029	24696
837.167	24441
837.305	24426
837.443	24422
837.58	24365
837.718	24460
837.856	24448
837.993	24395
838.131	24384
838.269	24239
838.406	24304
838.544	24266
838.681	24072
838.819	24129
838.956	24015
839.094	23805
839.231	23939
839.369	24102
839.506	24292
839.643	24197
839.781	23767
839.918	23760
840.055	23824
840.193	23847
840.33	23798
840.467	23855
840.604	23904
840.742	23980
840.879	23707
841.016	23604
841.153	23737
841.29	23836
841.427	23756
841.564	23878
841.701	23767
841.838	23771
841.975	23684
842.112	23756
842.249	23653
842.385	23581
842.522	23737
842.659	23707
842.796	23463
842.933	23634
843.069	23406
843.206	23482
843.343	23551
843.479	23493
843.616	23505
843.752	23318
843.889	23277
844.025	23429
844.162	23376
844.298	23410
844.435	23353
844.571	23269
844.708	23307
844.844	23474
844.98	23429
845.117	23334
845.253	23227
845.389	23254
845.525	23166
845.661	23189
845.798	23086
845.934	23033
846.07	23006
846.206	23075
846.342	23147
846.478	23113
846.614	22782
846.75	22653
846.886	22691
847.022	22889
847.158	22919
847.294	22831
847.429	22930
847.565	22736
847.701	22999
847.837	22474
847.972	22512
848.108	22546
848.244	22523
848.379	22432
848.515	22367
848.65	22470
848.786	22443
848.921	22443
849.057	22440
849.192	22390
849.328	22428
849.463	22409
849.598	22314
849.734	22386
849.869	22223
850.004	22257
850.14	22162
850.275	22074
850.41	22219
850.545	22090
850.68	22177
850.815	22207
850.95	22067
851.085	22242
851.22	22314
851.355	22097
851.49	22086
851.625	22139
851.76	22124
851.895	22120
852.03	22173
852.165	22120
852.299	22303
852.434	22169
852.569	22234
852.703	22139
852.838	22215
852.973	22185
853.107	22158
853.242	22036
853.376	21991
853.511	21800
853.645	21922
853.78	22002
853.914	22032
854.048	22055
854.183	21956
854.317	21911
854.451	22109
854.585	22074
854.72	21953
854.854	22032
854.988	21876
855.122	22048
855.256	21915
855.39	21994
855.524	21998
855.658	21911
855.792	21918
855.926	21956
856.06	21964
856.194	21934
856.327	22017
856.461	21972
856.595	21911
856.729	21892
856.862	22120
856.996	21937
857.13	21987
857.263	21964
857.397	22074
857.53	21926
857.664	21994
857.797	22017
857.931	22044
858.064	21987
858.197	22124
858.331	22036
858.464	21751
858.597	21854
858.731	21892
858.864	21960
858.997	21937
859.13	21983
859.263	21975
859.396	22048
859.529	21861
859.662	21869
859.795	21934
859.928	22017
860.061	22196
860.194	22291
860.327	22032
860.46	21918
860.592	22067
860.725	22192
860.858	22093
860.99	22086
861.123	21922
861.256	21918
861.388	21934
861.521	22721
861.653	21861
861.786	21797
861.918	21770
862.05	21800
862.183	21808
862.315	21975
862.447	22021
862.58	21892
862.712	21682
862.844	21641
862.976	21557
863.108	21762
863.24	22303
863.372	21603
863.504	21698
863.636	21766
863.768	21720
863.9	21755
864.032	21618
864.164	21660
864.296	21679
864.428	21671
864.559	21743
864.691	21606
864.823	21561
864.954	21701
865.086	21633
865.217	21549
865.349	21424
865.48	21473
865.612	21485
865.743	21736
865.875	21629
866.006	21492
866.137	21587
866.269	21515
866.4	21583
866.531	21454
866.662	21462
866.793	21485
866.924	21431
867.055	21454
867.186	21447
867.317	21439
867.448	21473
867.579	21557
867.71	21393
867.841	21526
867.972	21606
868.103	21488
868.233	21462
868.364	21485
868.495	21583
868.625	21785
868.756	21736
868.886	21622
869.017	21637
869.147	21895
869.278	21819
869.408	21762
869.539	21743
869.669	21808
869.799	21781
869.929	21915
870.06	21911
870.19	22032
870.32	22040
870.45	22013
870.58	22109
870.71	22162
870.84	22196
870.97	22143
871.1	22200
871.23	22299
871.36	22409
871.489	22207
871.619	22303
871.749	22276
871.879	22363
872.008	22508
872.138	22352
872.267	22272
872.397	22131
872.526	22223
872.656	22185
872.785	22082
872.915	22394
873.044	22379
873.173	22299
873.303	22470
873.432	22386
873.561	22538
873.69	22348
873.819	22344
873.948	22436
874.077	22352
874.206	22409
874.335	22322
874.464	22440
874.593	22615
874.722	22641
874.851	22519
874.979	22637
875.108	22542
875.237	22417
875.365	22557
875.494	22577
875.623	22596
875.751	22523
875.88	22611
876.008	22596
876.136	22847
876.265	22873
876.393	23056
876.521	23003
876.65	23037
876.778	22968
876.906	22885
877.034	22919
877.162	22858
877.29	22843
877.418	22900
877.546	22812
877.674	22942
877.802	22885
877.93	22790
878.058	22717
878.185	22786
878.313	22881
878.441	22995
878.568	22687
878.696	22797
878.824	22953
878.951	22915
879.079	23105
879.206	23227
879.333	22946
879.461	22942
879.588	23052
879.715	23014
879.842	23258
879.97	22957
880.097	22767
880.224	22748
880.351	22733
880.478	22850
880.605	22698
880.732	22748
880.859	23022
880.986	22820
881.112	22809
881.239	22573
881.366	22413
881.493	22421
881.619	22299
881.746	22337
881.872	22295
881.999	22386
882.125	22223
882.252	22284
882.378	22348
882.505	22459
882.631	22341
882.757	22051
882.883	22093
883.01	21956
883.136	21945
883.262	21918
883.388	21869
883.514	21975
883.64	21953
883.766	21956
883.892	21793
884.018	21831
884.143	22055
884.269	22078
884.395	21641
884.52	21656
884.646	21526
884.772	21614
884.897	21682
885.023	21599
885.148	21690
885.274	21838
885.399	21755
885.524	21583
885.65	21637
885.775	21553
885.9	21538
886.025	21633
886.15	21641
886.275	21534
886.4	21538
886.525	21606
886.65	21568
886.775	21538
886.9	21663
887.025	21850
887.149	21572
887.274	21458
887.399	21576
887.523	21408
887.648	21428
887.773	21252
887.897	21485
888.021	21370
888.146	21370
888.27	21511
888.395	21583
888.519	21386
888.643	21530
888.767	21458
888.891	21321
889.015	21214
889.139	21306
889.263	21176
889.387	21241
889.511	21439
889.635	21302
889.759	21135
889.883	21039
890.006	21211
890.13	21256
890.254	21142
890.377	21024
890.501	20895
890.624	20963
890.748	21024
890.871	20960
890.995	20693
891.118	20746
891.241	20716
891.364	20910
891.488	20876
891.611	20902
891.734	20785
891.857	20762
891.98	20826
892.103	20765
892.226	20838
892.349	20796
892.471	20530
892.594	20686
892.717	20644
892.839	20625
892.962	20617
893.085	20792
893.207	20571
893.33	20503
893.452	20533
893.575	20613
893.697	20552
893.819	20842
893.941	20758
894.064	20758
894.186	20598
894.308	20617
894.43	20727
894.552	20796
894.674	20587
894.796	20537
894.918	20530
895.04	20518
895.161	20746
895.283	20663
895.405	20556
895.526	20632
895.648	20682
895.769	20545
895.891	20667
896.012	20686
896.134	20705
896.255	20568
896.376	20571
896.498	20682
896.619	20678
896.74	20693
896.861	20727
896.982	20956
897.103	20994
897.224	20895
897.345	20838
897.466	20834
897.587	20804
897.708	20994
897.828	20975
897.949	20682
898.07	20693
898.19	20849
898.311	20998
898.431	20765
898.552	20830
898.672	20914
898.792	20956
898.913	20853
899.033	20796
899.153	20571
899.273	20598
899.393	20617
899.513	20651
899.633	20511
899.753	20587
899.873	20545
899.993	20697
900.113	20492
900.232	20564
900.352	20412
900.472	20404
900.591	20419
900.711	20393
900.83	20301
900.95	20419
901.069	20469
901.189	20278
901.308	20016
901.427	19917
901.546	19906
901.665	19940
901.784	19894
901.904	19845
902.023	19712
902.141	19529
902.26	19578
902.379	19540
902.498	19502
902.617	19384
902.735	19510
902.854	19464
902.973	19426
903.091	19038
903.21	19008
903.328	19095
903.446	19080
903.565	18878
903.683	18935
903.801	18806
903.919	18920
904.038	18829
904.156	18673
904.274	18738
904.392	18612
904.51	18654
904.627	18681
904.745	18642
904.863	18719
904.981	18407
905.098	18338
905.216	18365
905.334	18486
905.451	18369
905.569	18300
905.686	18262
905.803	18300
905.921	18140
906.038	18159
906.155	18251
906.272	18007
906.389	17939
906.506	17942
906.623	17916
906.74	17771
906.857	17794
906.974	17562
907.091	17889
907.208	17984
907.324	17954
907.441	17714
907.557	17646
907.674	17459
907.79	17467
907.907	17452
908.023	17592
908.139	17630
908.256	17486
908.372	17448
908.488	17402
908.604	17341
908.72	17288
908.836	17364
908.952	17250
909.068	17360
909.184	17410
909.3	17246
909.415	17231
909.531	17299
909.647	17056
909.762	17006
909.878	16923
909.993	17003
910.108	16930
910.224	16961
910.339	16866
910.454	16824
910.57	16911
910.685	16675
910.8	17052
910.915	17025
911.03	16736
911.145	16622
911.259	16519
911.374	16615
911.489	16516
911.604	16462
911.718	16265
911.833	16367
911.947	16242
912.062	16158
912.176	16306
912.291	16257
912.405	16341
912.519	16443
912.633	16421
912.748	16287
912.862	16306
912.976	16234
913.09	16059
913.204	16063
913.318	16204
913.431	16246
913.545	16093
913.659	16223
913.772	15964
913.886	16055
914	15975
914.113	16055
914.226	16078
914.34	16002
914.453	15915
914.566	15975
914.68	15785
914.793	15835
914.906	15610
915.019	15557
915.132	15519
915.245	15393
915.358	15523
915.47	15496
915.583	15462
915.696	15584
915.809	15625
915.921	15568
916.034	15523
916.146	15545
916.259	15405
916.371	15492
916.483	15397
916.595	15355
916.708	15351
916.82	15367
916.932	15310
917.044	15283
917.156	15279
917.268	15165
917.38	15154
917.491	15195
917.603	15252
917.715	15226
917.826	15249
917.938	15207
918.049	15009
918.161	15161
918.272	15233
918.384	15302
918.495	15093
918.606	14952
918.717	14918
918.828	14929
918.939	15032
919.05	14887
919.161	14914
919.272	14754
919.383	14785
919.494	15005
919.604	15017
919.715	14864
919.826	14868
919.936	14826
920.047	15009
920.157	14960
920.267	15085
920.378	14921
920.488	14887
920.598	15009
920.708	15256
920.818	15135
920.928	14967
921.038	15218
921.148	15138
921.258	14834
921.368	14716
921.477	14701
921.587	14720
921.697	14564
921.806	14670
921.916	14404
922.025	14362
922.134	14256
922.244	14240
922.353	14374
922.462	14123
922.571	14183
922.68	13940
922.789	13925
922.898	13894
923.007	13902
923.116	13959
923.224	13826
923.333	13913
923.442	13799
923.55	13712
923.659	13837
923.767	13841
923.876	13742
923.984	13769
924.092	13616
924.201	13685
924.309	13643
924.417	13628
924.525	13590
924.633	13567
924.741	14522
924.849	13350
924.956	13499
925.064	13358
925.172	13240
925.279	13266
925.387	13377
925.494	13358
925.602	13388
925.709	13308
925.816	13183
925.924	13247
926.031	13289
926.138	13232
926.245	13274
926.352	13152
926.459	13278
926.566	13354
926.673	13183
926.779	13046
926.886	13023
926.993	12932
927.099	12916
927.206	12825
927.312	12894
927.419	12878
927.525	12943
927.631	12859
927.737	12745
927.843	12650
927.95	12570
928.056	12673
928.162	12608
928.267	12722
928.373	13339
928.479	12749
928.585	12513
928.69	12658
928.796	12692
928.901	12578
929.007	12407
929.112	12483
929.218	12506
929.323	12361
929.428	12460
929.533	12525
929.638	12308
929.743	12311
929.848	12414
929.953	12281
930.058	12350
930.163	12155
930.267	12072
930.372	12194
930.477	12015
930.581	12311
930.685	12057
930.79	11931
930.894	11920
930.998	11885
931.103	12007
931.207	11729
931.311	11608
931.415	11543
931.519	11349
931.623	11315
