Data from test_V78500241_1312.txt Node
Date: Fri Mar 25 15:50:53 CST 2022
User: usil
Spectrometer: V785-0024
Trigger mode: 0
Integration Time (sec): 4.000000E-1
Scans to average: 1
Nonlinearity correction enabled: false
Boxcar width: 0
Storing dark spectrum: false
XAxis mode: Wavelengths
Number of Pixels in Spectrum: 1024
>>>>>Begin Spectral Data<<<<<
801.071	28154
801.214	28226
801.356	27975
801.499	27876
801.641	27679
801.783	27720
801.926	27774
802.068	27682
802.211	27633
802.353	27572
802.496	27485
802.638	27408
802.78	27424
802.923	27321
803.065	27439
803.208	27420
803.35	27485
803.492	27523
803.635	27599
803.777	27545
803.919	27755
804.061	27846
804.204	27618
804.346	27507
804.488	27515
804.63	27747
804.773	27523
804.915	27610
805.057	27869
805.199	27637
805.341	27663
805.483	27899
805.626	27835
805.768	27652
805.91	27812
806.052	27876
806.194	27759
806.336	27941
806.478	27831
806.62	27884
806.762	27918
806.904	27869
807.046	28329
807.188	28162
807.33	28196
807.472	28238
807.614	28181
807.756	28367
807.898	28078
808.04	28032
808.182	28059
808.324	28044
808.465	28074
808.607	28280
808.749	28268
808.891	28523
809.033	28596
809.174	28660
809.316	28447
809.458	28371
809.6	28428
809.741	28489
809.883	28504
810.025	28847
810.166	28713
810.308	28713
810.45	28820
810.591	28698
810.733	28424
810.875	28295
811.016	28211
811.158	28341
811.299	28481
811.441	28538
811.582	28573
811.724	28466
811.865	28535
812.007	28306
812.148	28428
812.29	28459
812.431	28672
812.573	28805
812.714	28828
812.855	28908
812.997	29094
813.138	29170
813.279	29109
813.421	28888
813.562	28896
813.703	28687
813.845	28596
813.986	28341
814.127	28352
814.268	28226
814.41	28158
814.551	28246
814.692	28173
814.833	28070
814.974	28124
815.115	28124
815.256	27911
815.397	28040
815.539	27960
815.68	27953
815.821	27808
815.962	27922
816.103	27873
816.244	27850
816.385	27682
816.526	27675
816.666	27420
816.807	27298
816.948	27435
817.089	27485
817.23	27629
817.371	27462
817.512	27515
817.653	27477
817.793	27348
817.934	27466
818.075	27389
818.216	27469
818.356	27332
818.497	27275
818.638	27195
818.778	27165
818.919	27230
819.06	27146
819.2	27370
819.341	27424
819.481	27340
819.622	27606
819.762	27778
819.903	27785
820.043	27743
820.184	27679
820.324	27473
820.465	27553
820.605	27705
820.746	27595
820.886	27336
821.026	27424
821.167	27511
821.307	27507
821.447	27477
821.588	27355
821.728	27367
821.868	27085
822.008	26990
822.149	26940
822.289	27009
822.429	26705
822.569	26537
822.709	26670
822.849	26453
822.99	26393
823.13	26408
823.27	26282
823.41	26218
823.55	26119
823.69	26301
823.83	26381
823.97	26138
824.11	26214
824.25	25921
824.389	26096
824.529	26054
824.669	26107
824.809	26202
824.949	26229
825.089	26161
825.228	26149
825.368	26024
825.508	25936
825.648	25936
825.787	26012
825.927	25986
826.067	25963
826.206	25963
826.346	26012
826.485	25997
826.625	25837
826.765	26134
826.904	25955
827.044	25761
827.183	25651
827.323	25518
827.462	25666
827.601	25651
827.741	25704
827.88	25624
828.02	25529
828.159	25666
828.298	25776
828.437	25689
828.577	25677
828.716	25765
828.855	25628
828.994	25339
829.134	25354
829.273	25415
829.412	25156
829.551	25304
829.69	25270
829.829	25335
829.968	25472
830.107	25438
830.246	25411
830.385	25285
830.524	25247
830.663	25198
830.802	25225
830.941	24920
831.08	24848
831.219	25027
831.357	24928
831.496	25156
831.635	24939
831.774	24817
831.913	24856
832.051	24741
832.19	24597
832.329	24844
832.467	24692
832.606	24646
832.744	24540
832.883	24589
833.022	24593
833.16	24722
833.299	24597
833.437	24757
833.576	24631
833.714	24692
833.852	24749
833.991	24817
834.129	24802
834.267	24635
834.406	24677
834.544	24776
834.682	24597
834.821	24738
834.959	24787
835.097	24544
835.235	24658
835.373	24646
835.511	24707
835.65	24604
835.788	24540
835.926	24384
836.064	24239
836.202	24433
836.34	24525
836.478	24658
836.615	24380
836.753	24498
836.891	24471
837.029	24403
837.167	24266
837.305	24270
837.443	24353
837.58	24361
837.718	24452
837.856	24399
837.993	24395
838.131	24414
838.269	24285
838.406	24266
838.544	24224
838.681	23961
838.819	23965
838.956	23870
839.094	23851
839.231	23817
839.369	23942
839.506	24258
839.643	24083
839.781	23783
839.918	23737
840.055	23790
840.193	23756
840.33	23737
840.467	23817
840.604	23741
840.742	23980
840.879	23600
841.016	23630
841.153	23687
841.29	23771
841.427	23703
841.564	23691
841.701	23764
841.838	23680
841.975	23672
842.112	23562
842.249	23543
842.385	23600
842.522	23691
842.659	23497
842.796	23547
842.933	23516
843.069	23452
843.206	23258
843.343	23535
843.479	23410
843.616	23455
843.752	23269
843.889	23102
844.025	23455
844.162	23269
844.298	23311
844.435	23337
844.571	23254
844.708	23261
844.844	23372
844.98	23429
845.117	23299
845.253	23102
845.389	23098
845.525	23174
845.661	23124
845.798	22927
845.934	23041
846.07	22900
846.206	23029
846.342	23071
846.478	22995
846.614	22809
846.75	22675
846.886	22809
847.022	22809
847.158	22736
847.294	22771
847.429	22725
847.565	22637
847.701	22942
847.837	22375
847.972	22352
848.108	22489
848.244	22443
848.379	22352
848.515	22379
848.65	22242
848.786	22299
848.921	22318
849.057	22348
849.192	22409
849.328	22344
849.463	22417
849.598	22215
849.734	22268
849.869	22162
850.004	21892
850.14	21975
850.275	21956
850.41	22082
850.545	21972
850.68	22036
850.815	21987
850.95	22074
851.085	22135
851.22	22177
851.355	22010
851.49	21892
851.625	22010
851.76	22021
851.895	21998
852.03	21781
852.165	22135
852.299	22002
852.434	22086
852.569	21991
852.703	21994
852.838	21983
852.973	22128
853.107	22139
853.242	21941
853.376	21945
853.511	21717
853.645	21899
853.78	22059
853.914	21793
854.048	21854
854.183	21876
854.317	21865
854.451	22093
854.585	21998
854.72	21831
854.854	21945
854.988	21915
855.122	21861
855.256	21785
855.39	21838
855.524	21895
855.658	21812
855.792	21911
855.926	21899
856.06	21854
856.194	21983
856.327	21778
856.461	21838
856.595	21880
856.729	21918
856.862	22097
856.996	21842
857.13	21991
857.263	21960
857.397	21949
857.53	21797
857.664	21880
857.797	21880
857.931	21953
858.064	21937
858.197	21945
858.331	21812
858.464	21812
858.597	21747
858.731	21842
858.864	21816
858.997	21846
859.13	21880
859.263	21827
859.396	21934
859.529	21865
859.662	21728
859.795	21850
859.928	21865
860.061	21979
860.194	21998
860.327	21838
860.46	21850
860.592	21987
860.725	21892
860.858	21930
860.99	21911
861.123	21644
861.256	21876
861.388	21785
861.521	22485
861.653	21781
861.786	21686
861.918	21660
862.05	21785
862.183	21747
862.315	21690
862.447	21728
862.58	21789
862.712	21633
862.844	21534
862.976	21637
863.108	21595
863.24	21850
863.372	21557
863.504	21587
863.636	21526
863.768	21606
863.9	21488
864.032	21405
864.164	21534
864.296	21583
864.428	21755
864.559	21603
864.691	21606
864.823	21629
864.954	21572
865.086	21447
865.217	21481
865.349	21447
865.48	21477
865.612	21447
865.743	21481
865.875	21454
866.006	21386
866.137	21447
866.269	21447
866.4	21500
866.531	21351
866.662	21439
866.793	21397
866.924	21439
867.055	21355
867.186	21473
867.317	21435
867.448	21283
867.579	21279
867.71	21348
867.841	21275
867.972	21298
868.103	21306
868.233	21439
868.364	21370
868.495	21606
868.625	21671
868.756	21633
868.886	21504
869.017	21568
869.147	21797
869.278	21827
869.408	21561
869.539	21694
869.669	21728
869.799	21663
869.929	21675
870.06	21572
870.19	22029
870.32	21884
870.45	21949
870.58	21964
870.71	22147
870.84	22207
870.97	21960
871.1	22006
871.23	22223
871.36	22048
871.489	22173
871.619	22207
871.749	22147
871.879	22341
872.008	22417
872.138	22226
872.267	22154
872.397	22101
872.526	22101
872.656	22051
872.785	21979
872.915	22181
873.044	22287
873.173	22299
873.303	22325
873.432	22402
873.561	22287
873.69	22276
873.819	22268
873.948	22329
874.077	22226
874.206	22192
874.335	22135
874.464	22371
874.593	22474
874.722	22459
874.851	22512
874.979	22516
875.108	22500
875.237	22360
875.365	22306
875.494	22398
875.623	22508
875.751	22352
875.88	22447
876.008	22637
876.136	22672
876.265	22892
876.393	22934
876.521	22801
876.65	22820
876.778	22915
876.906	22809
877.034	22820
877.162	22809
877.29	22706
877.418	22755
877.546	22816
877.674	22839
877.802	22786
877.93	22900
878.058	22881
878.185	22698
878.313	22733
878.441	22877
878.568	22626
878.696	22717
878.824	22805
878.951	22797
879.079	22904
879.206	23079
879.333	23079
879.461	22911
879.588	22854
879.715	22934
879.842	23159
879.97	22908
880.097	22687
880.224	22596
880.351	22664
880.478	22557
880.605	22645
880.732	22531
880.859	22843
880.986	22611
881.112	22580
881.239	22352
881.366	22257
881.493	22261
881.619	22234
881.746	22192
881.872	22215
881.999	22166
882.125	22158
882.252	22188
882.378	22120
882.505	22265
882.631	22044
882.757	21945
882.883	21895
883.01	21865
883.136	21945
883.262	21812
883.388	21873
883.514	21831
883.64	21956
883.766	21690
883.892	21770
884.018	21663
884.143	21861
884.269	21865
884.395	21599
884.52	21481
884.646	21534
884.772	21416
884.897	21287
885.023	21519
885.148	21709
885.274	21690
885.399	21583
885.524	21576
885.65	21428
885.775	21504
885.9	21545
886.025	21591
886.15	21709
886.275	21408
886.4	21363
886.525	21542
886.65	21389
886.775	21275
886.9	21572
887.025	21618
887.149	21504
887.274	21283
887.399	21226
887.523	21188
887.648	21157
887.773	21123
887.897	21389
888.021	21256
888.146	21313
888.27	21363
888.395	21386
888.519	21283
888.643	21306
888.767	21298
888.891	21047
889.015	21108
889.139	21157
889.263	21005
889.387	21256
889.511	21207
889.635	21199
889.759	21051
889.883	21001
890.006	21127
890.13	21142
890.254	21039
890.377	21013
890.501	20758
890.624	20724
890.748	20918
890.871	20655
890.995	20674
891.118	20697
891.241	20606
891.364	20697
891.488	20636
891.611	20636
891.734	20667
891.857	20655
891.98	20708
892.103	20609
892.226	20670
892.349	20613
892.471	20358
892.594	20552
892.717	20511
892.839	20617
892.962	20556
893.085	20556
893.207	20530
893.33	20442
893.452	20465
893.575	20541
893.697	20587
893.819	20594
893.941	20686
894.064	20731
894.186	20514
894.308	20457
894.43	20617
894.552	20655
894.674	20606
894.796	20427
894.918	20495
895.04	20541
895.161	20720
895.283	20632
895.405	20450
895.526	20568
895.648	20465
895.769	20568
895.891	20568
896.012	20602
896.134	20499
896.255	20514
896.376	20431
896.498	20579
896.619	20495
896.74	20522
896.861	20594
896.982	20868
897.103	20925
897.224	20800
897.345	20807
897.466	20678
897.587	20785
897.708	20826
897.828	20792
897.949	20689
898.07	20609
898.19	20670
898.311	20857
898.431	20689
898.552	20739
898.672	20830
898.792	20830
898.913	20800
899.033	20549
899.153	20587
899.273	20351
899.393	20450
899.513	20655
899.633	20518
899.753	20564
899.873	20533
899.993	20511
900.113	20473
900.232	20389
900.352	20370
900.472	20408
900.591	20058
900.711	20271
900.83	20214
900.95	20446
901.069	20351
901.189	20142
901.308	20027
901.427	19811
901.546	19944
901.665	19913
901.784	19849
901.904	19620
902.023	19670
902.141	19453
902.26	19331
902.379	19403
902.498	19259
902.617	19346
902.735	19308
902.854	19400
902.973	19244
903.091	18935
903.21	18985
903.328	19004
903.446	18935
903.565	18802
903.683	18795
903.801	18730
903.919	18760
904.038	18810
904.156	18616
904.274	18707
904.392	18688
904.51	18456
904.627	18589
904.745	18566
904.863	18665
904.981	18330
905.098	18174
905.216	18365
905.334	18338
905.451	18247
905.569	18296
905.686	18281
905.803	18247
905.921	18057
906.038	18174
906.155	17950
906.272	17969
906.389	17992
906.506	17741
906.623	17771
906.74	17878
906.857	17619
906.974	17665
907.091	17988
907.208	17916
907.324	17775
907.441	17608
907.557	17486
907.674	17623
907.79	17406
907.907	17364
908.023	17463
908.139	17562
908.256	17387
908.372	17425
908.488	17402
908.604	17299
908.72	17220
908.836	17212
908.952	17128
909.068	17307
909.184	17337
909.3	17132
909.415	17208
909.531	17189
909.647	16896
909.762	16927
909.878	16915
909.993	16782
910.108	16873
910.224	16820
910.339	16854
910.454	16691
910.57	16740
910.685	16679
910.8	16980
910.915	16820
911.03	16645
911.145	16542
911.259	16493
911.374	16500
911.489	16352
911.604	16299
911.718	16166
911.833	16253
911.947	16116
912.062	16128
912.176	16169
912.291	16230
912.405	16303
912.519	16375
912.633	16367
912.748	16272
912.862	16154
912.976	16086
913.09	15979
913.204	15922
913.318	16109
913.431	16086
913.545	16169
913.659	16063
913.772	16040
913.886	15941
914	15751
914.113	15865
914.226	16021
914.34	15975
914.453	15728
914.566	15892
914.68	15751
914.793	15781
914.906	15568
915.019	15397
915.132	15408
915.245	15488
915.358	15351
915.47	15405
915.583	15458
915.696	15382
915.809	15458
915.921	15584
916.034	15466
916.146	15386
916.259	15287
916.371	15443
916.483	15397
916.595	15237
916.708	15207
916.82	15336
916.932	15218
917.044	15294
917.156	15146
917.268	15085
917.38	15047
917.491	15051
917.603	15085
917.715	15150
917.826	15260
917.938	14975
918.049	14902
918.161	15013
918.272	15184
918.384	15150
918.495	15032
918.606	14838
918.717	14826
918.828	14899
918.939	14845
919.05	14834
919.161	14872
919.272	14571
919.383	14686
919.494	14811
919.604	14967
919.715	14750
919.826	14765
919.936	14750
920.047	14804
920.157	14800
920.267	14998
920.378	14834
920.488	14758
920.598	14979
920.708	15074
920.818	14956
920.928	14902
921.038	15123
921.148	14956
921.258	14838
921.368	14621
921.477	14537
921.587	14461
921.697	14351
921.806	14461
921.916	14442
922.025	14233
922.134	14145
922.244	14065
922.353	14119
922.462	14142
922.571	13978
922.68	13765
922.789	13833
922.898	13868
923.007	13746
923.116	13845
923.224	13700
923.333	13746
923.442	13601
923.55	13662
923.659	13613
923.767	13670
923.876	13594
923.984	13548
924.092	13487
924.201	13487
924.309	13582
924.417	13559
924.525	13506
924.633	13419
924.741	14454
924.849	13263
924.956	13331
925.064	13274
925.172	13118
925.279	13099
925.387	13244
925.494	13213
925.602	13282
925.709	13316
925.816	13088
925.924	13232
926.031	13198
926.138	13175
926.245	13202
926.352	13072
926.459	13110
926.566	13247
926.673	13076
926.779	12935
926.886	12924
926.993	12700
927.099	12757
927.206	12715
927.312	12700
927.419	12779
927.525	12825
927.631	12745
927.737	12669
927.843	12551
927.95	12555
928.056	12544
928.162	12582
928.267	12642
928.373	13164
928.479	12658
928.585	12460
928.69	12422
928.796	12536
928.901	12429
929.007	12258
929.112	12380
929.218	12407
929.323	12365
929.428	12258
929.533	12388
929.638	12289
929.743	12235
929.848	12315
929.953	12224
930.058	12235
930.163	12125
930.267	11897
930.372	12083
930.477	11946
930.581	12129
930.685	12095
930.79	11866
930.894	11874
930.998	11851
931.103	11923
931.207	11619
931.311	11615
931.415	11467
931.519	11299
931.623	11216
