Data from test_V78500241_2767.txt Node
Date: Fri Mar 25 16:00:58 CST 2022
User: usil
Spectrometer: V785-0024
Trigger mode: 0
Integration Time (sec): 4.000000E-1
Scans to average: 1
Nonlinearity correction enabled: false
Boxcar width: 0
Storing dark spectrum: false
XAxis mode: Wavelengths
Number of Pixels in Spectrum: 1024
>>>>>Begin Spectral Data<<<<<
801.071	28786
801.214	28881
801.356	28584
801.499	28584
801.641	28474
801.783	28538
801.926	28535
802.068	28504
802.211	28367
802.353	28443
802.496	28261
802.638	28150
802.78	28150
802.923	28139
803.065	28059
803.208	28143
803.35	28090
803.492	28284
803.635	28356
803.777	28109
803.919	28451
804.061	28565
804.204	28333
804.346	28455
804.488	28181
804.63	28386
804.773	28405
804.915	28386
805.057	28664
805.199	28432
805.341	28382
805.483	28512
805.626	28626
805.768	28542
805.91	28561
806.052	28672
806.194	28542
806.336	28634
806.478	28455
806.62	28557
806.762	28744
806.904	28934
807.046	29170
807.188	29090
807.33	29010
807.472	29075
807.614	28980
807.756	28980
807.898	28915
808.04	28797
808.182	28790
808.324	28942
808.465	28843
808.607	29155
808.749	29273
808.891	29497
809.033	29505
809.174	29258
809.316	29189
809.458	29318
809.6	29132
809.741	29311
809.883	29448
810.025	29592
810.166	29512
810.308	29585
810.45	29512
810.591	29452
810.733	29231
810.875	29288
811.016	29151
811.158	29155
811.299	29395
811.441	29474
811.582	29471
811.724	29296
811.865	29337
812.007	29261
812.148	29303
812.29	29345
812.431	29600
812.573	29691
812.714	29767
812.855	29824
812.997	29954
813.138	29965
813.279	29969
813.421	29783
813.562	29661
813.703	29596
813.845	29414
813.986	29280
814.127	29105
814.268	29075
814.41	29102
814.551	29102
814.692	29132
814.833	28862
814.974	28862
815.115	29033
815.256	28828
815.397	28900
815.539	29006
815.68	28778
815.821	28778
815.962	28805
816.103	28835
816.244	28725
816.385	28664
816.526	28607
816.666	28432
816.807	28310
816.948	28272
817.089	28512
817.23	28386
817.371	28249
817.512	28291
817.653	28166
817.793	28306
817.934	28318
818.075	28325
818.216	28303
818.356	28242
818.497	28234
818.638	27998
818.778	28223
818.919	28090
819.06	28150
819.2	28124
819.341	28352
819.481	28401
819.622	28333
819.762	28702
819.903	28584
820.043	28569
820.184	28447
820.324	28478
820.465	28592
820.605	28489
820.746	28371
820.886	28322
821.026	28500
821.167	28367
821.307	28557
821.447	28329
821.588	28128
821.728	28200
821.868	27903
822.008	27831
822.149	27778
822.289	27846
822.429	27420
822.569	27504
822.709	27507
822.849	27363
822.99	27397
823.13	27370
823.27	27325
823.41	27260
823.55	27058
823.69	27173
823.83	27032
823.97	27096
824.11	26998
824.25	26758
824.389	26864
824.529	27150
824.669	27020
824.809	27165
824.949	26921
825.089	27165
825.228	26940
825.368	26800
825.508	26868
825.648	26899
825.787	26914
825.927	26872
826.067	26918
826.206	26788
826.346	26940
826.485	26663
826.625	26746
826.765	27039
826.904	26937
827.044	26686
827.183	26590
827.323	26545
827.462	26613
827.601	26636
827.741	26446
827.88	26640
828.02	26446
828.159	26545
828.298	26503
828.437	26568
828.577	26488
828.716	26583
828.855	26419
828.994	26240
829.134	26301
829.273	26301
829.412	26244
829.551	26191
829.69	26324
829.829	26244
829.968	26282
830.107	26259
830.246	26336
830.385	26206
830.524	26142
830.663	26126
830.802	25879
830.941	25750
831.08	25856
831.219	25951
831.357	25928
831.496	26172
831.635	25757
831.774	25868
831.913	25708
832.051	25556
832.19	25651
832.329	25590
832.467	25521
832.606	25468
832.744	25449
832.883	25407
833.022	25491
833.16	25563
833.299	25556
833.437	25597
833.576	25613
833.714	25693
833.852	25674
833.991	25575
834.129	25795
834.267	25708
834.406	25597
834.544	25662
834.682	25537
834.821	25677
834.959	25677
835.097	25438
835.235	25529
835.373	25597
835.511	25529
835.65	25411
835.788	25331
835.926	25316
836.064	25217
836.202	25259
836.34	25411
836.478	25468
836.615	25251
836.753	25479
836.891	25460
837.029	25343
837.167	25270
837.305	25270
837.443	25438
837.58	25160
837.718	25388
837.856	25331
837.993	25217
838.131	25198
838.269	25088
838.406	25118
838.544	24951
838.681	25000
838.819	24806
838.956	24738
839.094	24913
839.231	24810
839.369	24958
839.506	24985
839.643	24878
839.781	24779
839.918	24696
840.055	24719
840.193	24570
840.33	24601
840.467	24700
840.604	24760
840.742	24837
840.879	24441
841.016	24437
841.153	24369
841.29	24696
841.427	24532
841.564	24601
841.701	24642
841.838	24528
841.975	24521
842.112	24460
842.249	24388
842.385	24399
842.522	24627
842.659	24410
842.796	24334
842.933	24319
843.069	24380
843.206	24365
843.343	24429
843.479	24403
843.616	24410
843.752	24216
843.889	24201
844.025	24178
844.162	24076
844.298	24292
844.435	24114
844.571	24087
844.708	24258
844.844	24273
844.98	24171
845.117	24201
845.253	24087
845.389	23992
845.525	24095
845.661	24079
845.798	23836
845.934	23927
846.07	23878
846.206	23798
846.342	23988
846.478	23836
846.614	23592
846.75	23615
846.886	23570
847.022	23573
847.158	23497
847.294	23608
847.429	23710
847.565	23528
847.701	23828
847.837	23387
847.972	23220
848.108	23406
848.244	23379
848.379	23242
848.515	23162
848.65	23140
848.786	23242
848.921	23246
849.057	23178
849.192	23273
849.328	23246
849.463	23136
849.598	23075
849.734	23075
849.869	22995
850.004	22911
850.14	23010
850.275	22904
850.41	22839
850.545	22790
850.68	22850
850.815	22923
850.95	22968
851.085	23067
851.22	23155
851.355	22885
851.49	22847
851.625	22782
851.76	22965
851.895	22706
852.03	22911
852.165	22919
852.299	22995
852.434	23029
852.569	22889
852.703	22938
852.838	22965
852.973	23105
853.107	23064
853.242	22774
853.376	22816
853.511	22729
853.645	22713
853.78	22721
853.914	22683
854.048	22710
854.183	22831
854.317	22869
854.451	23086
854.585	22778
854.72	22611
854.854	22984
854.988	22687
855.122	22896
855.256	22577
855.39	22752
855.524	22812
855.658	22828
855.792	22801
855.926	22710
856.06	22797
856.194	22793
856.327	22771
856.461	22660
856.595	22630
856.729	22656
856.862	22885
856.996	22733
857.13	22835
857.263	22816
857.397	22835
857.53	22679
857.664	22858
857.797	22790
857.931	22793
858.064	22809
858.197	22759
858.331	22626
858.464	22603
858.597	22653
858.731	22729
858.864	22729
858.997	22752
859.13	22713
859.263	22763
859.396	22797
859.529	22691
859.662	22717
859.795	22809
859.928	22793
860.061	22881
860.194	22995
860.327	22824
860.46	22812
860.592	22759
860.725	22938
860.858	22824
860.99	22786
861.123	22664
861.256	22713
861.388	22778
861.521	23539
861.653	22542
861.786	22500
861.918	22554
862.05	22778
862.183	22618
862.315	22812
862.447	22778
862.58	22679
862.712	22417
862.844	22466
862.976	22618
863.108	22512
863.24	22938
863.372	22367
863.504	22451
863.636	22523
863.768	22470
863.9	22451
864.032	22462
864.164	22405
864.296	22516
864.428	22634
864.559	22634
864.691	22489
864.823	22569
864.954	22538
865.086	22508
865.217	22257
865.349	22211
865.48	22363
865.612	22379
865.743	22436
865.875	22272
866.006	22287
866.137	22333
866.269	22268
866.4	22348
866.531	22386
866.662	22128
866.793	22306
866.924	22177
867.055	22185
867.186	22280
867.317	22253
867.448	22128
867.579	22249
867.71	22181
867.841	22219
867.972	22405
868.103	22230
868.233	22303
868.364	22246
868.495	22272
868.625	22580
868.756	22500
868.886	22493
869.017	22508
869.147	22497
869.278	22717
869.408	22542
869.539	22493
869.669	22622
869.799	22512
869.929	22637
870.06	22607
870.19	22919
870.32	22790
870.45	22755
870.58	22976
870.71	22961
870.84	23014
870.97	22866
871.1	22892
871.23	23075
871.36	23033
871.489	23094
871.619	23018
871.749	22942
871.879	23121
872.008	23322
872.138	23132
872.267	23098
872.397	22942
872.526	22923
872.656	22873
872.785	22911
872.915	23048
873.044	23083
873.173	23147
873.303	23200
873.432	23216
873.561	23284
873.69	23090
873.819	23086
873.948	23258
874.077	23220
874.206	23143
874.335	23094
874.464	23235
874.593	23353
874.722	23292
874.851	23383
874.979	23379
875.108	23311
875.237	23311
875.365	23315
875.494	23284
875.623	23372
875.751	23318
875.88	23471
876.008	23417
876.136	23585
876.265	23771
876.393	23847
876.521	23802
876.65	23927
876.778	23870
876.906	23699
877.034	23562
877.162	23779
877.29	23512
877.418	23813
877.546	23760
877.674	23756
877.802	23646
877.93	23638
878.058	23604
878.185	23642
878.313	23577
878.441	23817
878.568	23531
878.696	23668
878.824	23783
878.951	23764
879.079	23855
879.206	23977
879.333	23961
879.461	23729
879.588	23764
879.715	23866
879.842	23931
879.97	23843
880.097	23604
880.224	23539
880.351	23619
880.478	23627
880.605	23410
880.732	23471
880.859	23733
880.986	23615
881.112	23493
881.239	23360
881.366	23250
881.493	23181
881.619	23029
881.746	23075
881.872	23064
881.999	23083
882.125	23025
882.252	23170
882.378	23044
882.505	23258
882.631	23003
882.757	22755
882.883	22790
883.01	22752
883.136	22736
883.262	22603
883.388	22645
883.514	22736
883.64	22786
883.766	22630
883.892	22542
884.018	22462
884.143	22653
884.269	22702
884.395	22508
884.52	22272
884.646	22303
884.772	22306
884.897	22246
885.023	22436
885.148	22447
885.274	22557
885.399	22500
885.524	22371
885.65	22287
885.775	22337
885.9	22375
886.025	22538
886.15	22363
886.275	22284
886.4	22375
886.525	22268
886.65	22360
886.775	22249
886.9	22470
887.025	22557
887.149	22238
887.274	22143
887.399	22219
887.523	22048
887.648	22177
887.773	22032
887.897	22143
888.021	22162
888.146	22090
888.27	22287
888.395	22173
888.519	22090
888.643	22006
888.767	22242
888.891	22048
889.015	21918
889.139	21972
889.263	21778
889.387	21968
889.511	22169
889.635	22124
889.759	21975
889.883	21903
890.006	21941
890.13	21949
890.254	21766
890.377	21846
890.501	21622
890.624	21599
890.748	21717
890.871	21629
890.995	21485
891.118	21485
891.241	21603
891.364	21370
891.488	21656
891.611	21439
891.734	21526
891.857	21401
891.98	21515
892.103	21557
892.226	21545
892.349	21340
892.471	21313
892.594	21370
892.717	21393
892.839	21355
892.962	21310
893.085	21344
893.207	21378
893.33	21260
893.452	21447
893.575	21363
893.697	21302
893.819	21473
893.941	21515
894.064	21549
894.186	21211
894.308	21336
894.43	21393
894.552	21542
894.674	21378
894.796	21146
894.918	21203
895.04	21405
895.161	21416
895.283	21325
895.405	21249
895.526	21313
895.648	21222
895.769	21317
895.891	21351
896.012	21386
896.134	21298
896.255	21370
896.376	21272
896.498	21370
896.619	21325
896.74	21374
896.861	21374
896.982	21709
897.103	21701
897.224	21542
897.345	21576
897.466	21542
897.587	21477
897.708	21625
897.828	21538
897.949	21485
898.07	21405
898.19	21458
898.311	21622
898.431	21542
898.552	21595
898.672	21682
898.792	21561
898.913	21637
899.033	21287
899.153	21283
899.273	21214
899.393	21230
899.513	21443
899.633	21150
899.753	21340
899.873	21123
899.993	21230
900.113	21062
900.232	21211
900.352	21157
900.472	21146
900.591	20952
900.711	21085
900.83	20914
900.95	21142
901.069	21112
901.189	20944
901.308	20606
901.427	20507
901.546	20617
901.665	20644
901.784	20590
901.904	20393
902.023	20317
902.141	20225
902.26	20157
902.379	20164
902.498	20050
902.617	20062
902.735	20088
902.854	19997
902.973	19967
903.091	19609
903.21	19700
903.328	19795
903.446	19639
903.565	19559
903.683	19613
903.801	19426
903.919	19396
904.038	19483
904.156	19236
904.274	19419
904.392	19217
904.51	19270
904.627	19255
904.745	19346
904.863	19259
904.981	19129
905.098	18966
905.216	18970
905.334	18905
905.451	19034
905.569	18875
905.686	18897
905.803	19027
905.921	18852
906.038	18795
906.155	18665
906.272	18658
906.389	18719
906.506	18490
906.623	18528
906.74	18490
906.857	18300
906.974	18357
907.091	18467
907.208	18639
907.324	18559
907.441	18464
907.557	18270
907.674	18232
907.79	18117
907.907	18243
908.023	18186
908.139	18277
908.256	18117
908.372	17980
908.488	18026
908.604	17855
908.72	17939
908.836	17863
908.952	17798
909.068	18015
909.184	18015
909.3	17923
909.415	17847
909.531	17935
909.647	17630
909.762	17551
909.878	17661
909.993	17649
910.108	17554
910.224	17444
910.339	17630
910.454	17436
910.57	17425
910.685	17368
910.8	17554
910.915	17524
911.03	17284
911.145	17208
911.259	17166
911.374	17242
911.489	17079
911.604	17128
911.718	16919
911.833	16869
911.947	16904
912.062	16660
912.176	16892
912.291	16919
912.405	16877
912.519	17128
912.633	17086
912.748	17022
912.862	16866
912.976	16729
913.09	16466
913.204	16748
913.318	16713
913.431	16771
913.545	16778
913.659	16793
913.772	16660
913.886	16596
914	16489
914.113	16497
914.226	16599
914.34	16599
914.453	16379
914.566	16550
914.68	16367
914.793	16303
914.906	16177
915.019	16185
915.132	16082
915.245	16090
915.358	16044
915.47	16128
915.583	16093
915.696	16013
915.809	16074
915.921	16200
916.034	16010
916.146	15945
916.259	15873
916.371	16029
916.483	16013
916.595	15861
916.708	15915
916.82	15907
916.932	15895
917.044	15861
917.156	15804
917.268	15618
917.38	15755
917.491	15747
917.603	15641
917.715	15747
917.826	15800
917.938	15530
918.049	15523
918.161	15808
918.272	15675
918.384	15644
918.495	15614
918.606	15447
918.717	15298
918.828	15439
918.939	15401
919.05	15393
919.161	15428
919.272	15188
919.383	15272
919.494	15367
919.604	15564
919.715	15386
919.826	15325
919.936	15321
920.047	15488
920.157	15336
920.267	15622
920.378	15412
920.488	15332
920.598	15576
920.708	15713
920.818	15526
920.928	15428
921.038	15587
921.148	15656
921.258	15310
921.368	15237
921.477	15020
921.587	15051
921.697	14956
921.806	15074
921.916	14963
922.025	14796
922.134	14727
922.244	14762
922.353	14785
922.462	14526
922.571	14571
922.68	14415
922.789	14408
922.898	14259
923.007	14343
923.116	14343
923.224	14389
923.333	14294
923.442	14229
923.55	14168
923.659	14214
923.767	14244
923.876	14024
923.984	14206
924.092	14027
924.201	14100
924.309	14103
924.417	14077
924.525	14024
924.633	14012
924.741	14868
924.849	13833
924.956	13959
925.064	13757
925.172	13666
925.279	13723
925.387	13712
925.494	13769
925.602	13909
925.709	13750
925.816	13510
925.924	13639
926.031	13693
926.138	13727
926.245	13769
926.352	13620
926.459	13765
926.566	13727
926.673	13601
926.779	13449
926.886	13449
926.993	13240
927.099	13316
927.206	13282
927.312	13149
927.419	13346
927.525	13301
927.631	13289
927.737	13141
927.843	13069
927.95	12989
928.056	13031
928.162	13076
928.267	13099
928.373	13620
928.479	13209
928.585	12859
928.69	13095
928.796	13080
928.901	12970
929.007	12779
929.112	12932
929.218	12791
929.323	12878
929.428	12783
929.533	12913
929.638	12688
929.743	12753
929.848	12764
929.953	12745
930.058	12631
930.163	12502
930.267	12467
930.372	12631
930.477	12426
930.581	12585
930.685	12441
930.79	12315
930.894	12437
930.998	12308
931.103	12407
931.207	12076
931.311	11992
931.415	11912
931.519	11809
931.623	11668
