Data from test_V78500241_707.txt Node
Date: Fri Mar 25 15:46:41 CST 2022
User: usil
Spectrometer: V785-0024
Trigger mode: 0
Integration Time (sec): 4.000000E-1
Scans to average: 1
Nonlinearity correction enabled: false
Boxcar width: 0
Storing dark spectrum: false
XAxis mode: Wavelengths
Number of Pixels in Spectrum: 1024
>>>>>Begin Spectral Data<<<<<
801.071	27873
801.214	27675
801.356	27378
801.499	27408
801.641	27332
801.783	27306
801.926	27382
802.068	27401
802.211	27184
802.353	27195
802.496	26929
802.638	27051
802.78	27043
802.923	26773
803.065	26982
803.208	26944
803.35	27009
803.492	27241
803.635	27310
803.777	27116
803.919	27142
804.061	27492
804.204	27150
804.346	27074
804.488	26994
804.63	27093
804.773	27119
804.915	27195
805.057	27317
805.199	27351
805.341	27142
805.483	27294
805.626	27378
805.768	27237
805.91	27260
806.052	27351
806.194	27275
806.336	27393
806.478	27336
806.62	27252
806.762	27557
806.904	27675
807.046	27975
807.188	27865
807.33	27686
807.472	27819
807.614	27812
807.756	27755
807.898	27568
808.04	27466
808.182	27450
808.324	27606
808.465	27416
808.607	27945
808.749	27960
808.891	27991
809.033	28021
809.174	28070
809.316	27926
809.458	28002
809.6	27903
809.741	28067
809.883	28181
810.025	28272
810.166	28162
810.308	28284
810.45	28063
810.591	28181
810.733	27926
810.875	27956
811.016	27865
811.158	27819
811.299	28078
811.441	28105
811.582	28101
811.724	28006
811.865	27964
812.007	27987
812.148	27998
812.29	28010
812.431	28036
812.573	28230
812.714	28478
812.855	28474
812.997	28447
813.138	28675
813.279	28481
813.421	28569
813.562	28291
813.703	28299
813.845	27994
813.986	27835
814.127	27637
814.268	27667
814.41	27705
814.551	27622
814.692	27842
814.833	27515
814.974	27618
815.115	27530
815.256	27523
815.397	27435
815.539	27526
815.68	27420
815.821	27454
815.962	27431
816.103	27306
816.244	27313
816.385	27165
816.526	27310
816.666	27093
816.807	27032
816.948	27013
817.089	27028
817.23	27074
817.371	26887
817.512	26796
817.653	26891
817.793	26921
817.934	26887
818.075	26956
818.216	26921
818.356	26948
818.497	26697
818.638	26674
818.778	26579
818.919	26575
819.06	26769
819.2	26731
819.341	26986
819.481	26986
819.622	27096
819.762	27264
819.903	27336
820.043	27039
820.184	27047
820.324	26975
820.465	27104
820.605	26963
820.746	26883
820.886	26960
821.026	27089
821.167	27070
821.307	26952
821.447	26861
821.588	26750
821.728	26807
821.868	26648
822.008	26476
822.149	26332
822.289	26431
822.429	26115
822.569	26050
822.709	26149
822.849	25856
822.99	25898
823.13	25936
823.27	25814
823.41	25761
823.55	25601
823.69	25712
823.83	25582
823.97	25715
824.11	25460
824.25	25559
824.389	25708
824.529	25693
824.669	25518
824.809	25624
824.949	25643
825.089	25586
825.228	25651
825.368	25396
825.508	25339
825.648	25438
825.787	25518
825.927	25544
826.067	25339
826.206	25487
826.346	25499
826.485	25552
826.625	25483
826.765	25460
826.904	25350
827.044	25164
827.183	25023
827.323	25088
827.462	25168
827.601	25122
827.741	25031
827.88	25000
828.02	24916
828.159	25133
828.298	24958
828.437	25202
828.577	25046
828.716	25270
828.855	25099
828.994	24897
829.134	24817
829.273	24791
829.412	24802
829.551	24802
829.69	24738
829.829	24764
829.968	24753
830.107	24776
830.246	24875
830.385	24783
830.524	24623
830.663	24585
830.802	24521
830.941	24547
831.08	24380
831.219	24426
831.357	24475
831.496	24814
831.635	24433
831.774	24376
831.913	24296
832.051	24258
832.19	24273
832.329	24254
832.467	24072
832.606	24133
832.744	24117
832.883	24129
833.022	24102
833.16	24167
833.299	24038
833.437	24030
833.576	24038
833.714	24076
833.852	24140
833.991	24121
834.129	24220
834.267	24110
834.406	24182
834.544	24213
834.682	24152
834.821	24068
834.959	24182
835.097	24018
835.235	24254
835.373	24235
835.511	24079
835.65	24011
835.788	24072
835.926	23843
836.064	23798
836.202	23931
836.34	24102
836.478	24106
836.615	23870
836.753	24011
836.891	23999
837.029	23954
837.167	23973
837.305	23939
837.443	23859
837.58	23745
837.718	23893
837.856	23885
837.993	23863
838.131	23726
838.269	23748
838.406	23676
838.544	23604
838.681	23482
838.819	23459
838.956	23353
839.094	23303
839.231	23235
839.369	23383
839.506	23615
839.643	23459
839.781	23303
839.918	23269
840.055	23174
840.193	23292
840.33	23269
840.467	23197
840.604	23208
840.742	23471
840.879	23086
841.016	23151
841.153	23090
841.29	23334
841.427	23197
841.564	23349
841.701	23242
841.838	23140
841.975	22987
842.112	23170
842.249	23147
842.385	23098
842.522	23246
842.659	23105
842.796	23075
842.933	22866
843.069	22942
843.206	22942
843.343	22976
843.479	22995
843.616	22847
843.752	22767
843.889	22759
844.025	22702
844.162	22771
844.298	22892
844.435	22687
844.571	22763
844.708	22908
844.844	22900
844.98	22866
845.117	22892
845.253	22561
845.389	22550
845.525	22740
845.661	22599
845.798	22542
845.934	22519
846.07	22417
846.206	22466
846.342	22584
846.478	22417
846.614	22287
846.75	22196
846.886	22173
847.022	22299
847.158	22147
847.294	22238
847.429	22261
847.565	22044
847.701	22371
847.837	21945
847.972	21945
848.108	22021
848.244	22059
848.379	21854
848.515	21766
848.65	21835
848.786	21762
848.921	21762
849.057	21953
849.192	21861
849.328	21778
849.463	21717
849.598	21800
849.734	21759
849.869	21625
850.004	21686
850.14	21564
850.275	21534
850.41	21428
850.545	21439
850.68	21466
850.815	21603
850.95	21568
851.085	21675
851.22	21641
851.355	21583
851.49	21450
851.625	21572
851.76	21466
851.895	21496
852.03	21599
852.165	21572
852.299	21625
852.434	21603
852.569	21534
852.703	21431
852.838	21519
852.973	21701
853.107	21675
853.242	21603
853.376	21348
853.511	21344
853.645	21386
853.78	21500
853.914	21397
854.048	21336
854.183	21397
854.317	21310
854.451	21557
854.585	21374
854.72	21329
854.854	21519
854.988	21283
855.122	21378
855.256	21230
855.39	21424
855.524	21549
855.658	21416
855.792	21351
855.926	21492
856.06	21382
856.194	21351
856.327	21199
856.461	21283
856.595	21272
856.729	21363
856.862	21401
856.996	21370
857.13	21443
857.263	21435
857.397	21538
857.53	21340
857.664	21561
857.797	21526
857.931	21511
858.064	21310
858.197	21439
858.331	21340
858.464	21279
858.597	21291
858.731	21279
858.864	21180
858.997	21291
859.13	21393
859.263	21378
859.396	21564
859.529	21310
859.662	21203
859.795	21321
859.928	21351
860.061	21530
860.194	21553
860.327	21435
860.46	21431
860.592	21523
860.725	21477
860.858	21492
860.99	21321
861.123	21268
861.256	21382
861.388	21291
861.521	21903
861.653	21226
861.786	21184
861.918	21043
862.05	21214
862.183	21161
862.315	21329
862.447	21435
862.58	21230
862.712	21093
862.844	20998
862.976	21157
863.108	21119
863.24	21561
863.372	21028
863.504	21245
863.636	21039
863.768	21062
863.9	21066
864.032	21058
864.164	21017
864.296	21066
864.428	21233
864.559	21218
864.691	21199
864.823	21001
864.954	21123
865.086	20982
865.217	20948
865.349	20937
865.48	20921
865.612	21028
865.743	21123
865.875	21036
866.006	20910
866.137	21093
866.269	20975
866.4	20998
866.531	21051
866.662	20910
866.793	20887
866.924	20948
867.055	21020
867.186	21039
867.317	20777
867.448	20705
867.579	21013
867.71	20804
867.841	20849
867.972	20891
868.103	21001
868.233	20883
868.364	20830
868.495	21070
868.625	21112
868.756	21203
868.886	21043
869.017	21222
869.147	21195
869.278	21287
869.408	21195
869.539	21173
869.669	21317
869.799	21226
869.929	21233
870.06	21264
870.19	21526
870.32	21306
870.45	21428
870.58	21568
870.71	21667
870.84	21515
870.97	21610
871.1	21526
871.23	21755
871.36	21755
871.489	21587
871.619	21705
871.749	21766
871.879	21781
872.008	21895
872.138	21766
872.267	21660
872.397	21614
872.526	21545
872.656	21488
872.785	21603
872.915	21835
873.044	21850
873.173	21781
873.303	21797
873.432	21781
873.561	21850
873.69	21766
873.819	21785
873.948	21937
874.077	21781
874.206	21682
874.335	21728
874.464	21895
874.593	21998
874.722	21937
874.851	22036
874.979	21911
875.108	22025
875.237	21972
875.365	21949
875.494	21873
875.623	22116
875.751	21964
875.88	22112
876.008	22143
876.136	22173
876.265	22333
876.393	22565
876.521	22497
876.65	22390
876.778	22500
876.906	22352
877.034	22249
877.162	22424
877.29	22299
877.418	22352
877.546	22367
877.674	22356
877.802	22253
877.93	22329
878.058	22356
878.185	22139
878.313	22219
878.441	22352
878.568	22188
878.696	22284
878.824	22371
878.951	22443
879.079	22516
879.206	22637
879.333	22535
879.461	22318
879.588	22459
879.715	22599
879.842	22641
879.97	22508
880.097	22219
880.224	22131
880.351	22204
880.478	22219
880.605	22204
880.732	22017
880.859	22489
880.986	22169
881.112	22306
881.239	22040
881.366	21941
881.493	21972
881.619	21724
881.746	21846
881.872	21694
881.999	21717
882.125	21568
882.252	21720
882.378	21717
882.505	21865
882.631	21580
882.757	21378
882.883	21553
883.01	21466
883.136	21496
883.262	21291
883.388	21188
883.514	21469
883.64	21408
883.766	21439
883.892	21043
884.018	21310
884.143	21340
884.269	21504
884.395	21203
884.52	21104
884.646	21081
884.772	21074
884.897	21013
885.023	21062
885.148	21104
885.274	21226
885.399	21192
885.524	21146
885.65	21013
885.775	21138
885.9	21089
886.025	21207
886.15	21135
886.275	21051
886.4	21036
886.525	21005
886.65	20937
886.775	21024
886.9	21104
887.025	21241
887.149	21024
887.274	20899
887.399	20895
887.523	20823
887.648	20807
887.773	20697
887.897	21032
888.021	20811
888.146	20883
888.27	20921
888.395	20960
888.519	20849
888.643	20845
888.767	20899
888.891	20788
889.015	20606
889.139	20823
889.263	20716
889.387	20636
889.511	20868
889.635	20765
889.759	20682
889.883	20636
890.006	20697
890.13	20845
890.254	20625
890.377	20541
890.501	20358
890.624	20358
890.748	20522
890.871	20233
890.995	20233
891.118	20191
891.241	20244
891.364	20301
891.488	20294
891.611	20202
891.734	20237
891.857	20275
891.98	20271
892.103	20168
892.226	20259
892.349	20103
892.471	20077
892.594	20172
892.717	20134
892.839	20126
892.962	20126
893.085	20134
893.207	20176
893.33	20043
893.452	20103
893.575	20210
893.697	20100
893.819	20263
893.941	20275
894.064	20187
894.186	20107
894.308	20054
894.43	20225
894.552	20202
894.674	20103
894.796	20092
894.918	20195
895.04	20096
895.161	20187
895.283	20214
895.405	20043
895.526	20103
895.648	20103
895.769	20111
895.891	20092
896.012	20176
896.134	20157
896.255	20278
896.376	20043
896.498	20164
896.619	20153
896.74	20176
896.861	20180
896.982	20438
897.103	20594
897.224	20347
897.345	20343
897.466	20187
897.587	20393
897.708	20457
897.828	20317
897.949	20244
898.07	20027
898.19	20240
898.311	20400
898.431	20358
898.552	20377
898.672	20271
898.792	20408
898.913	20446
899.033	20214
899.153	20214
899.273	20054
899.393	20035
899.513	20111
899.633	20035
899.753	19944
899.873	20065
899.993	20039
900.113	19959
900.232	19986
900.352	19947
900.472	19898
900.591	19902
900.711	19856
900.83	19746
900.95	19875
901.069	19921
901.189	19841
901.308	19559
901.427	19514
901.546	19339
901.665	19354
901.784	19616
901.904	19331
902.023	19168
902.141	19088
902.26	19046
902.379	19072
902.498	18909
902.617	18878
902.735	18954
902.854	18905
902.973	18871
903.091	18608
903.21	18608
903.328	18658
903.446	18559
903.565	18486
903.683	18479
903.801	18342
903.919	18429
904.038	18372
904.156	18190
904.274	18330
904.392	18136
904.51	18102
904.627	18235
904.745	18235
904.863	18281
904.981	18015
905.098	17851
905.216	17904
905.334	17954
905.451	17786
905.569	17897
905.686	17980
905.803	17847
905.921	17665
906.038	17786
906.155	17672
906.272	17577
906.389	17657
906.506	17452
906.623	17429
906.74	17509
906.857	17307
906.974	17406
907.091	17532
907.208	17482
907.324	17463
907.441	17265
907.557	17246
907.674	17143
907.79	17098
907.907	17060
908.023	17197
908.139	17132
908.256	17071
908.372	17033
908.488	16915
908.604	16854
908.72	16881
908.836	16889
908.952	16831
909.068	16866
909.184	16972
909.3	16824
909.415	16763
909.531	16744
909.647	16656
909.762	16588
909.878	16558
909.993	16531
910.108	16504
910.224	16558
910.339	16596
910.454	16333
910.57	16280
910.685	16272
910.8	16546
910.915	16523
911.03	16299
911.145	16310
911.259	16196
911.374	16207
911.489	16006
911.604	15911
911.718	15903
911.833	15949
911.947	15911
912.062	15899
912.176	15876
912.291	15926
912.405	15899
912.519	16173
912.633	16063
912.748	15884
912.862	15804
912.976	15778
913.09	15580
913.204	15618
913.318	15641
913.431	15778
913.545	15797
913.659	15789
913.772	15663
913.886	15534
914	15420
914.113	15625
914.226	15587
914.34	15561
914.453	15374
914.566	15500
914.68	15496
914.793	15313
914.906	15188
915.019	15119
915.132	15013
915.245	15081
915.358	15150
915.47	15154
915.583	14956
915.696	15222
915.809	15241
915.921	15283
916.034	14990
916.146	15024
916.259	14990
916.371	14994
916.483	15135
916.595	14963
916.708	14979
916.82	14891
916.932	14868
917.044	14948
917.156	14891
917.268	14769
917.38	14845
917.491	14735
917.603	14781
917.715	14872
917.826	14815
917.938	14663
918.049	14655
918.161	14693
918.272	14853
918.384	14853
918.495	14716
918.606	14526
918.717	14461
918.828	14495
918.939	14518
919.05	14473
919.161	14514
919.272	14370
919.383	14358
919.494	14526
919.604	14762
919.715	14621
919.826	14526
919.936	14495
920.047	14473
920.157	14461
920.267	14724
920.378	14526
920.488	14415
920.598	14705
920.708	14762
920.818	14583
920.928	14629
921.038	14754
921.148	14777
921.258	14473
921.368	14309
921.477	14218
921.587	14161
921.697	14103
921.806	14229
921.916	14073
922.025	13921
922.134	13959
922.244	13753
922.353	13902
922.462	13700
922.571	13757
922.68	13597
922.789	13514
922.898	13556
923.007	13426
923.116	13674
923.224	13499
923.333	13556
923.442	13369
923.55	13358
923.659	13373
923.767	13403
923.876	13213
923.984	13445
924.092	13202
924.201	13263
924.309	13228
924.417	13217
924.525	13240
924.633	13194
924.741	14126
924.849	12966
924.956	13202
925.064	13053
925.172	12856
925.279	12924
925.387	12939
925.494	12909
925.602	13145
925.709	12962
925.816	12760
925.924	12871
926.031	13008
926.138	12935
926.245	12970
926.352	12802
926.459	12913
926.566	12894
926.673	12829
926.779	12734
926.886	12627
926.993	12509
927.099	12589
927.206	12486
927.312	12456
927.419	12570
927.525	12483
927.631	12578
927.737	12403
927.843	12308
927.95	12273
928.056	12376
928.162	12353
928.267	12422
928.373	13069
928.479	12361
928.585	12194
928.69	12232
928.796	12285
928.901	12220
929.007	12015
929.112	12213
929.218	12201
929.323	12102
929.428	12026
929.533	12190
929.638	11965
929.743	11965
929.848	12136
929.953	12007
930.058	11855
930.163	11786
930.267	11729
930.372	11866
930.477	11726
930.581	12019
930.685	11775
930.79	11672
930.894	11589
930.998	11611
931.103	11737
931.207	11391
931.311	11311
931.415	11216
931.519	11071
931.623	10976
