Data from test_V78500241_2959.txt Node
Date: Fri Mar 25 16:02:17 CST 2022
User: usil
Spectrometer: V785-0024
Trigger mode: 0
Integration Time (sec): 4.000000E-1
Scans to average: 1
Nonlinearity correction enabled: false
Boxcar width: 0
Storing dark spectrum: false
XAxis mode: Wavelengths
Number of Pixels in Spectrum: 1024
>>>>>Begin Spectral Data<<<<<
801.071	28881
801.214	28942
801.356	28641
801.499	28717
801.641	28478
801.783	28417
801.926	28451
802.068	28470
802.211	28318
802.353	28386
802.496	28154
802.638	28135
802.78	28143
802.923	28044
803.065	28070
803.208	28188
803.35	28139
803.492	28257
803.635	28360
803.777	28409
803.919	28542
804.061	28721
804.204	28375
804.346	28333
804.488	28291
804.63	28394
804.773	28322
804.915	28417
805.057	28611
805.199	28432
805.341	28409
805.483	28550
805.626	28645
805.768	28592
805.91	28645
806.052	28630
806.194	28561
806.336	28683
806.478	28683
806.62	28527
806.762	28850
806.904	28972
807.046	28949
807.188	28911
807.33	29075
807.472	29136
807.614	28991
807.756	28828
807.898	28858
808.04	28793
808.182	28850
808.324	29003
808.465	28885
808.607	29216
808.749	29174
808.891	29337
809.033	29410
809.174	29296
809.316	29216
809.458	29235
809.6	29246
809.741	29372
809.883	29516
810.025	29543
810.166	29528
810.308	29589
810.45	29539
810.591	29440
810.733	29231
810.875	29303
811.016	29075
811.158	29296
811.299	29261
811.441	29512
811.582	29417
811.724	29337
811.865	29204
812.007	29280
812.148	29414
812.29	29307
812.431	29623
812.573	29596
812.714	29718
812.855	29836
812.997	29836
813.138	29999
813.279	29809
813.421	29813
813.562	29733
813.703	29630
813.845	29410
813.986	29303
814.127	29105
814.268	28839
814.41	29113
814.551	28869
814.692	29102
814.833	28999
814.974	28946
815.115	28965
815.256	28919
815.397	28843
815.539	28816
815.68	28885
815.821	28767
815.962	28850
816.103	28782
816.244	28752
816.385	28622
816.526	28546
816.666	28417
816.807	28284
816.948	28341
817.089	28398
817.23	28322
817.371	28242
817.512	28348
817.653	28257
817.793	28188
817.934	28375
818.075	28322
818.216	28284
818.356	28318
818.497	28268
818.638	28002
818.778	28067
818.919	28025
819.06	28223
819.2	28215
819.341	28352
819.481	28367
819.622	28523
819.762	28736
819.903	28626
820.043	28432
820.184	28390
820.324	28466
820.465	28561
820.605	28459
820.746	28462
820.886	28390
821.026	28337
821.167	28375
821.307	28428
821.447	28356
821.588	28268
821.728	28177
821.868	28116
822.008	27956
822.149	27816
822.289	27732
822.429	27572
822.569	27496
822.709	27519
822.849	27405
822.99	27370
823.13	27329
823.27	27378
823.41	27279
823.55	27032
823.69	27287
823.83	27089
823.97	27184
824.11	27013
824.25	26937
824.389	27077
824.529	27062
824.669	26902
824.809	27039
824.949	27074
825.089	27020
825.228	27058
825.368	26918
825.508	26838
825.648	26918
825.787	26895
825.927	26842
826.067	26842
826.206	26838
826.346	26826
826.485	26971
826.625	26842
826.765	26940
826.904	26838
827.044	26720
827.183	26716
827.323	26651
827.462	26705
827.601	26621
827.741	26617
827.88	26701
828.02	26450
828.159	26590
828.298	26644
828.437	26670
828.577	26473
828.716	26697
828.855	26389
828.994	26404
829.134	26252
829.273	26309
829.412	26134
829.551	26275
829.69	26259
829.829	26259
829.968	26332
830.107	26324
830.246	26343
830.385	26252
830.524	26282
830.663	26199
830.802	25959
830.941	25932
831.08	25864
831.219	25959
831.357	25951
831.496	26130
831.635	25963
831.774	25849
831.913	25818
832.051	25795
832.19	25696
832.329	25738
832.467	25632
832.606	25430
832.744	25525
832.883	25639
833.022	25556
833.16	25632
833.299	25616
833.437	25502
833.576	25788
833.714	25548
833.852	25643
833.991	25799
834.129	25715
834.267	25689
834.406	25601
834.544	25666
834.682	25567
834.821	25514
834.959	25704
835.097	25666
835.235	25696
835.373	25594
835.511	25613
835.65	25529
835.788	25521
835.926	25373
836.064	25232
836.202	25213
836.34	25304
836.478	25548
836.615	25495
836.753	25415
836.891	25609
837.029	25449
837.167	25297
837.305	25327
837.443	25251
837.58	25247
837.718	25278
837.856	25255
837.993	25194
838.131	25343
838.269	25133
838.406	25251
838.544	25065
838.681	24776
838.819	24825
838.956	24597
839.094	24814
839.231	24738
839.369	24909
839.506	25095
839.643	25095
839.781	24711
839.918	24700
840.055	24722
840.193	24639
840.33	24711
840.467	24661
840.604	24677
840.742	24954
840.879	24570
841.016	24456
841.153	24498
841.29	24707
841.427	24559
841.564	24608
841.701	24563
841.838	24566
841.975	24528
842.112	24547
842.249	24475
842.385	24380
842.522	24555
842.659	24521
842.796	24388
842.933	24388
843.069	24273
843.206	24304
843.343	24464
843.479	24418
843.616	24315
843.752	24110
843.889	24201
844.025	24380
844.162	24144
844.298	24315
844.435	24136
844.571	24144
844.708	24114
844.844	24258
844.98	24353
845.117	24205
845.253	23992
845.389	24072
845.525	24022
845.661	24057
845.798	23817
845.934	23999
846.07	23836
846.206	23885
846.342	24045
846.478	23832
846.614	23665
846.75	23592
846.886	23653
847.022	23676
847.158	23684
847.294	23722
847.429	23710
847.565	23539
847.701	23863
847.837	23417
847.972	23303
848.108	23436
848.244	23402
848.379	23212
848.515	23250
848.65	23113
848.786	23235
848.921	23280
849.057	23356
849.192	23250
849.328	23269
849.463	23200
849.598	23033
849.734	23124
849.869	23075
850.004	22946
850.14	23048
850.275	22995
850.41	22850
850.545	22847
850.68	22889
850.815	22991
850.95	22858
851.085	23128
851.22	23094
851.355	22991
851.49	22934
851.625	22987
851.76	22961
851.895	22934
852.03	22984
852.165	22938
852.299	23003
852.434	23060
852.569	23128
852.703	23003
852.838	23006
852.973	23064
853.107	23033
853.242	22839
853.376	22839
853.511	22698
853.645	22786
853.78	22881
853.914	22938
854.048	22774
854.183	22759
854.317	22622
854.451	22892
854.585	22854
854.72	22774
854.854	22911
854.988	22687
855.122	22790
855.256	22706
855.39	22774
855.524	22892
855.658	22854
855.792	22767
855.926	22793
856.06	22889
856.194	22793
856.327	22828
856.461	22809
856.595	22687
856.729	22790
856.862	22987
856.996	22797
857.13	22839
857.263	22873
857.397	22923
857.53	22740
857.664	22816
857.797	22862
857.931	22850
858.064	22767
858.197	22961
858.331	22793
858.464	22710
858.597	22713
858.731	22843
858.864	22744
858.997	22782
859.13	22763
859.263	22938
859.396	22717
859.529	22759
859.662	22847
859.795	22717
859.928	22744
860.061	22892
860.194	22927
860.327	22805
860.46	22828
860.592	22900
860.725	23014
860.858	22877
860.99	22721
861.123	22744
861.256	22740
861.388	22824
861.521	23531
861.653	22717
861.786	22523
861.918	22584
862.05	22573
862.183	22736
862.315	22733
862.447	22706
862.58	22603
862.712	22645
862.844	22455
862.976	22710
863.108	22596
863.24	22999
863.372	22432
863.504	22299
863.636	22500
863.768	22519
863.9	22470
864.032	22512
864.164	22493
864.296	22466
864.428	22519
864.559	22596
864.691	22535
864.823	22466
864.954	22352
865.086	22310
865.217	22261
865.349	22226
865.48	22348
865.612	22196
865.743	22337
865.875	22417
866.006	22459
866.137	22257
866.269	22379
866.4	22451
866.531	22192
866.662	22112
866.793	22249
866.924	22238
867.055	22272
867.186	22287
867.317	22154
867.448	22166
867.579	22223
867.71	22268
867.841	22223
867.972	22253
868.103	22276
868.233	22306
868.364	22402
868.495	22481
868.625	22443
868.756	22592
868.886	22504
869.017	22535
869.147	22626
869.278	22702
869.408	22691
869.539	22478
869.669	22706
869.799	22565
869.929	22573
870.06	22710
870.19	22900
870.32	22885
870.45	22877
870.58	22957
870.71	23041
870.84	23014
870.97	22847
871.1	22946
871.23	23193
871.36	23064
871.489	22965
871.619	23212
871.749	23212
871.879	23117
872.008	23124
872.138	23189
872.267	23181
872.397	23041
872.526	22904
872.656	22999
872.785	22953
872.915	23025
873.044	23239
873.173	23299
873.303	23242
873.432	23261
873.561	23197
873.69	23269
873.819	23181
873.948	23258
874.077	23136
874.206	23044
874.335	23117
874.464	23395
874.593	23368
874.722	23311
874.851	23383
874.979	23345
875.108	23376
875.237	23307
875.365	23239
875.494	23227
875.623	23505
875.751	23311
875.88	23288
876.008	23425
876.136	23551
876.265	23745
876.393	23908
876.521	23760
876.65	23893
876.778	23870
876.906	23748
877.034	23684
877.162	23767
877.29	23707
877.418	23737
877.546	23649
877.674	23745
877.802	23600
877.93	23600
878.058	23653
878.185	23615
878.313	23596
878.441	23661
878.568	23615
878.696	23562
878.824	23745
878.951	23752
879.079	23851
879.206	23893
879.333	23794
879.461	23623
879.588	23760
879.715	23741
879.842	23817
879.97	23756
880.097	23402
880.224	23391
880.351	23535
880.478	23596
880.605	23376
880.732	23471
880.859	23695
880.986	23459
881.112	23493
881.239	23280
881.366	23227
881.493	23170
881.619	23105
881.746	23056
881.872	23033
881.999	23079
882.125	22999
882.252	22995
882.378	22953
882.505	23064
882.631	22942
882.757	22816
882.883	22889
883.01	22713
883.136	22748
883.262	22546
883.388	22615
883.514	22744
883.64	22774
883.766	22596
883.892	22398
884.018	22531
884.143	22649
884.269	22801
884.395	22459
884.52	22402
884.646	22440
884.772	22314
884.897	22322
885.023	22402
885.148	22432
885.274	22546
885.399	22565
885.524	22348
885.65	22474
885.775	22481
885.9	22424
886.025	22390
886.15	22333
886.275	22379
886.4	22177
886.525	22215
886.65	22322
886.775	22242
886.9	22375
887.025	22698
887.149	22386
887.274	22124
887.399	22173
887.523	22063
887.648	22036
887.773	22086
887.897	22177
888.021	22116
888.146	22013
888.27	22185
888.395	22284
888.519	22097
888.643	22063
888.767	22139
888.891	21983
889.015	21884
889.139	22032
889.263	21827
889.387	21983
889.511	22059
889.635	22036
889.759	21850
889.883	21804
890.006	21854
890.13	22017
890.254	21800
890.377	21869
890.501	21701
890.624	21606
890.748	21682
890.871	21629
890.995	21473
891.118	21435
891.241	21485
891.364	21344
891.488	21435
891.611	21538
891.734	21374
891.857	21542
891.98	21408
892.103	21534
892.226	21462
892.349	21264
892.471	21230
892.594	21389
892.717	21473
892.839	21317
892.962	21393
893.085	21370
893.207	21340
893.33	21142
893.452	21180
893.575	21252
893.697	21454
893.819	21488
893.941	21515
894.064	21454
894.186	21252
894.308	21298
894.43	21374
894.552	21614
894.674	21424
894.796	21207
894.918	21203
895.04	21157
895.161	21401
895.283	21325
895.405	21150
895.526	21382
895.648	21241
895.769	21329
895.891	21344
896.012	21279
896.134	21359
896.255	21492
896.376	21252
896.498	21348
896.619	21260
896.74	21245
896.861	21325
896.982	21633
897.103	21675
897.224	21549
897.345	21519
897.466	21431
897.587	21591
897.708	21739
897.828	21622
897.949	21462
898.07	21431
898.19	21545
898.311	21500
898.431	21428
898.552	21542
898.672	21614
898.792	21542
898.913	21557
899.033	21378
899.153	21283
899.273	21306
899.393	21241
899.513	21241
899.633	21226
899.753	21230
899.873	21131
899.993	21237
900.113	21104
900.232	21203
900.352	21233
900.472	21077
900.591	20990
900.711	21017
900.83	20944
900.95	21116
901.069	21055
901.189	20891
901.308	20625
901.427	20621
901.546	20632
901.665	20632
901.784	20705
901.904	20461
902.023	20324
902.141	20008
902.26	20161
902.379	20081
902.498	20115
902.617	19989
902.735	20065
902.854	19970
902.973	19928
903.091	19708
903.21	19715
903.328	19811
903.446	19597
903.565	19540
903.683	19540
903.801	19464
903.919	19480
904.038	19438
904.156	19270
904.274	19350
904.392	19251
904.51	19251
904.627	19236
904.745	19335
904.863	19320
904.981	19103
905.098	19008
905.216	18878
905.334	18985
905.451	19004
905.569	19019
905.686	19000
905.803	18916
905.921	18646
906.038	18787
906.155	18703
906.272	18620
906.389	18631
906.506	18570
906.623	18486
906.74	18498
906.857	18308
906.974	18403
907.091	18517
907.208	18597
907.324	18448
907.441	18414
907.557	18091
907.674	18201
907.79	18072
907.907	18182
908.023	18209
908.139	18144
908.256	18144
908.372	18064
908.488	17939
908.604	17874
908.72	17912
908.836	17992
908.952	17897
909.068	17912
909.184	18011
909.3	17961
909.415	17939
909.531	17866
909.647	17577
909.762	17615
909.878	17581
909.993	17577
910.108	17611
910.224	17482
910.339	17539
910.454	17417
910.57	17315
910.685	17341
910.8	17558
910.915	17585
911.03	17387
911.145	17200
911.259	17254
911.374	17170
911.489	17136
911.604	17075
911.718	16900
911.833	16862
911.947	16885
912.062	16778
912.176	16839
912.291	16885
912.405	16862
912.519	16957
912.633	17140
912.748	16877
912.862	16934
912.976	16630
913.09	16516
913.204	16588
913.318	16664
913.431	16801
913.545	16721
913.659	16793
913.772	16672
913.886	16451
914	16607
914.113	16531
914.226	16531
914.34	16474
914.453	16363
914.566	16519
914.68	16402
914.793	16375
914.906	16207
915.019	16082
915.132	15991
915.245	16006
915.358	16074
915.47	16067
915.583	16101
915.696	16112
915.809	16207
915.921	16219
916.034	16074
916.146	15873
916.259	15903
916.371	15975
916.483	16063
916.595	15880
916.708	15926
916.82	15850
916.932	15816
917.044	15861
917.156	15804
917.268	15694
917.38	15686
917.491	15686
917.603	15622
917.715	15770
917.826	15705
917.938	15682
918.049	15606
918.161	15633
918.272	15800
918.384	15698
918.495	15549
918.606	15500
918.717	15405
918.828	15435
918.939	15492
919.05	15325
919.161	15382
919.272	15142
919.383	15317
919.494	15428
919.604	15553
919.715	15370
919.826	15287
919.936	15245
920.047	15420
920.157	15302
920.267	15580
920.378	15359
920.488	15302
920.598	15545
920.708	15644
920.818	15530
920.928	15488
921.038	15587
921.148	15553
921.258	15298
921.368	15279
921.477	15093
921.587	15131
921.697	15028
921.806	15119
921.916	14800
922.025	14807
922.134	14743
922.244	14712
922.353	14689
922.462	14613
922.571	14530
922.68	14328
922.789	14294
922.898	14282
923.007	14275
923.116	14313
923.224	14408
923.333	14320
923.442	14244
923.55	14191
923.659	14218
923.767	14229
923.876	14123
923.984	14206
924.092	14081
924.201	14035
924.309	14001
924.417	14123
924.525	13970
924.633	13913
924.741	14773
924.849	13746
924.956	13944
925.064	13803
925.172	13655
925.279	13772
925.387	13765
925.494	13753
925.602	13784
925.709	13712
925.816	13529
925.924	13643
926.031	13750
926.138	13662
926.245	13643
926.352	13597
926.459	13704
926.566	13757
926.673	13563
926.779	13487
926.886	13384
926.993	13297
927.099	13301
927.206	13110
927.312	13149
927.419	13354
927.525	13236
927.631	13194
927.737	13171
927.843	13095
927.95	12989
928.056	13015
928.162	13133
928.267	13137
928.373	13677
928.479	13061
928.585	12806
928.69	13004
928.796	13114
928.901	12943
929.007	12719
929.112	12875
929.218	12852
929.323	12806
929.428	12734
929.533	12905
929.638	12707
929.743	12681
929.848	12806
929.953	12654
930.058	12665
930.163	12418
930.267	12437
930.372	12658
930.477	12350
930.581	12604
930.685	12513
930.79	12342
930.894	12334
930.998	12270
931.103	12456
931.207	12125
931.311	11939
931.415	11889
931.519	11695
931.623	11676
