Data from test_V78500241_2982.txt Node
Date: Fri Mar 25 16:02:27 CST 2022
User: usil
Spectrometer: V785-0024
Trigger mode: 0
Integration Time (sec): 4.000000E-1
Scans to average: 1
Nonlinearity correction enabled: false
Boxcar width: 0
Storing dark spectrum: false
XAxis mode: Wavelengths
Number of Pixels in Spectrum: 1024
>>>>>Begin Spectral Data<<<<<
801.071	28432
801.214	28341
801.356	28147
801.499	28223
801.641	27983
801.783	27857
801.926	27934
802.068	28048
802.211	27778
802.353	27850
802.496	27549
802.638	27595
802.78	27580
802.923	27427
803.065	27511
803.208	27519
803.35	27610
803.492	27606
803.635	27759
803.777	27774
803.919	27823
804.061	28166
804.204	27793
804.346	27717
804.488	27694
804.63	27835
804.773	27827
804.915	27873
805.057	27892
805.199	27797
805.341	27857
805.483	28036
805.626	27934
805.768	27800
805.91	27987
806.052	27949
806.194	27770
806.336	28246
806.478	28044
806.62	27991
806.762	28204
806.904	28131
807.046	28565
807.188	28299
807.33	28333
807.472	28341
807.614	28257
807.756	28413
807.898	28261
808.04	28124
808.182	28173
808.324	28306
808.465	28375
808.607	28550
808.749	28645
808.891	28683
809.033	28771
809.174	28771
809.316	28577
809.458	28531
809.6	28698
809.741	28831
809.883	28717
810.025	29014
810.166	28801
810.308	28774
810.45	28888
810.591	28930
810.733	28641
810.875	28649
811.016	28417
811.158	28649
811.299	28721
811.441	28820
811.582	28729
811.724	28611
811.865	28801
812.007	28615
812.148	28531
812.29	28622
812.431	28927
812.573	28835
812.714	29117
812.855	29155
812.997	29128
813.138	29349
813.279	29421
813.421	29162
813.562	29132
813.703	29018
813.845	28896
813.986	28615
814.127	28538
814.268	28341
814.41	28466
814.551	28348
814.692	28367
814.833	28299
814.974	28173
815.115	28436
815.256	28249
815.397	28166
815.539	28131
815.68	28131
815.821	28048
815.962	28177
816.103	28090
816.244	27991
816.385	27873
816.526	27827
816.666	27686
816.807	27656
816.948	27637
817.089	27785
817.23	27686
817.371	27675
817.512	27561
817.653	27568
817.793	27557
817.934	27606
818.075	27526
818.216	27587
818.356	27648
818.497	27519
818.638	27363
818.778	27401
818.919	27545
819.06	27496
819.2	27622
819.341	27568
819.481	27572
819.622	27797
819.762	27945
819.903	27755
820.043	27869
820.184	27793
820.324	27747
820.465	27842
820.605	27603
820.746	27720
820.886	27553
821.026	27793
821.167	27656
821.307	27755
821.447	27774
821.588	27591
821.728	27245
821.868	27382
822.008	27112
822.149	27218
822.289	27173
822.429	26868
822.569	26708
822.709	26724
822.849	26731
822.99	26648
823.13	26629
823.27	26518
823.41	26556
823.55	26149
823.69	26442
823.83	26400
823.97	26355
824.11	26187
824.25	26225
824.389	26225
824.529	26305
824.669	26248
824.809	26263
824.949	26324
825.089	26298
825.228	26336
825.368	26096
825.508	26149
825.648	26153
825.787	26233
825.927	26278
826.067	26199
826.206	26145
826.346	26206
826.485	26195
826.625	26195
826.765	26214
826.904	26107
827.044	25852
827.183	25814
827.323	25837
827.462	25822
827.601	25814
827.741	25826
827.88	25894
828.02	25803
828.159	25887
828.298	25868
828.437	25841
828.577	25830
828.716	25993
828.855	25628
828.994	25499
829.134	25510
829.273	25537
829.412	25639
829.551	25392
829.69	25537
829.829	25613
829.968	25620
830.107	25597
830.246	25643
830.385	25525
830.524	25491
830.663	25388
830.802	25278
830.941	25129
831.08	25308
831.219	25373
831.357	25251
831.496	25308
831.635	25126
831.774	25099
831.913	25118
832.051	24962
832.19	24977
832.329	24989
832.467	24852
832.606	24821
832.744	24734
832.883	24772
833.022	24787
833.16	24787
833.299	24833
833.437	24928
833.576	24947
833.714	25027
833.852	24894
833.991	24897
834.129	24970
834.267	25038
834.406	24829
834.544	24871
834.682	24939
834.821	24779
834.959	25012
835.097	24825
835.235	24939
835.373	24890
835.511	24863
835.65	24738
835.788	24696
835.926	24631
836.064	24540
836.202	24505
836.34	24700
836.478	24798
836.615	24757
836.753	24749
836.891	24696
837.029	24772
837.167	24601
837.305	24566
837.443	24616
837.58	24509
837.718	24597
837.856	24570
837.993	24479
838.131	24589
838.269	24490
838.406	24372
838.544	24498
838.681	24220
838.819	24209
838.956	24053
839.094	24060
839.231	24091
839.369	24167
839.506	24498
839.643	24300
839.781	23996
839.918	24003
840.055	24003
840.193	24018
840.33	23950
840.467	23904
840.604	23969
840.742	24205
840.879	23771
841.016	23745
841.153	23680
841.29	23961
841.427	23939
841.564	24060
841.701	23904
841.838	23874
841.975	23912
842.112	23805
842.249	23695
842.385	23748
842.522	23912
842.659	23764
842.796	23695
842.933	23630
843.069	23604
843.206	23737
843.343	23551
843.479	23657
843.616	23733
843.752	23467
843.889	23478
844.025	23638
844.162	23459
844.298	23509
844.435	23543
844.571	23448
844.708	23490
844.844	23539
844.98	23638
845.117	23623
845.253	23448
845.389	23353
845.525	23326
845.661	23235
845.798	23197
845.934	23231
846.07	23181
846.206	23155
846.342	23174
846.478	23185
846.614	23052
846.75	22904
846.886	22900
847.022	23037
847.158	22934
847.294	23037
847.429	22999
847.565	22984
847.701	23200
847.837	22675
847.972	22630
848.108	22801
848.244	22755
848.379	22615
848.515	22599
848.65	22352
848.786	22580
848.921	22519
849.057	22710
849.192	22554
849.328	22675
849.463	22474
849.598	22352
849.734	22436
849.869	22405
850.004	22413
850.14	22337
850.275	22348
850.41	22188
850.545	22215
850.68	22238
850.815	22284
850.95	22325
851.085	22519
851.22	22459
851.355	22284
851.49	22226
851.625	22249
851.76	22276
851.895	22192
852.03	22192
852.165	22356
852.299	22303
852.434	22272
852.569	22291
852.703	22318
852.838	22443
852.973	22523
853.107	22535
853.242	22188
853.376	22192
853.511	22032
853.645	22101
853.78	22238
853.914	22223
854.048	22036
854.183	22021
854.317	22223
854.451	22287
854.585	22181
854.72	22150
854.854	22204
854.988	22044
855.122	22116
855.256	21934
855.39	21994
855.524	22299
855.658	22013
855.792	22124
855.926	22211
856.06	22238
856.194	22230
856.327	22169
856.461	21964
856.595	22070
856.729	22173
856.862	22230
856.996	22242
857.13	22185
857.263	22219
857.397	22219
857.53	22067
857.664	22200
857.797	22188
857.931	22287
858.064	22158
858.197	22181
858.331	22105
858.464	22032
858.597	22029
858.731	22070
858.864	22067
858.997	21960
859.13	22139
859.263	22112
859.396	22196
859.529	22101
859.662	21987
859.795	22234
859.928	22116
860.061	22234
860.194	22337
860.327	22242
860.46	22204
860.592	22253
860.725	22352
860.858	22299
860.99	22188
861.123	22040
861.256	22128
861.388	22040
861.521	22820
861.653	22051
861.786	21850
861.918	22021
862.05	22078
862.183	21956
862.315	22059
862.447	22109
862.58	22036
862.712	21842
862.844	21743
862.976	22010
863.108	21998
863.24	22314
863.372	21903
863.504	21797
863.636	21911
863.768	21854
863.9	21835
864.032	21873
864.164	21899
864.296	21804
864.428	22036
864.559	21907
864.691	21865
864.823	21759
864.954	21846
865.086	21808
865.217	21766
865.349	21698
865.48	21618
865.612	21747
865.743	21918
865.875	21785
866.006	21705
866.137	21739
866.269	21728
866.4	21728
866.531	21739
866.662	21694
866.793	21545
866.924	21679
867.055	21724
867.186	21667
867.317	21538
867.448	21587
867.579	21606
867.71	21618
867.841	21568
867.972	21614
868.103	21599
868.233	21679
868.364	21648
868.495	21937
868.625	21865
868.756	21865
868.886	21785
869.017	21895
869.147	21865
869.278	22036
869.408	21884
869.539	21895
869.669	21899
869.799	21998
869.929	22055
870.06	21979
870.19	22276
870.32	22143
870.45	22147
870.58	22253
870.71	22348
870.84	22455
870.97	22303
871.1	22303
871.23	22432
871.36	22405
871.489	22409
871.619	22398
871.749	22489
871.879	22474
872.008	22603
872.138	22569
872.267	22512
872.397	22428
872.526	22276
872.656	22413
872.785	22485
872.915	22474
873.044	22630
873.173	22531
873.303	22626
873.432	22683
873.561	22546
873.69	22588
873.819	22580
873.948	22660
874.077	22641
874.206	22615
874.335	22481
874.464	22733
874.593	22733
874.722	22698
874.851	22702
874.979	22850
875.108	22759
875.237	22721
875.365	22702
875.494	22664
875.623	22790
875.751	22729
875.88	22835
876.008	22828
876.136	22980
876.265	23151
876.393	23181
876.521	23166
876.65	23208
876.778	23155
876.906	23067
877.034	23086
877.162	23151
877.29	23018
877.418	23174
877.546	23003
877.674	23124
877.802	23083
877.93	23064
878.058	23037
878.185	22801
878.313	23022
878.441	23109
878.568	22968
878.696	22881
878.824	23124
878.951	23159
879.079	23345
879.206	23364
879.333	23280
879.461	23155
879.588	23109
879.715	23208
879.842	23379
879.97	23041
880.097	22972
880.224	22923
880.351	22869
880.478	22835
880.605	22816
880.732	22889
880.859	23235
880.986	22904
881.112	22957
881.239	22763
881.366	22565
881.493	22557
881.619	22500
881.746	22531
881.872	22474
881.999	22405
882.125	22402
882.252	22557
882.378	22398
882.505	22500
882.631	22303
882.757	22204
882.883	22169
883.01	22204
883.136	22055
883.262	22002
883.388	22044
883.514	22139
883.64	22135
883.766	21987
883.892	21823
884.018	21911
884.143	22044
884.269	22120
884.395	21895
884.52	21778
884.646	21762
884.772	21812
884.897	21694
885.023	21717
885.148	21838
885.274	21865
885.399	21972
885.524	21827
885.65	21850
885.775	21774
885.9	21823
886.025	21895
886.15	21915
886.275	21759
886.4	21759
886.525	21686
886.65	21679
886.775	21743
886.9	21816
887.025	22044
887.149	21808
887.274	21759
887.399	21572
887.523	21523
887.648	21389
887.773	21485
887.897	21538
888.021	21526
888.146	21580
888.27	21591
888.395	21644
888.519	21542
888.643	21614
888.767	21618
888.891	21397
889.015	21310
889.139	21462
889.263	21416
889.387	21378
889.511	21397
889.635	21439
889.759	21367
889.883	21351
890.006	21428
890.13	21348
890.254	21302
890.377	21226
890.501	21222
890.624	21142
890.748	21093
890.871	20902
890.995	20895
891.118	20773
891.241	20921
891.364	20933
891.488	21043
891.611	20853
891.734	20906
891.857	21001
891.98	20864
892.103	21036
892.226	20876
892.349	20883
892.471	20716
892.594	20800
892.717	20724
892.839	20792
892.962	20815
893.085	20899
893.207	20724
893.33	20682
893.452	20678
893.575	20712
893.697	20689
893.819	20880
893.941	20933
894.064	20998
894.186	20792
894.308	20689
894.43	20868
894.552	20948
894.674	20979
894.796	20629
894.918	20845
895.04	20792
895.161	20769
895.283	20853
895.405	20689
895.526	20720
895.648	20667
895.769	20842
895.891	20925
896.012	20914
896.134	20902
896.255	20686
896.376	20811
896.498	20819
896.619	20864
896.74	20815
896.861	20765
896.982	21077
897.103	21226
897.224	20990
897.345	20998
897.466	20960
897.587	20876
897.708	21051
897.828	21058
897.949	21024
898.07	20838
898.19	20971
898.311	21017
898.431	20975
898.552	20963
898.672	21001
898.792	20979
898.913	20899
899.033	20891
899.153	20678
899.273	20697
899.393	20667
899.513	20826
899.633	20792
899.753	20659
899.873	20594
899.993	20750
900.113	20648
900.232	20697
900.352	20571
900.472	20537
900.591	20495
900.711	20545
900.83	20419
900.95	20537
901.069	20537
901.189	20301
901.308	20062
901.427	20100
901.546	20031
901.665	20065
901.784	20145
901.904	20031
902.023	19868
902.141	19601
902.26	19529
902.379	19704
902.498	19556
902.617	19662
902.735	19700
902.854	19556
902.973	19518
903.091	19335
903.21	19168
903.328	19301
903.446	19118
903.565	19065
903.683	19069
903.801	18989
903.919	19015
904.038	18989
904.156	18837
904.274	18905
904.392	18848
904.51	18821
904.627	18696
904.745	18890
904.863	18787
904.981	18646
905.098	18490
905.216	18464
905.334	18502
905.451	18502
905.569	18521
905.686	18498
905.803	18479
905.921	18190
906.038	18357
906.155	18266
906.272	18220
906.389	18194
906.506	17901
906.623	18019
906.74	17923
906.857	17935
906.974	17992
907.091	18110
907.208	18091
907.324	18030
907.441	17923
907.557	17824
907.674	17722
907.79	17596
907.907	17634
908.023	17741
908.139	17783
908.256	17653
908.372	17592
908.488	17684
908.604	17334
908.72	17425
908.836	17433
908.952	17353
909.068	17417
909.184	17581
909.3	17398
909.415	17360
909.531	17444
909.647	17121
909.762	17102
909.878	17037
909.993	17079
910.108	17098
910.224	17045
910.339	17102
910.454	16980
910.57	16881
910.685	16812
910.8	17159
910.915	17109
911.03	16801
911.145	16809
911.259	16622
911.374	16664
911.489	16588
911.604	16554
911.718	16504
911.833	16443
911.947	16379
912.062	16246
912.176	16432
912.291	16379
912.405	16432
912.519	16694
912.633	16611
912.748	16424
912.862	16386
912.976	16341
913.09	16158
913.204	16363
913.318	16207
913.431	16341
913.545	16318
913.659	16344
913.772	16116
913.886	16116
914	15983
914.113	16177
914.226	16116
914.34	16078
914.453	15949
914.566	16044
914.68	16006
914.793	15903
914.906	15709
915.019	15584
915.132	15587
915.245	15587
915.358	15694
915.47	15599
915.583	15625
915.696	15675
915.809	15762
915.921	15846
916.034	15534
916.146	15591
916.259	15500
916.371	15648
916.483	15568
916.595	15443
916.708	15443
916.82	15580
916.932	15382
917.044	15386
917.156	15298
917.268	15355
917.38	15214
917.491	15249
917.603	15283
917.715	15268
917.826	15321
917.938	15184
918.049	15112
918.161	15161
918.272	15382
918.384	15344
918.495	15135
918.606	15001
918.717	14952
918.828	15055
918.939	14979
919.05	14899
919.161	15024
919.272	14777
919.383	14819
919.494	15097
919.604	15237
919.715	14952
919.826	14933
919.936	14899
920.047	14944
920.157	14971
920.267	15074
920.378	14956
920.488	14921
920.598	15100
920.708	15268
920.818	15146
920.928	15093
921.038	15279
921.148	15222
921.258	14941
921.368	14842
921.477	14670
921.587	14648
921.697	14511
921.806	14636
921.916	14499
922.025	14339
922.134	14385
922.244	14298
922.353	14362
922.462	14275
922.571	14115
922.68	14073
922.789	13871
922.898	13993
923.007	13849
923.116	14016
923.224	13925
923.333	13845
923.442	13795
923.55	13811
923.659	13757
923.767	13909
923.876	13780
923.984	13772
924.092	13662
924.201	13666
924.309	13757
924.417	13639
924.525	13658
924.633	13540
924.741	14408
924.849	13377
924.956	13586
925.064	13316
925.172	13358
925.279	13419
925.387	13331
925.494	13221
925.602	13590
925.709	13392
925.816	13343
925.924	13308
926.031	13343
926.138	13221
926.245	13346
926.352	13278
926.459	13293
926.566	13308
926.673	13114
926.779	13183
926.886	13152
926.993	13042
927.099	13061
927.206	12916
927.312	12909
927.419	12973
927.525	12844
927.631	12848
927.737	12779
927.843	12817
927.95	12616
928.056	12639
928.162	12684
928.267	12779
928.373	13335
928.479	12867
928.585	12593
928.69	12707
928.796	12707
928.901	12551
929.007	12517
929.112	12566
929.218	12593
929.323	12479
929.428	12350
929.533	12570
929.638	12350
929.743	12418
929.848	12403
929.953	12388
930.058	12281
930.163	12163
930.267	12186
930.372	12330
930.477	12144
930.581	12319
930.685	12144
930.79	11977
930.894	12015
930.998	12026
931.103	12186
931.207	11695
931.311	11794
931.415	11627
931.519	11398
931.623	11414
