Data from test_V78500241_2054.txt Node
Date: Fri Mar 25 15:56:01 CST 2022
User: usil
Spectrometer: V785-0024
Trigger mode: 0
Integration Time (sec): 4.000000E-1
Scans to average: 1
Nonlinearity correction enabled: false
Boxcar width: 0
Storing dark spectrum: false
XAxis mode: Wavelengths
Number of Pixels in Spectrum: 1024
>>>>>Begin Spectral Data<<<<<
801.071	29094
801.214	28991
801.356	28809
801.499	28744
801.641	28660
801.783	28607
801.926	28645
802.068	28683
802.211	28523
802.353	28497
802.496	28394
802.638	28344
802.78	28379
802.923	28173
803.065	28196
803.208	28287
803.35	28363
803.492	28523
803.635	28664
803.777	28344
803.919	28615
804.061	28957
804.204	28630
804.346	28508
804.488	28523
804.63	28641
804.773	28584
804.915	28660
805.057	28675
805.199	28672
805.341	28691
805.483	28786
805.626	28630
805.768	28713
805.91	28835
806.052	28755
806.194	28626
806.336	28892
806.478	28729
806.62	28812
806.762	28862
806.904	29067
807.046	29254
807.188	29227
807.33	29318
807.472	29280
807.614	29079
807.756	29109
807.898	29113
808.04	28820
808.182	29109
808.324	29098
808.465	29193
808.607	29341
808.749	29375
808.891	29497
809.033	29619
809.174	29531
809.316	29463
809.458	29277
809.6	29474
809.741	29592
809.883	29566
810.025	29805
810.166	29824
810.308	29775
810.45	29611
810.591	29619
810.733	29695
810.875	29490
811.016	29250
811.158	29326
811.299	29478
811.441	29486
811.582	29570
811.724	29448
811.865	29330
812.007	29414
812.148	29425
812.29	29551
812.431	29695
812.573	29771
812.714	29843
812.855	29996
812.997	30114
813.138	30140
813.279	30057
813.421	30041
813.562	30030
813.703	29798
813.845	29703
813.986	29474
814.127	29315
814.268	29060
814.41	29197
814.551	29056
814.692	29284
814.833	28930
814.974	29117
815.115	29185
815.256	29075
815.397	29044
815.539	28991
815.68	28949
815.821	28942
815.962	28965
816.103	29060
816.244	28980
816.385	28771
816.526	28694
816.666	28641
816.807	28470
816.948	28508
817.089	28580
817.23	28508
817.371	28561
817.512	28405
817.653	28348
817.793	28451
817.934	28577
818.075	28622
818.216	28508
818.356	28401
818.497	28390
818.638	28268
818.778	28398
818.919	28253
819.06	28268
819.2	28268
819.341	28500
819.481	28519
819.622	28535
819.762	28835
819.903	28767
820.043	28698
820.184	28710
820.324	28672
820.465	28694
820.605	28656
820.746	28668
820.886	28470
821.026	28500
821.167	28577
821.307	28729
821.447	28409
821.588	28500
821.728	28162
821.868	28276
822.008	28055
822.149	27953
822.289	27880
822.429	27781
822.569	27701
822.709	27797
822.849	27591
822.99	27523
823.13	27378
823.27	27481
823.41	27268
823.55	27302
823.69	27329
823.83	27408
823.97	27184
824.11	27184
824.25	27211
824.389	27024
824.529	27195
824.669	27313
824.809	27298
824.949	27272
825.089	27439
825.228	27370
825.368	26990
825.508	26849
825.648	27100
825.787	26967
825.927	27127
826.067	26952
826.206	26982
826.346	26998
826.485	27127
826.625	27043
826.765	27138
826.904	27058
827.044	26895
827.183	26758
827.323	26765
827.462	26864
827.601	26769
827.741	26621
827.88	26899
828.02	26705
828.159	26644
828.298	26727
828.437	26777
828.577	26678
828.716	26880
828.855	26708
828.994	26453
829.134	26469
829.273	26518
829.412	26408
829.551	26347
829.69	26533
829.829	26446
829.968	26613
830.107	26503
830.246	26503
830.385	26518
830.524	26339
830.663	26210
830.802	26164
830.941	25982
831.08	26024
831.219	26077
831.357	26077
831.496	26358
831.635	25921
831.774	25890
831.913	25966
832.051	25791
832.19	25833
832.329	25871
832.467	25742
832.606	25635
832.744	25734
832.883	25738
833.022	25655
833.16	25746
833.299	25719
833.437	25837
833.576	25734
833.714	25795
833.852	25936
833.991	25883
834.129	25868
834.267	25750
834.406	25887
834.544	25791
834.682	25731
834.821	25807
834.959	25845
835.097	25689
835.235	25830
835.373	25761
835.511	25822
835.65	25605
835.788	25567
835.926	25479
836.064	25430
836.202	25460
836.34	25674
836.478	25662
836.615	25529
836.753	25620
836.891	25696
837.029	25556
837.167	25632
837.305	25445
837.443	25594
837.58	25358
837.718	25544
837.856	25449
837.993	25384
838.131	25381
838.269	25362
838.406	25316
838.544	25221
838.681	25072
838.819	24996
838.956	24867
839.094	25000
839.231	24958
839.369	25031
839.506	25213
839.643	25259
839.781	25042
839.918	24939
840.055	24859
840.193	24886
840.33	24745
840.467	24833
840.604	24791
840.742	24981
840.879	24688
841.016	24642
841.153	24764
841.29	24840
841.427	24677
841.564	24757
841.701	24772
841.838	24783
841.975	24719
842.112	24749
842.249	24563
842.385	24578
842.522	24715
842.659	24471
842.796	24563
842.933	24502
843.069	24513
843.206	24399
843.343	24650
843.479	24445
843.616	24509
843.752	24384
843.889	24300
844.025	24433
844.162	24330
844.298	24319
844.435	24342
844.571	24285
844.708	24273
844.844	24464
844.98	24395
845.117	24384
845.253	24338
845.389	24133
845.525	24281
845.661	24186
845.798	24057
845.934	23961
846.07	24083
846.206	24007
846.342	24235
846.478	24011
846.614	23779
846.75	23813
846.886	23764
847.022	23889
847.158	23775
847.294	23859
847.429	23805
847.565	23729
847.701	23798
847.837	23474
847.972	23459
848.108	23406
848.244	23592
848.379	23448
848.515	23440
848.65	23356
848.786	23315
848.921	23337
849.057	23505
849.192	23311
849.328	23349
849.463	23326
849.598	23356
849.734	23322
849.869	23223
850.004	23121
850.14	23151
850.275	23121
850.41	23064
850.545	23064
850.68	23003
850.815	23140
850.95	23067
851.085	23349
851.22	23170
851.355	23098
851.49	23083
851.625	23143
851.76	23071
851.895	23014
852.03	23060
852.165	23162
852.299	23003
852.434	23083
852.569	23090
852.703	23155
852.838	23056
852.973	23318
853.107	23250
853.242	23037
853.376	22980
853.511	22908
853.645	22900
853.78	23044
853.914	22896
854.048	22869
854.183	22961
854.317	22873
854.451	22995
854.585	22965
854.72	22911
854.854	23022
854.988	22892
855.122	22976
855.256	22828
855.39	22881
855.524	22984
855.658	23006
855.792	22850
855.926	22919
856.06	22972
856.194	22942
856.327	22793
856.461	22771
856.595	22854
856.729	23025
856.862	22984
856.996	23003
857.13	22980
857.263	23022
857.397	23151
857.53	22892
857.664	23048
857.797	23022
857.931	22999
858.064	22938
858.197	23121
858.331	22812
858.464	22885
858.597	22801
858.731	22839
858.864	22809
858.997	22949
859.13	22828
859.263	22873
859.396	23003
859.529	22938
859.662	22972
859.795	22889
859.928	22919
860.061	23140
860.194	23109
860.327	22919
860.46	22946
860.592	23056
860.725	23083
860.858	23079
860.99	22881
861.123	22854
861.256	22835
861.388	23029
861.521	23596
861.653	22820
861.786	22721
861.918	22710
862.05	22729
862.183	22664
862.315	22835
862.447	22889
862.58	22843
862.712	22713
862.844	22725
862.976	22691
863.108	22611
863.24	23071
863.372	22675
863.504	22630
863.636	22538
863.768	22672
863.9	22546
864.032	22557
864.164	22653
864.296	22744
864.428	22683
864.559	22729
864.691	22634
864.823	22466
864.954	22538
865.086	22573
865.217	22516
865.349	22516
865.48	22363
865.612	22656
865.743	22573
865.875	22561
866.006	22500
866.137	22573
866.269	22474
866.4	22523
866.531	22565
866.662	22531
866.793	22462
866.924	22432
867.055	22459
867.186	22447
867.317	22318
867.448	22337
867.579	22310
867.71	22375
867.841	22322
867.972	22451
868.103	22284
868.233	22519
868.364	22451
868.495	22500
868.625	22611
868.756	22622
868.886	22664
869.017	22694
869.147	22611
869.278	22805
869.408	22611
869.539	22641
869.669	22797
869.799	22736
869.929	22736
870.06	22877
870.19	22927
870.32	22923
870.45	22984
870.58	23006
870.71	23147
870.84	23159
870.97	23029
871.1	23064
871.23	23212
871.36	23155
871.489	23197
871.619	23223
871.749	23334
871.879	23273
872.008	23414
872.138	23292
872.267	23296
872.397	23033
872.526	23102
872.656	23208
872.785	23067
872.915	23299
873.044	23231
873.173	23311
873.303	23292
873.432	23360
873.561	23398
873.69	23303
873.819	23212
873.948	23356
874.077	23200
874.206	23231
874.335	23220
874.464	23433
874.593	23414
874.722	23391
874.851	23608
874.979	23596
875.108	23520
875.237	23425
875.365	23463
875.494	23505
875.623	23444
875.751	23417
875.88	23372
876.008	23608
876.136	23661
876.265	23935
876.393	24098
876.521	23901
876.65	23965
876.778	23931
876.906	23745
877.034	23863
877.162	23942
877.29	23733
877.418	23813
877.546	23840
877.674	23840
877.802	23866
877.93	23745
878.058	23824
878.185	23737
878.313	23722
878.441	23805
878.568	23653
878.696	23779
878.824	23870
878.951	23843
879.079	23954
879.206	24045
879.333	24030
879.461	23847
879.588	23874
879.715	24026
879.842	24049
879.97	23908
880.097	23691
880.224	23592
880.351	23668
880.478	23512
880.605	23554
880.732	23672
880.859	23805
880.986	23642
881.112	23604
881.239	23482
881.366	23417
881.493	23315
881.619	23235
881.746	23181
881.872	23296
881.999	23060
882.125	23090
882.252	23231
882.378	23044
882.505	23292
882.631	23006
882.757	22858
882.883	22881
883.01	22885
883.136	22949
883.262	22805
883.388	22630
883.514	23006
883.64	22850
883.766	22873
883.892	22596
884.018	22592
884.143	22778
884.269	22877
884.395	22645
884.52	22379
884.646	22493
884.772	22386
884.897	22409
885.023	22531
885.148	22455
885.274	22672
885.399	22599
885.524	22440
885.65	22531
885.775	22497
885.9	22493
886.025	22618
886.15	22603
886.275	22428
886.4	22402
886.525	22542
886.65	22417
886.775	22314
886.9	22519
887.025	22687
887.149	22519
887.274	22390
887.399	22310
887.523	22124
887.648	22230
887.773	22067
887.897	22348
888.021	22272
888.146	22143
888.27	22356
888.395	22215
888.519	22135
888.643	22291
888.767	22356
888.891	22169
889.015	22013
889.139	22135
889.263	22013
889.387	22166
889.511	22219
889.635	22139
889.759	21994
889.883	22002
890.006	22078
890.13	22090
890.254	21930
890.377	22021
890.501	21926
890.624	21686
890.748	21797
890.871	21797
890.995	21481
891.118	21633
891.241	21637
891.364	21572
891.488	21572
891.611	21625
891.734	21538
891.857	21652
891.98	21538
892.103	21591
892.226	21580
892.349	21393
892.471	21252
892.594	21378
892.717	21492
892.839	21450
892.962	21473
893.085	21458
893.207	21466
893.33	21283
893.452	21302
893.575	21568
893.697	21416
893.819	21603
893.941	21553
894.064	21564
894.186	21363
894.308	21382
894.43	21523
894.552	21652
894.674	21393
894.796	21386
894.918	21443
895.04	21348
895.161	21378
895.283	21557
895.405	21412
895.526	21428
895.648	21469
895.769	21447
895.891	21549
896.012	21477
896.134	21443
896.255	21488
896.376	21439
896.498	21462
896.619	21458
896.74	21473
896.861	21477
896.982	21770
897.103	21922
897.224	21686
897.345	21713
897.466	21504
897.587	21675
897.708	21751
897.828	21572
897.949	21637
898.07	21428
898.19	21519
898.311	21755
898.431	21583
898.552	21564
898.672	21633
898.792	21903
898.913	21587
899.033	21481
899.153	21424
899.273	21294
899.393	21294
899.513	21336
899.633	21363
899.753	21393
899.873	21279
899.993	21275
900.113	21237
900.232	21310
900.352	21351
900.472	21100
900.591	21096
900.711	21089
900.83	20948
900.95	21119
901.069	21211
901.189	21024
901.308	20731
901.427	20739
901.546	20670
901.665	20587
901.784	20705
901.904	20511
902.023	20396
902.141	20168
902.26	20221
902.379	20244
902.498	20221
902.617	20153
902.735	20145
902.854	20168
902.973	20062
903.091	19868
903.21	19951
903.328	19761
903.446	19674
903.565	19624
903.683	19651
903.801	19327
903.919	19533
904.038	19563
904.156	19346
904.274	19407
904.392	19396
904.51	19339
904.627	19384
904.745	19244
904.863	19362
904.981	19209
905.098	19088
905.216	19061
905.334	19091
905.451	19012
905.569	19088
905.686	18966
905.803	19004
905.921	18806
906.038	18996
906.155	19004
906.272	18730
906.389	18711
906.506	18521
906.623	18494
906.74	18608
906.857	18403
906.974	18475
907.091	18654
907.208	18703
907.324	18551
907.441	18532
907.557	18163
907.674	18289
907.79	18148
907.907	18285
908.023	18247
908.139	18258
908.256	18251
908.372	18068
908.488	18072
908.604	18041
908.72	17977
908.836	17901
908.952	17969
909.068	18003
909.184	18129
909.3	17942
909.415	17958
909.531	17923
909.647	17646
909.762	17505
909.878	17722
909.993	17604
910.108	17608
910.224	17737
910.339	17630
910.454	17604
910.57	17558
910.685	17353
910.8	17672
910.915	17589
911.03	17501
911.145	17250
911.259	17258
911.374	17204
911.489	17200
911.604	17079
911.718	17025
911.833	17014
911.947	16850
912.062	16782
912.176	17041
912.291	16976
912.405	16999
912.519	17128
912.633	17098
912.748	16949
912.862	16923
912.976	16782
913.09	16725
913.204	16778
913.318	16793
913.431	16927
913.545	16839
913.659	16923
913.772	16744
913.886	16569
914	16641
914.113	16694
914.226	16710
914.34	16626
914.453	16413
914.566	16554
914.68	16443
914.793	16550
914.906	16310
915.019	16253
915.132	16051
915.245	16185
915.358	16074
915.47	16173
915.583	16139
915.696	16173
915.809	16226
915.921	16226
916.034	16105
916.146	15998
916.259	15968
916.371	16120
916.483	16013
916.595	15956
916.708	15915
916.82	15953
916.932	15850
917.044	15903
917.156	15918
917.268	15766
917.38	15781
917.491	15747
917.603	15736
917.715	15789
917.826	15842
917.938	15736
918.049	15595
918.161	15682
918.272	15751
918.384	15804
918.495	15614
918.606	15477
918.717	15447
918.828	15519
918.939	15477
919.05	15408
919.161	15408
919.272	15306
919.383	15408
919.494	15557
919.604	15736
919.715	15515
919.826	15416
919.936	15469
920.047	15424
920.157	15492
920.267	15641
920.378	15439
920.488	15397
920.598	15599
920.708	15675
920.818	15561
920.928	15466
921.038	15717
921.148	15644
921.258	15351
921.368	15283
921.477	15116
921.587	15089
921.697	14994
921.806	15157
921.916	14944
922.025	14895
922.134	14891
922.244	14678
922.353	14849
922.462	14697
922.571	14552
922.68	14450
922.789	14442
922.898	14423
923.007	14263
923.116	14499
923.224	14400
923.333	14320
923.442	14221
923.55	14202
923.659	14259
923.767	14347
923.876	14259
923.984	14244
924.092	14096
924.201	14142
924.309	14214
924.417	14119
924.525	14119
924.633	14176
924.741	14967
924.849	13830
924.956	13982
925.064	13909
925.172	13780
925.279	13814
925.387	13784
925.494	13757
925.602	14005
925.709	13871
925.816	13613
925.924	13750
926.031	13811
926.138	13712
926.245	13708
926.352	13666
926.459	13708
926.566	13795
926.673	13624
926.779	13651
926.886	13529
926.993	13441
927.099	13350
927.206	13327
927.312	13198
927.419	13369
927.525	13343
927.631	13396
927.737	13168
927.843	13240
927.95	13110
928.056	13152
928.162	13213
928.267	13202
928.373	13795
928.479	13255
928.585	12985
928.69	13034
928.796	13232
928.901	13053
929.007	12909
929.112	13046
929.218	12985
929.323	12913
929.428	12913
929.533	13000
929.638	12837
929.743	12856
929.848	12859
929.953	12806
930.058	12768
930.163	12483
930.267	12623
930.372	12688
930.477	12502
930.581	12783
930.685	12555
930.79	12372
930.894	12433
930.998	12391
931.103	12467
931.207	12216
931.311	12068
931.415	11999
931.519	11741
931.623	11794
