Data from test_V78500241_546.txt Node
Date: Fri Mar 25 15:45:35 CST 2022
User: usil
Spectrometer: V785-0024
Trigger mode: 0
Integration Time (sec): 4.000000E-1
Scans to average: 1
Nonlinearity correction enabled: false
Boxcar width: 0
Storing dark spectrum: false
XAxis mode: Wavelengths
Number of Pixels in Spectrum: 1024
>>>>>Begin Spectral Data<<<<<
801.071	27717
801.214	27679
801.356	27302
801.499	27363
801.641	27192
801.783	27241
801.926	27192
802.068	27287
802.211	27066
802.353	27100
802.496	26914
802.638	26963
802.78	27005
802.923	26910
803.065	26921
803.208	26906
803.35	26929
803.492	26944
803.635	27112
803.777	26918
803.919	26979
804.061	27363
804.204	27062
804.346	26910
804.488	26876
804.63	26971
804.773	26887
804.915	27058
805.057	27169
805.199	26963
805.341	27173
805.483	27294
805.626	27032
805.768	27127
805.91	27184
806.052	27108
806.194	27032
806.336	27321
806.478	27199
806.62	27199
806.762	27317
806.904	27583
807.046	27656
807.188	27610
807.33	27580
807.472	27800
807.614	27473
807.756	27564
807.898	27511
808.04	27412
808.182	27500
808.324	27526
808.465	27485
808.607	27682
808.749	27694
808.891	27949
809.033	28006
809.174	27865
809.316	27934
809.458	27804
809.6	27918
809.741	27953
809.883	28021
810.025	28082
810.166	27953
810.308	28219
810.45	27926
810.591	28013
810.733	27736
810.875	27766
811.016	27827
811.158	27705
811.299	28048
811.441	27949
811.582	28124
811.724	27899
811.865	27960
812.007	27766
812.148	27743
812.29	27884
812.431	27831
812.573	27956
812.714	28204
812.855	28516
812.997	28462
813.138	28618
813.279	28436
813.421	28253
813.562	28272
813.703	28295
813.845	28051
813.986	27884
814.127	27606
814.268	27397
814.41	27507
814.551	27496
814.692	27644
814.833	27504
814.974	27431
815.115	27466
815.256	27313
815.397	27230
815.539	27264
815.68	27332
815.821	27165
815.962	27214
816.103	27077
816.244	27260
816.385	27077
816.526	27055
816.666	26982
816.807	26788
816.948	26857
817.089	26864
817.23	26826
817.371	26788
817.512	26708
817.653	26644
817.793	26895
817.934	26750
818.075	26853
818.216	26804
818.356	26792
818.497	26682
818.638	26339
818.778	26465
818.919	26427
819.06	26590
819.2	26739
819.341	26811
819.481	26868
819.622	26785
819.762	27024
819.903	26994
820.043	26948
820.184	26899
820.324	26750
820.465	26971
820.605	27036
820.746	26826
820.886	26739
821.026	26792
821.167	26925
821.307	26918
821.447	26674
821.588	26670
821.728	26587
821.868	26423
822.008	26328
822.149	26199
822.289	26225
822.429	25963
822.569	25959
822.709	25898
822.849	25818
822.99	25715
823.13	25757
823.27	25723
823.41	25563
823.55	25502
823.69	25628
823.83	25597
823.97	25430
824.11	25377
824.25	25312
824.389	25324
824.529	25449
824.669	25381
824.809	25537
824.949	25487
825.089	25438
825.228	25419
825.368	25198
825.508	25194
825.648	25247
825.787	25282
825.927	25247
826.067	25217
826.206	25236
826.346	25293
826.485	25232
826.625	25415
826.765	25365
826.904	25221
827.044	24962
827.183	25015
827.323	25019
827.462	24913
827.601	25008
827.741	24905
827.88	24916
828.02	24738
828.159	24863
828.298	24837
828.437	24932
828.577	24867
828.716	25004
828.855	24901
828.994	24669
829.134	24642
829.273	24684
829.412	24669
829.551	24669
829.69	24612
829.829	24646
829.968	24726
830.107	24707
830.246	24658
830.385	24639
830.524	24578
830.663	24395
830.802	24300
830.941	24338
831.08	24114
831.219	24262
831.357	24289
831.496	24536
831.635	24186
831.774	24102
831.913	24098
832.051	23969
832.19	24079
832.329	24098
832.467	23992
832.606	23897
832.744	23832
832.883	23832
833.022	23866
833.16	23954
833.299	23961
833.437	23980
833.576	23920
833.714	23999
833.852	23977
833.991	24072
834.129	24205
834.267	23965
834.406	23965
834.544	23973
834.682	23980
834.821	23863
834.959	24007
835.097	23901
835.235	24003
835.373	24041
835.511	23882
835.65	23885
835.788	23843
835.926	23653
836.064	23592
836.202	23528
836.34	23832
836.478	23794
836.615	23672
836.753	23824
836.891	23901
837.029	23904
837.167	23794
837.305	23737
837.443	23577
837.58	23691
837.718	23703
837.856	23665
837.993	23531
838.131	23722
838.269	23463
838.406	23570
838.544	23444
838.681	23402
838.819	23189
838.956	23143
839.094	23052
839.231	23174
839.369	23341
839.506	23547
839.643	23463
839.781	23048
839.918	23067
840.055	23254
840.193	23151
840.33	23083
840.467	23159
840.604	23086
840.742	23315
840.879	22934
841.016	22991
841.153	22984
841.29	23090
841.427	23010
841.564	23159
841.701	23132
841.838	23018
841.975	23041
842.112	22793
842.249	22908
842.385	22904
842.522	23041
842.659	22987
842.796	22721
842.933	22702
843.069	22698
843.206	22706
843.343	22774
843.479	22771
843.616	22801
843.752	22599
843.889	22550
844.025	22668
844.162	22565
844.298	22637
844.435	22554
844.571	22641
844.708	22790
844.844	22816
844.98	22694
845.117	22740
845.253	22550
845.389	22451
845.525	22443
845.661	22344
845.798	22226
845.934	22268
846.07	22246
846.206	22280
846.342	22474
846.478	22367
846.614	22112
846.75	22040
846.886	21994
847.022	22101
847.158	22021
847.294	22044
847.429	21956
847.565	22109
847.701	22337
847.837	21762
847.972	21781
848.108	21903
848.244	21842
848.379	21747
848.515	21587
848.65	21610
848.786	21633
848.921	21667
849.057	21785
849.192	21739
849.328	21660
849.463	21667
849.598	21576
849.734	21553
849.869	21542
850.004	21515
850.14	21359
850.275	21424
850.41	21184
850.545	21332
850.68	21214
850.815	21367
850.95	21393
851.085	21458
851.22	21523
851.355	21397
851.49	21462
851.625	21321
851.76	21329
851.895	21256
852.03	21237
852.165	21477
852.299	21374
852.434	21462
852.569	21420
852.703	21416
852.838	21450
852.973	21599
853.107	21450
853.242	21264
853.376	21176
853.511	21096
853.645	21222
853.78	21252
853.914	21298
854.048	21272
854.183	21237
854.317	21226
854.451	21412
854.585	21226
854.72	21260
854.854	21355
854.988	21096
855.122	21192
855.256	21039
855.39	21203
855.524	21279
855.658	21218
855.792	21218
855.926	21378
856.06	21260
856.194	21233
856.327	21146
856.461	21058
856.595	21062
856.729	21173
856.862	21249
856.996	21222
857.13	21283
857.263	21214
857.397	21237
857.53	21173
857.664	21256
857.797	21233
857.931	21283
858.064	21321
858.197	21313
858.331	21169
858.464	21085
858.597	21093
858.731	21138
858.864	21100
858.997	21154
859.13	21123
859.263	21173
859.396	21275
859.529	21169
859.662	21100
859.795	21058
859.928	21142
860.061	21241
860.194	21329
860.327	21329
860.46	21249
860.592	21317
860.725	21329
860.858	21294
860.99	21260
861.123	21123
861.256	21127
861.388	21138
861.521	21686
861.653	21112
861.786	21070
861.918	21062
862.05	21123
862.183	21146
862.315	21074
862.447	21176
862.58	20967
862.712	20956
862.844	20872
862.976	21009
863.108	21058
863.24	21306
863.372	20895
863.504	20887
863.636	20994
863.768	20918
863.9	20883
864.032	20891
864.164	20906
864.296	20998
864.428	21001
864.559	20960
864.691	20982
864.823	20857
864.954	20883
865.086	20891
865.217	20861
865.349	20765
865.48	20746
865.612	20906
865.743	20914
865.875	20868
866.006	20758
866.137	20804
866.269	20796
866.4	20632
866.531	20849
866.662	20746
866.793	20678
866.924	20678
867.055	20739
867.186	20727
867.317	20682
867.448	20629
867.579	20731
867.71	20655
867.841	20629
867.972	20701
868.103	20880
868.233	20739
868.364	20796
868.495	20880
868.625	20902
868.756	21005
868.886	20868
869.017	20986
869.147	21039
869.278	21116
869.408	21032
869.539	20975
869.669	21032
869.799	21009
869.929	21150
870.06	21062
870.19	21325
870.32	21188
870.45	21298
870.58	21367
870.71	21595
870.84	21488
870.97	21405
871.1	21340
871.23	21530
871.36	21458
871.489	21428
871.619	21549
871.749	21675
871.879	21671
872.008	21698
872.138	21473
872.267	21671
872.397	21420
872.526	21431
872.656	21317
872.785	21504
872.915	21656
873.044	21713
873.173	21682
873.303	21694
873.432	21641
873.561	21686
873.69	21572
873.819	21504
873.948	21739
874.077	21599
874.206	21637
874.335	21663
874.464	21660
874.593	21812
874.722	21895
874.851	21945
874.979	21778
875.108	21838
875.237	21819
875.365	21622
875.494	21724
875.623	21907
875.751	21770
875.88	21816
876.008	21842
876.136	21941
876.265	22226
876.393	22363
876.521	22272
876.65	22375
876.778	22131
876.906	22048
877.034	22192
877.162	22196
877.29	22154
877.418	22181
877.546	22139
877.674	22124
877.802	22238
877.93	22181
878.058	22093
878.185	22101
878.313	22109
878.441	22204
878.568	22063
878.696	22036
878.824	22204
878.951	22105
879.079	22341
879.206	22489
879.333	22322
879.461	22390
879.588	22306
879.715	22325
879.842	22500
879.97	22188
880.097	22021
880.224	21979
880.351	21972
880.478	21816
880.605	22010
880.732	21945
880.859	22280
880.986	22032
881.112	22013
881.239	21895
881.366	21694
881.493	21625
881.619	21580
881.746	21743
881.872	21622
881.999	21583
882.125	21564
882.252	21549
882.378	21591
882.505	21641
882.631	21458
882.757	21344
882.883	21370
883.01	21332
883.136	21302
883.262	21203
883.388	21150
883.514	21249
883.64	21370
883.766	21089
883.892	21096
884.018	21036
884.143	21283
884.269	21370
884.395	20990
884.52	20910
884.646	20902
884.772	20796
884.897	20868
885.023	20868
885.148	21058
885.274	21085
885.399	20956
885.524	20861
885.65	20956
885.775	21017
885.9	20998
886.025	21070
886.15	20979
886.275	20891
886.4	20754
886.525	20929
886.65	20994
886.775	20834
886.9	21108
887.025	21051
887.149	20868
887.274	20796
887.399	20765
887.523	20720
887.648	20602
887.773	20575
887.897	20769
888.021	20651
888.146	20598
888.27	20705
888.395	20815
888.519	20746
888.643	20674
888.767	20788
888.891	20613
889.015	20579
889.139	20511
889.263	20492
889.387	20552
889.511	20838
889.635	20629
889.759	20415
889.883	20590
890.006	20457
890.13	20461
890.254	20446
890.377	20434
890.501	20320
890.624	20191
890.748	20332
890.871	20183
890.995	19989
891.118	20092
891.241	19978
891.364	20054
891.488	20218
891.611	20027
891.734	20058
891.857	20206
891.98	20119
892.103	20187
892.226	20039
892.349	20012
892.471	19856
892.594	19944
892.717	19963
892.839	19928
892.962	20031
893.085	20103
893.207	20001
893.33	19909
893.452	19902
893.575	20054
893.697	19906
893.819	20100
893.941	20199
894.064	20100
894.186	19959
894.308	19936
894.43	19951
894.552	20073
894.674	20115
894.796	19731
894.918	19898
895.04	19890
895.161	20058
895.283	20050
895.405	19951
895.526	19940
895.648	19997
895.769	20039
895.891	20020
896.012	19936
896.134	20008
896.255	19925
896.376	19982
896.498	20008
896.619	20050
896.74	19974
896.861	20001
896.982	20286
897.103	20492
897.224	20305
897.345	20309
897.466	20122
897.587	20248
897.708	20305
897.828	20256
897.949	20180
898.07	20020
898.19	20096
898.311	20294
898.431	20046
898.552	20218
898.672	20244
898.792	20210
898.913	20210
899.033	20153
899.153	20134
899.273	19849
899.393	19871
899.513	19997
899.633	19963
899.753	19997
899.873	19776
899.993	19932
900.113	19917
900.232	19925
900.352	19860
900.472	19887
900.591	19712
900.711	19772
900.83	19708
900.95	19845
901.069	19837
901.189	19674
901.308	19388
901.427	19308
901.546	19301
901.665	19362
901.784	19335
901.904	19217
902.023	19175
902.141	18913
902.26	18875
902.379	18844
902.498	18882
902.617	18764
902.735	18890
902.854	18825
902.973	18669
903.091	18445
903.21	18494
903.328	18574
903.446	18391
903.565	18292
903.683	18330
903.801	18155
903.919	18285
904.038	18251
904.156	18060
904.274	18102
904.392	18186
904.51	18098
904.627	17920
904.745	18163
904.863	18030
904.981	17916
905.098	17756
905.216	17821
905.334	17653
905.451	17817
905.569	17745
905.686	17691
905.803	17790
905.921	17459
906.038	17611
906.155	17505
906.272	17436
906.389	17493
906.506	17254
906.623	17322
906.74	17280
906.857	17132
906.974	17178
907.091	17254
907.208	17421
907.324	17345
907.441	17151
907.557	16904
907.674	16911
907.79	16896
907.907	16968
908.023	16968
908.139	17033
908.256	16877
908.372	16824
908.488	16889
908.604	16721
908.72	16622
908.836	16820
908.952	16717
909.068	16786
909.184	16767
909.3	16744
909.415	16778
909.531	16717
909.647	16440
909.762	16485
909.878	16462
909.993	16352
910.108	16341
910.224	16291
910.339	16379
910.454	16234
910.57	16230
910.685	16124
910.8	16481
910.915	16402
911.03	16215
911.145	16086
911.259	16021
911.374	16059
911.489	15941
911.604	15987
911.718	15759
911.833	15781
911.947	15629
912.062	15717
912.176	15736
912.291	15759
912.405	15797
912.519	15922
912.633	15911
912.748	15793
912.862	15724
912.976	15576
913.09	15443
913.204	15568
913.318	15648
913.431	15724
913.545	15614
913.659	15720
913.772	15549
913.886	15458
914	15526
914.113	15428
914.226	15424
914.34	15431
914.453	15237
914.566	15393
914.68	15306
914.793	15256
914.906	15020
915.019	15051
915.132	14941
915.245	15001
915.358	15013
915.47	15100
915.583	15032
915.696	15077
915.809	15146
915.921	15097
916.034	14899
916.146	14929
916.259	14929
916.371	15074
916.483	14960
916.595	14918
916.708	14925
916.82	14872
916.932	14792
917.044	14788
917.156	14777
917.268	14598
917.38	14712
917.491	14667
917.603	14621
917.715	14712
917.826	14659
917.938	14545
918.049	14457
918.161	14629
918.272	14838
918.384	14644
918.495	14640
918.606	14412
918.717	14431
918.828	14454
918.939	14480
919.05	14317
919.161	14423
919.272	14172
919.383	14271
919.494	14442
919.604	14594
919.715	14336
919.826	14332
919.936	14343
920.047	14457
920.157	14343
920.267	14469
920.378	14461
920.488	14301
920.598	14511
920.708	14724
920.818	14571
920.928	14492
921.038	14716
921.148	14610
921.258	14309
921.368	14191
921.477	14176
921.587	14256
921.697	14035
921.806	14142
921.916	13997
922.025	13879
922.134	13746
922.244	13750
922.353	13803
922.462	13647
922.571	13658
922.68	13464
922.789	13358
922.898	13407
923.007	13407
923.116	13403
923.224	13377
923.333	13396
923.442	13289
923.55	13129
923.659	13251
923.767	13346
923.876	13278
923.984	13301
924.092	13133
924.201	13183
924.309	13217
924.417	13228
924.525	13149
924.633	13114
924.741	13841
924.849	12878
924.956	13053
925.064	12989
925.172	12814
925.279	12821
925.387	12844
925.494	12901
925.602	12909
925.709	12897
925.816	12707
925.924	12768
926.031	12890
926.138	12814
926.245	12852
926.352	12673
926.459	12840
926.566	12882
926.673	12669
926.779	12642
926.886	12582
926.993	12426
927.099	12429
927.206	12452
927.312	12346
927.419	12433
927.525	12414
927.631	12384
927.737	12323
927.843	12201
927.95	12152
928.056	12155
928.162	12327
928.267	12258
928.373	12844
928.479	12319
928.585	12068
928.69	12209
928.796	12304
928.901	12079
929.007	12049
929.112	12072
929.218	11984
929.323	12049
929.428	11992
929.533	12098
929.638	11878
929.743	11870
929.848	11988
929.953	11965
930.058	11851
930.163	11676
930.267	11684
930.372	11828
930.477	11600
930.581	11885
930.685	11733
930.79	11573
930.894	11668
930.998	11520
931.103	11703
931.207	11315
931.311	11227
931.415	11189
931.519	10984
931.623	10873
