Data from test_V78500241_2834.txt Node
Date: Fri Mar 25 16:01:25 CST 2022
User: usil
Spectrometer: V785-0024
Trigger mode: 0
Integration Time (sec): 4.000000E-1
Scans to average: 1
Nonlinearity correction enabled: false
Boxcar width: 0
Storing dark spectrum: false
XAxis mode: Wavelengths
Number of Pixels in Spectrum: 1024
>>>>>Begin Spectral Data<<<<<
801.071	28999
801.214	29147
801.356	28717
801.499	28752
801.641	28584
801.783	28615
801.926	28679
802.068	28687
802.211	28660
802.353	28626
802.496	28341
802.638	28459
802.78	28329
802.923	28219
803.065	28322
803.208	28459
803.35	28310
803.492	28417
803.635	28596
803.777	28462
803.919	28546
804.061	28919
804.204	28660
804.346	28421
804.488	28523
804.63	28664
804.773	28470
804.915	28630
805.057	28786
805.199	28672
805.341	28653
805.483	28862
805.626	28805
805.768	28538
805.91	28672
806.052	28850
806.194	28717
806.336	28942
806.478	28774
806.62	28748
806.762	29018
806.904	29064
807.046	29330
807.188	29231
807.33	29220
807.472	29337
807.614	29128
807.756	29231
807.898	29064
808.04	29079
808.182	28862
808.324	29075
808.465	29235
808.607	29216
808.749	29570
808.891	29486
809.033	29710
809.174	29619
809.316	29520
809.458	29531
809.6	29398
809.741	29623
809.883	29623
810.025	29840
810.166	29874
810.308	29798
810.45	29733
810.591	29726
810.733	29509
810.875	29535
811.016	29345
811.158	29318
811.299	29665
811.441	29493
811.582	29646
811.724	29501
811.865	29509
812.007	29585
812.148	29512
812.29	29505
812.431	29695
812.573	29779
812.714	29973
812.855	30095
812.997	30110
813.138	30247
813.279	30095
813.421	30038
813.562	29961
813.703	29916
813.845	29634
813.986	29459
814.127	29318
814.268	29227
814.41	29280
814.551	29098
814.692	29315
814.833	29227
814.974	29345
815.115	29315
815.256	29052
815.397	29121
815.539	29200
815.68	29018
815.821	28873
815.962	28888
816.103	28995
816.244	28869
816.385	28809
816.526	28748
816.666	28497
816.807	28478
816.948	28630
817.089	28607
817.23	28538
817.371	28508
817.512	28577
817.653	28481
817.793	28489
817.934	28451
818.075	28481
818.216	28637
818.356	28516
818.497	28341
818.638	28215
818.778	28337
818.919	28318
819.06	28268
819.2	28325
819.341	28588
819.481	28470
819.622	28721
819.762	29003
819.903	28938
820.043	28706
820.184	28805
820.324	28607
820.465	28653
820.605	28759
820.746	28637
820.886	28588
821.026	28618
821.167	28542
821.307	28584
821.447	28557
821.588	28519
821.728	28310
821.868	28154
822.008	28093
822.149	27926
822.289	27949
822.429	27793
822.569	27679
822.709	27759
822.849	27450
822.99	27488
823.13	27408
823.27	27485
823.41	27348
823.55	27199
823.69	27233
823.83	27351
823.97	27127
824.11	27249
824.25	27096
824.389	27157
824.529	27150
824.669	27135
824.809	27203
824.949	27283
825.089	27294
825.228	27176
825.368	27096
825.508	27028
825.648	27096
825.787	27157
825.927	27093
826.067	26986
826.206	27024
826.346	27058
826.485	27039
826.625	27066
826.765	27146
826.904	27051
827.044	26720
827.183	26902
827.323	26720
827.462	26811
827.601	26872
827.741	26826
827.88	26777
828.02	26617
828.159	26693
828.298	26785
828.437	26971
828.577	26689
828.716	26975
828.855	26705
828.994	26541
829.134	26507
829.273	26609
829.412	26484
829.551	26457
829.69	26488
829.829	26632
829.968	26552
830.107	26507
830.246	26317
830.385	26419
830.524	26286
830.663	26313
830.802	26134
830.941	26271
831.08	26035
831.219	26168
831.357	26111
831.496	26214
831.635	26065
831.774	25856
831.913	25963
832.051	25906
832.19	25837
832.329	25769
832.467	25879
832.606	25742
832.744	25620
832.883	25765
833.022	25704
833.16	25776
833.299	25826
833.437	25655
833.576	25753
833.714	25761
833.852	25845
833.991	25898
834.129	25830
834.267	25868
834.406	25765
834.544	25784
834.682	25624
834.821	25727
834.959	25856
835.097	25841
835.235	25894
835.373	25738
835.511	25837
835.65	25510
835.788	25632
835.926	25559
836.064	25403
836.202	25502
836.34	25540
836.478	25734
836.615	25616
836.753	25632
836.891	25658
837.029	25681
837.167	25479
837.305	25567
837.443	25468
837.58	25487
837.718	25468
837.856	25445
837.993	25365
838.131	25422
838.269	25320
838.406	25301
838.544	25164
838.681	25091
838.819	25122
838.956	25004
839.094	24951
839.231	24996
839.369	25103
839.506	25228
839.643	25206
839.781	24973
839.918	24776
840.055	24837
840.193	24798
840.33	24859
840.467	24939
840.604	24951
840.742	25012
840.879	24559
841.016	24688
841.153	24719
841.29	24901
841.427	24814
841.564	24764
841.701	24871
841.838	24783
841.975	24673
842.112	24650
842.249	24707
842.385	24513
842.522	24711
842.659	24589
842.796	24574
842.933	24532
843.069	24445
843.206	24517
843.343	24486
843.479	24589
843.616	24532
843.752	24407
843.889	24460
844.025	24502
844.162	24304
844.298	24353
844.435	24228
844.571	24308
844.708	24243
844.844	24369
844.98	24418
845.117	24391
845.253	24190
845.389	24228
845.525	24273
845.661	24159
845.798	24121
845.934	24098
846.07	24083
846.206	23999
846.342	24098
846.478	24091
846.614	23885
846.75	23828
846.886	23642
847.022	23802
847.158	23798
847.294	23668
847.429	23729
847.565	23821
847.701	23988
847.837	23364
847.972	23337
848.108	23581
848.244	23493
848.379	23334
848.515	23429
848.65	23303
848.786	23284
848.921	23265
849.057	23531
849.192	23440
849.328	23315
849.463	23322
849.598	23425
849.734	23143
849.869	23208
850.004	23090
850.14	23022
850.275	23170
850.41	23151
850.545	23067
850.68	23014
850.815	23136
850.95	23060
851.085	23303
851.22	23166
851.355	23041
851.49	23006
851.625	23117
851.76	23018
851.895	23018
852.03	23041
852.165	23178
852.299	23166
852.434	23170
852.569	23288
852.703	23113
852.838	23204
852.973	23254
853.107	23235
853.242	23018
853.376	22896
853.511	22782
853.645	22854
853.78	23109
853.914	22873
854.048	22854
854.183	22927
854.317	22949
854.451	23052
854.585	22942
854.72	23079
854.854	23003
854.988	22889
855.122	22831
855.256	22729
855.39	23025
855.524	22900
855.658	23003
855.792	22987
855.926	22854
856.06	22949
856.194	22999
856.327	22797
856.461	22881
856.595	22946
856.729	23025
856.862	23105
856.996	23048
857.13	22927
857.263	22908
857.397	22934
857.53	22843
857.664	22923
857.797	22961
857.931	23086
858.064	22919
858.197	22984
858.331	22965
858.464	22873
858.597	22881
858.731	22828
858.864	22801
858.997	22843
859.13	22900
859.263	22915
859.396	22976
859.529	22991
859.662	22759
859.795	22847
859.928	22900
860.061	23109
860.194	23147
860.327	23086
860.46	22934
860.592	23136
860.725	23048
860.858	23048
860.99	22965
861.123	22889
861.256	22862
861.388	22892
861.521	23638
861.653	22835
861.786	22713
861.918	22653
862.05	22755
862.183	22839
862.315	22862
862.447	22946
862.58	22843
862.712	22649
862.844	22497
862.976	22637
863.108	22713
863.24	22946
863.372	22538
863.504	22634
863.636	22759
863.768	22656
863.9	22596
864.032	22592
864.164	22516
864.296	22668
864.428	22649
864.559	22565
864.691	22630
864.823	22596
864.954	22512
865.086	22554
865.217	22565
865.349	22367
865.48	22367
865.612	22459
865.743	22550
865.875	22599
866.006	22527
866.137	22519
866.269	22516
866.4	22497
866.531	22580
866.662	22318
866.793	22478
866.924	22489
867.055	22379
867.186	22497
867.317	22409
867.448	22432
867.579	22421
867.71	22386
867.841	22314
867.972	22379
868.103	22436
868.233	22443
868.364	22344
868.495	22622
868.625	22664
868.756	22835
868.886	22573
869.017	22596
869.147	22824
869.278	22744
869.408	22740
869.539	22675
869.669	22683
869.799	22839
869.929	22748
870.06	22660
870.19	22839
870.32	22980
870.45	23105
870.58	23037
870.71	23178
870.84	23132
870.97	23178
871.1	23212
871.23	23159
871.36	23303
871.489	23189
871.619	23170
871.749	23223
871.879	23250
872.008	23364
872.138	23322
872.267	23231
872.397	23159
872.526	23102
872.656	23166
872.785	23147
872.915	23162
873.044	23395
873.173	23231
873.303	23349
873.432	23376
873.561	23368
873.69	23368
873.819	23250
873.948	23334
874.077	23284
874.206	23269
874.335	23330
874.464	23528
874.593	23558
874.722	23474
874.851	23512
874.979	23592
875.108	23547
875.237	23463
875.365	23402
875.494	23463
875.623	23436
875.751	23535
875.88	23490
876.008	23539
876.136	23649
876.265	23897
876.393	24026
876.521	23939
876.65	23889
876.778	23889
876.906	23889
877.034	23714
877.162	23863
877.29	23851
877.418	23805
877.546	23939
877.674	23912
877.802	23927
877.93	23813
878.058	23798
878.185	23619
878.313	23775
878.441	23805
878.568	23562
878.696	23684
878.824	23866
878.951	23832
879.079	24057
879.206	24186
879.333	24030
879.461	23813
879.588	23923
879.715	23954
879.842	24095
879.97	23893
880.097	23661
880.224	23646
880.351	23718
880.478	23528
880.605	23687
880.732	23478
880.859	23866
880.986	23699
881.112	23596
881.239	23554
881.366	23421
881.493	23436
881.619	23303
881.746	23208
881.872	23330
881.999	23102
882.125	23128
882.252	23227
882.378	23136
882.505	23303
882.631	23124
882.757	22850
882.883	22991
883.01	22938
883.136	22866
883.262	22691
883.388	22744
883.514	22839
883.64	22805
883.766	22797
883.892	22706
884.018	22596
884.143	22744
884.269	22850
884.395	22527
884.52	22424
884.646	22565
884.772	22466
884.897	22577
885.023	22493
885.148	22428
885.274	22645
885.399	22637
885.524	22421
885.65	22531
885.775	22592
885.9	22466
886.025	22557
886.15	22497
886.275	22519
886.4	22405
886.525	22424
886.65	22276
886.775	22398
886.9	22569
887.025	22721
887.149	22360
887.274	22276
887.399	22226
887.523	22109
887.648	22230
887.773	22002
887.897	22257
888.021	22276
888.146	22082
888.27	22322
888.395	22303
888.519	22325
888.643	22306
888.767	22310
888.891	22112
889.015	22040
889.139	22177
889.263	21972
889.387	22135
889.511	22177
889.635	22204
889.759	21987
889.883	22040
890.006	22074
890.13	22059
890.254	21884
890.377	21953
890.501	21892
890.624	21694
890.748	21865
890.871	21606
890.995	21538
891.118	21583
891.241	21587
891.364	21538
891.488	21675
891.611	21595
891.734	21458
891.857	21701
891.98	21530
892.103	21644
892.226	21576
892.349	21595
892.471	21351
892.594	21504
892.717	21462
892.839	21466
892.962	21477
893.085	21511
893.207	21435
893.33	21275
893.452	21336
893.575	21637
893.697	21389
893.819	21504
893.941	21549
894.064	21637
894.186	21367
894.308	21355
894.43	21614
894.552	21599
894.674	21431
894.796	21325
894.918	21389
895.04	21298
895.161	21515
895.283	21496
895.405	21355
895.526	21424
895.648	21481
895.769	21485
895.891	21458
896.012	21488
896.134	21469
896.255	21428
896.376	21378
896.498	21420
896.619	21443
896.74	21378
896.861	21473
896.982	21861
897.103	21895
897.224	21690
897.345	21641
897.466	21542
897.587	21583
897.708	21762
897.828	21633
897.949	21587
898.07	21325
898.19	21576
898.311	21603
898.431	21701
898.552	21633
898.672	21622
898.792	21694
898.913	21675
899.033	21511
899.153	21325
899.273	21351
899.393	21435
899.513	21401
899.633	21462
899.753	21306
899.873	21310
899.993	21321
900.113	21291
900.232	21355
900.352	21252
900.472	21157
900.591	21131
900.711	21116
900.83	21104
900.95	21252
901.069	21131
901.189	20975
901.308	20849
901.427	20617
901.546	20758
901.665	20743
901.784	20655
901.904	20514
902.023	20427
902.141	20393
902.26	20233
902.379	20305
902.498	20191
902.617	20157
902.735	20164
902.854	20077
902.973	20058
903.091	19879
903.21	19674
903.328	19856
903.446	19830
903.565	19582
903.683	19666
903.801	19491
903.919	19662
904.038	19597
904.156	19411
904.274	19453
904.392	19289
904.51	19263
904.627	19346
904.745	19464
904.863	19411
904.981	19114
905.098	18996
905.216	19031
905.334	19133
905.451	19156
905.569	18989
905.686	19057
905.803	19027
905.921	18825
906.038	18916
906.155	18745
906.272	18871
906.389	18745
906.506	18612
906.623	18593
906.74	18536
906.857	18369
906.974	18479
907.091	18654
907.208	18707
907.324	18467
907.441	18441
907.557	18216
907.674	18296
907.79	18209
907.907	18235
908.023	18315
908.139	18277
908.256	18213
908.372	18201
908.488	18186
908.604	18049
908.72	17958
908.836	17923
908.952	17961
909.068	18098
909.184	18140
909.3	17954
909.415	18015
909.531	17992
909.647	17726
909.762	17676
909.878	17627
909.993	17733
910.108	17668
910.224	17642
910.339	17630
910.454	17497
910.57	17467
910.685	17395
910.8	17771
910.915	17554
911.03	17463
911.145	17326
911.259	17284
911.374	17155
911.489	17098
911.604	17109
911.718	16995
911.833	16919
911.947	16869
912.062	16866
912.176	16987
912.291	17037
912.405	16873
912.519	17189
912.633	17159
912.748	17060
912.862	16965
912.976	16702
913.09	16626
913.204	16740
913.318	16771
913.431	16843
913.545	16881
913.659	16873
913.772	16736
913.886	16622
914	16622
914.113	16702
914.226	16592
914.34	16615
914.453	16455
914.566	16615
914.68	16413
914.793	16405
914.906	16287
915.019	16276
915.132	16181
915.245	16147
915.358	16154
915.47	16082
915.583	16071
915.696	16158
915.809	16204
915.921	16344
916.034	16128
916.146	16055
916.259	15964
916.371	16051
916.483	16112
916.595	15941
916.708	15975
916.82	15922
916.932	15979
917.044	15930
917.156	15857
917.268	15884
917.38	15762
917.491	15800
917.603	15819
917.715	15774
917.826	15789
917.938	15686
918.049	15542
918.161	15671
918.272	15808
918.384	15793
918.495	15595
918.606	15519
918.717	15488
918.828	15519
918.939	15504
919.05	15389
919.161	15485
919.272	15329
919.383	15355
919.494	15542
919.604	15694
919.715	15397
919.826	15477
919.936	15416
920.047	15564
920.157	15359
920.267	15564
920.378	15458
920.488	15374
920.598	15648
920.708	15728
920.818	15492
920.928	15622
921.038	15720
921.148	15656
921.258	15363
921.368	15367
921.477	15245
921.587	15032
921.697	15112
921.806	15112
921.916	14982
922.025	14754
922.134	14861
922.244	14667
922.353	14804
922.462	14674
922.571	14701
922.68	14461
922.789	14381
922.898	14336
923.007	14419
923.116	14461
923.224	14400
923.333	14389
923.442	14290
923.55	14237
923.659	14377
923.767	14256
923.876	14210
923.984	14263
924.092	14096
924.201	14218
924.309	14103
924.417	14111
924.525	14035
924.633	14031
924.741	15036
924.849	13890
924.956	13989
925.064	13837
925.172	13799
925.279	13769
925.387	13712
925.494	13803
925.602	13955
925.709	13776
925.816	13750
925.924	13670
926.031	13814
926.138	13628
926.245	13788
926.352	13575
926.459	13761
926.566	13818
926.673	13578
926.779	13529
926.886	13464
926.993	13373
927.099	13415
927.206	13236
927.312	13270
927.419	13449
927.525	13400
927.631	13343
927.737	13190
927.843	13198
927.95	13061
928.056	13080
928.162	13088
928.267	13133
928.373	13761
928.479	13156
928.585	12939
928.69	13069
928.796	13076
928.901	12943
929.007	12848
929.112	12993
929.218	12951
929.323	12920
929.428	12814
929.533	12943
929.638	12749
929.743	12795
929.848	12833
929.953	12753
930.058	12654
930.163	12513
930.267	12486
930.372	12620
930.477	12403
930.581	12654
930.685	12578
930.79	12361
930.894	12429
930.998	12357
931.103	12475
931.207	12201
931.311	11996
931.415	11988
931.519	11714
931.623	11676
