Data from test_V78500241_2021.txt Node
Date: Fri Mar 25 15:55:48 CST 2022
User: usil
Spectrometer: V785-0024
Trigger mode: 0
Integration Time (sec): 4.000000E-1
Scans to average: 1
Nonlinearity correction enabled: false
Boxcar width: 0
Storing dark spectrum: false
XAxis mode: Wavelengths
Number of Pixels in Spectrum: 1024
>>>>>Begin Spectral Data<<<<<
801.071	28428
801.214	28356
801.356	28177
801.499	28086
801.641	28128
801.783	27991
801.926	27949
802.068	28059
802.211	27956
802.353	27823
802.496	27679
802.638	27610
802.78	27614
802.923	27515
803.065	27561
803.208	27667
803.35	27762
803.492	27861
803.635	27766
803.777	27747
803.919	27941
804.061	28112
804.204	27850
804.346	27945
804.488	27762
804.63	27941
804.773	27857
804.915	27922
805.057	27964
805.199	27865
805.341	27816
805.483	28120
805.626	28029
805.768	27956
805.91	28070
806.052	28059
806.194	27797
806.336	28226
806.478	28059
806.62	28063
806.762	28101
806.904	28242
807.046	28443
807.188	28561
807.33	28413
807.472	28771
807.614	28580
807.756	28417
807.898	28379
808.04	28352
808.182	28341
808.324	28348
808.465	28367
808.607	28656
808.749	28660
808.891	28748
809.033	28885
809.174	28733
809.316	28668
809.458	28691
809.6	28645
809.741	28771
809.883	28828
810.025	28946
810.166	29006
810.308	29041
810.45	28892
810.591	28904
810.733	28721
810.875	28736
811.016	28721
811.158	28744
811.299	28778
811.441	28927
811.582	28847
811.724	28698
811.865	28634
812.007	28774
812.148	28683
812.29	28744
812.431	28987
812.573	29006
812.714	29083
812.855	29193
812.997	29246
813.138	29414
813.279	29353
813.421	29334
813.562	29254
813.703	29041
813.845	29003
813.986	28763
814.127	28538
814.268	28451
814.41	28417
814.551	28451
814.692	28554
814.833	28443
814.974	28337
815.115	28413
815.256	28306
815.397	28280
815.539	28143
815.68	28291
815.821	28322
815.962	28188
816.103	28200
816.244	27991
816.385	27998
816.526	27914
816.666	27888
816.807	27774
816.948	27850
817.089	27914
817.23	27770
817.371	27785
817.512	27736
817.653	27667
817.793	27766
817.934	27762
818.075	27679
818.216	27705
818.356	27717
818.497	27549
818.638	27587
818.778	27530
818.919	27538
819.06	27545
819.2	27557
819.341	27736
819.481	27724
819.622	27914
819.762	28101
819.903	27991
820.043	28021
820.184	27914
820.324	27838
820.465	27964
820.605	27713
820.746	27857
820.886	27572
821.026	27842
821.167	27652
821.307	28025
821.447	27728
821.588	27686
821.728	27507
821.868	27439
822.008	27214
822.149	27222
822.289	27169
822.429	26986
822.569	26906
822.709	26940
822.849	26811
822.99	26804
823.13	26648
823.27	26545
823.41	26594
823.55	26606
823.69	26670
823.83	26606
823.97	26488
824.11	26412
824.25	26301
824.389	26389
824.529	26473
824.669	26355
824.809	26427
824.949	26530
825.089	26442
825.228	26446
825.368	26263
825.508	26149
825.648	26225
825.787	26183
825.927	26381
826.067	26290
826.206	26290
826.346	26111
826.485	26412
826.625	26187
826.765	26389
826.904	26298
827.044	25997
827.183	25986
827.323	25871
827.462	25982
827.601	25841
827.741	25921
827.88	26031
828.02	25860
828.159	25955
828.298	25875
828.437	26027
828.577	25784
828.716	26081
828.855	25856
828.994	25704
829.134	25712
829.273	25791
829.412	25738
829.551	25483
829.69	25616
829.829	25715
829.968	25586
830.107	25765
830.246	25613
830.385	25704
830.524	25438
830.663	25377
830.802	25354
830.941	25244
831.08	25171
831.219	25354
831.357	25228
831.496	25407
831.635	25308
831.774	25050
831.913	25145
832.051	25042
832.19	25042
832.329	25099
832.467	24962
832.606	24886
832.744	24977
832.883	24920
833.022	24878
833.16	24783
833.299	24916
833.437	24844
833.576	25012
833.714	24947
833.852	24973
833.991	25065
834.129	25072
834.267	25034
834.406	24901
834.544	24992
834.682	24909
834.821	25015
834.959	25076
835.097	24829
835.235	25145
835.373	24829
835.511	24970
835.65	24871
835.788	24905
835.926	24692
836.064	24681
836.202	24612
836.34	24783
836.478	24814
836.615	24719
836.753	24890
836.891	24844
837.029	24677
837.167	24722
837.305	24703
837.443	24677
837.58	24635
837.718	24608
837.856	24627
837.993	24555
838.131	24620
838.269	24464
838.406	24437
838.544	24323
838.681	24342
838.819	24182
838.956	24091
839.094	24239
839.231	24224
839.369	24334
839.506	24517
839.643	24285
839.781	24076
839.918	24049
840.055	24083
840.193	24053
840.33	24026
840.467	24015
840.604	23939
840.742	24361
840.879	23939
841.016	23999
841.153	23935
841.29	24098
841.427	23965
841.564	23954
841.701	23980
841.838	23992
841.975	23882
842.112	23980
842.249	23832
842.385	23790
842.522	24038
842.659	23790
842.796	23779
842.933	23752
843.069	23627
843.206	23623
843.343	23805
843.479	23760
843.616	23805
843.752	23585
843.889	23558
844.025	23638
844.162	23649
844.298	23714
844.435	23471
844.571	23497
844.708	23551
844.844	23672
844.98	23661
845.117	23570
845.253	23372
845.389	23429
845.525	23520
845.661	23368
845.798	23231
845.934	23341
846.07	23292
846.206	23326
846.342	23330
846.478	23261
846.614	23128
846.75	22991
846.886	22949
847.022	23048
847.158	23029
847.294	23022
847.429	23159
847.565	22930
847.701	23315
847.837	22744
847.972	22812
848.108	22835
848.244	22809
848.379	22645
848.515	22561
848.65	22542
848.786	22592
848.921	22569
849.057	22691
849.192	22713
849.328	22561
849.463	22596
849.598	22675
849.734	22394
849.869	22489
850.004	22337
850.14	22386
850.275	22360
850.41	22261
850.545	22230
850.68	22211
850.815	22402
850.95	22246
851.085	22634
851.22	22436
851.355	22413
851.49	22356
851.625	22295
851.76	22276
851.895	22299
852.03	22257
852.165	22341
852.299	22405
852.434	22557
852.569	22295
852.703	22337
852.838	22459
852.973	22554
853.107	22462
853.242	22360
853.376	22124
853.511	22158
853.645	22207
853.78	22390
853.914	22139
854.048	22135
854.183	22265
854.317	22135
854.451	22417
854.585	22219
854.72	22150
854.854	22318
854.988	22158
855.122	22173
855.256	22017
855.39	22166
855.524	22166
855.658	22188
855.792	22169
855.926	22204
856.06	22093
856.194	22120
856.327	22128
856.461	22131
856.595	21991
856.729	22063
856.862	22162
856.996	22185
857.13	22257
857.263	22253
857.397	22188
857.53	22086
857.664	22238
857.797	22284
857.931	22322
858.064	22272
858.197	22207
858.331	22181
858.464	22181
858.597	22044
858.731	22204
858.864	22074
858.997	22051
859.13	22116
859.263	22272
859.396	22230
859.529	22048
859.662	22154
859.795	22154
859.928	22135
860.061	22398
860.194	22386
860.327	22276
860.46	22196
860.592	22249
860.725	22371
860.858	22459
860.99	22219
861.123	22105
861.256	22207
861.388	22204
861.521	22877
861.653	21953
861.786	21994
861.918	22070
862.05	22074
862.183	22074
862.315	22044
862.447	22120
862.58	21994
862.712	21873
862.844	21823
862.976	22044
863.108	21960
863.24	22379
863.372	21743
863.504	21857
863.636	21869
863.768	22017
863.9	21892
864.032	21808
864.164	21926
864.296	21869
864.428	21964
864.559	21941
864.691	21964
864.823	21838
864.954	21876
865.086	21831
865.217	21816
865.349	21755
865.48	21781
865.612	21774
865.743	21857
865.875	21854
866.006	21785
866.137	21812
866.269	21732
866.4	21625
866.531	21663
866.662	21701
866.793	21770
866.924	21625
867.055	21747
867.186	21720
867.317	21603
867.448	21641
867.579	21603
867.71	21610
867.841	21591
867.972	21679
868.103	21823
868.233	21637
868.364	21724
868.495	21793
868.625	21911
868.756	22090
868.886	21884
869.017	21823
869.147	22090
869.278	22040
869.408	21941
869.539	21831
869.669	21949
869.799	21941
869.929	21953
870.06	22036
870.19	22390
870.32	22276
870.45	22284
870.58	22219
870.71	22455
870.84	22493
870.97	22276
871.1	22257
871.23	22523
871.36	22497
871.489	22398
871.619	22542
871.749	22512
871.879	22451
872.008	22588
872.138	22607
872.267	22508
872.397	22462
872.526	22500
872.656	22398
872.785	22386
872.915	22573
873.044	22649
873.173	22577
873.303	22649
873.432	22618
873.561	22672
873.69	22542
873.819	22634
873.948	22603
874.077	22561
874.206	22531
874.335	22516
874.464	22622
874.593	22736
874.722	22748
874.851	22809
874.979	22816
875.108	22843
875.237	22752
875.365	22630
875.494	22698
875.623	22854
875.751	22706
875.88	22752
876.008	22839
876.136	22934
876.265	23143
876.393	23356
876.521	23136
876.65	23216
876.778	23204
876.906	23189
877.034	23136
877.162	23174
877.29	23166
877.418	23037
877.546	23094
877.674	23079
877.802	23159
877.93	23147
878.058	23060
878.185	22961
878.313	23037
878.441	23227
878.568	22987
878.696	22995
878.824	23121
878.951	23083
879.079	23231
879.206	23364
879.333	23216
879.461	23200
879.588	23151
879.715	23292
879.842	23326
879.97	23265
880.097	22927
880.224	23006
880.351	22946
880.478	22862
880.605	22938
880.732	22858
880.859	23174
880.986	22869
881.112	23006
881.239	22668
881.366	22641
881.493	22546
881.619	22535
881.746	22470
881.872	22474
881.999	22432
882.125	22470
882.252	22371
882.378	22546
882.505	22459
882.631	22421
882.757	22215
882.883	22249
883.01	22223
883.136	22029
883.262	21979
883.388	22002
883.514	22234
883.64	22211
883.766	22051
883.892	21922
884.018	22067
884.143	22048
884.269	22109
884.395	21865
884.52	21690
884.646	21793
884.772	21743
884.897	21660
885.023	21778
885.148	21861
885.274	21972
885.399	21838
885.524	21808
885.65	21907
885.775	21781
885.9	21778
886.025	21827
886.15	21911
886.275	21869
886.4	21682
886.525	21724
886.65	21724
886.775	21717
886.9	21869
887.025	21922
887.149	21793
887.274	21717
887.399	21469
887.523	21515
887.648	21466
887.773	21450
887.897	21614
888.021	21568
888.146	21511
888.27	21717
888.395	21583
888.519	21557
888.643	21603
888.767	21561
888.891	21477
889.015	21397
889.139	21439
889.263	21386
889.387	21454
889.511	21530
889.635	21397
889.759	21412
889.883	21344
890.006	21374
890.13	21450
890.254	21351
890.377	21222
890.501	21142
890.624	21138
890.748	21241
890.871	21009
890.995	20925
891.118	20720
891.241	20883
891.364	20864
891.488	21218
891.611	20986
891.734	20849
891.857	20883
891.98	20876
892.103	21005
892.226	20948
892.349	20960
892.471	20800
892.594	20754
892.717	20857
892.839	20735
892.962	20864
893.085	20887
893.207	20769
893.33	20720
893.452	20667
893.575	20830
893.697	20739
893.819	21024
893.941	20948
894.064	20883
894.186	20716
894.308	20788
894.43	20914
894.552	20963
894.674	20971
894.796	20750
894.918	20864
895.04	20724
895.161	20815
895.283	20944
895.405	20712
895.526	20708
895.648	20868
895.769	20899
895.891	20857
896.012	20823
896.134	20906
896.255	20853
896.376	20807
896.498	20777
896.619	20925
896.74	20807
896.861	20887
896.982	21089
897.103	21176
897.224	21108
897.345	21009
897.466	20948
897.587	21058
897.708	21116
897.828	20963
897.949	20910
898.07	20842
898.19	20807
898.311	20975
898.431	20918
898.552	21036
898.672	21020
898.792	21032
898.913	20906
899.033	20918
899.153	20967
899.273	20712
899.393	20697
899.513	20731
899.633	20872
899.753	20773
899.873	20674
899.993	20712
900.113	20648
900.232	20659
900.352	20659
900.472	20514
900.591	20526
900.711	20381
900.83	20343
900.95	20651
901.069	20587
901.189	20423
901.308	20187
901.427	20012
901.546	20164
901.665	20088
901.784	20111
901.904	19970
902.023	19970
902.141	19658
902.26	19575
902.379	19643
902.498	19635
902.617	19563
902.735	19601
902.854	19510
902.973	19430
903.091	19358
903.21	19228
903.328	19259
903.446	19095
903.565	19118
903.683	19118
903.801	18993
903.919	19004
904.038	18935
904.156	18722
904.274	18958
904.392	18840
904.51	18768
904.627	18844
904.745	18726
904.863	18798
904.981	18654
905.098	18441
905.216	18418
905.334	18551
905.451	18418
905.569	18483
905.686	18407
905.803	18502
905.921	18380
906.038	18300
906.155	18235
906.272	18205
906.389	18232
906.506	18060
906.623	18102
906.74	17935
906.857	17783
906.974	17916
907.091	18064
907.208	18243
907.324	17996
907.441	17942
907.557	17684
907.674	17737
907.79	17512
907.907	17684
908.023	17627
908.139	17775
908.256	17638
908.372	17630
908.488	17573
908.604	17364
908.72	17402
908.836	17467
908.952	17414
909.068	17421
909.184	17539
909.3	17414
909.415	17410
909.531	17402
909.647	17193
909.762	17254
909.878	17079
909.993	17067
910.108	17079
910.224	17029
910.339	17117
910.454	16957
910.57	16900
910.685	16824
910.8	17025
910.915	17143
911.03	16915
911.145	16733
911.259	16763
911.374	16869
911.489	16626
911.604	16611
911.718	16474
911.833	16470
911.947	16428
912.062	16177
912.176	16447
912.291	16508
912.405	16538
912.519	16626
912.633	16580
912.748	16447
912.862	16466
912.976	16219
913.09	16044
913.204	16238
913.318	16363
913.431	16344
913.545	16299
913.659	16344
913.772	16291
913.886	16025
914	16090
914.113	16124
914.226	16188
914.34	16086
914.453	16017
914.566	16116
914.68	15945
914.793	15949
914.906	15637
915.019	15614
915.132	15625
915.245	15595
915.358	15663
915.47	15656
915.583	15644
915.696	15701
915.809	15686
915.921	15709
916.034	15606
916.146	15504
916.259	15568
916.371	15690
916.483	15610
916.595	15466
916.708	15439
916.82	15504
916.932	15473
917.044	15325
917.156	15336
917.268	15283
917.38	15298
917.491	15291
917.603	15180
917.715	15211
917.826	15252
917.938	15218
918.049	15116
918.161	15138
918.272	15275
918.384	15302
918.495	15264
918.606	15077
918.717	14975
918.828	15119
918.939	15047
919.05	14990
919.161	15051
919.272	14807
919.383	14921
919.494	15001
919.604	15165
919.715	14948
919.826	15013
919.936	14918
920.047	15066
920.157	15001
920.267	15154
920.378	14929
920.488	14975
920.598	15226
920.708	15283
920.818	15093
920.928	15024
921.038	15275
921.148	15252
921.258	14883
921.368	14842
921.477	14693
921.587	14712
921.697	14613
921.806	14739
921.916	14617
922.025	14492
922.134	14298
922.244	14324
922.353	14275
922.462	14244
922.571	14206
922.68	13936
922.789	13951
922.898	14001
923.007	13967
923.116	13951
923.224	13982
923.333	13887
923.442	13811
923.55	13776
923.659	13875
923.767	13951
923.876	13765
923.984	13868
924.092	13715
924.201	13776
924.309	13742
924.417	13651
924.525	13575
924.633	13601
924.741	14461
924.849	13377
924.956	13540
925.064	13392
925.172	13381
925.279	13331
925.387	13388
925.494	13422
925.602	13483
925.709	13331
925.816	13289
925.924	13346
926.031	13426
926.138	13308
926.245	13388
926.352	13289
926.459	13331
926.566	13453
926.673	13259
926.779	13084
926.886	13084
926.993	12916
927.099	12897
927.206	12901
927.312	12924
927.419	13012
927.525	12916
927.631	12939
927.737	12806
927.843	12810
927.95	12654
928.056	12673
928.162	12749
928.267	12730
928.373	13365
928.479	12760
928.585	12517
928.69	12646
928.796	12776
928.901	12528
929.007	12498
929.112	12566
929.218	12540
929.323	12574
929.428	12448
929.533	12642
929.638	12376
929.743	12452
929.848	12414
929.953	12414
930.058	12300
930.163	12095
930.267	12114
930.372	12213
930.477	12136
930.581	12350
930.685	12220
930.79	12060
930.894	12041
930.998	11996
931.103	12045
931.207	11809
931.311	11737
931.415	11615
931.519	11395
931.623	11433
