Data from test_V78500241_1618.txt Node
Date: Fri Mar 25 15:53:00 CST 2022
User: usil
Spectrometer: V785-0024
Trigger mode: 0
Integration Time (sec): 4.000000E-1
Scans to average: 1
Nonlinearity correction enabled: false
Boxcar width: 0
Storing dark spectrum: false
XAxis mode: Wavelengths
Number of Pixels in Spectrum: 1024
>>>>>Begin Spectral Data<<<<<
801.071	28436
801.214	28440
801.356	28090
801.499	28169
801.641	28036
801.783	27956
801.926	27983
802.068	27774
802.211	27869
802.353	27660
802.496	27728
802.638	27614
802.78	27686
802.923	27538
803.065	27644
803.208	27603
803.35	27709
803.492	27823
803.635	27751
803.777	27759
803.919	27838
804.061	28226
804.204	28017
804.346	27854
804.488	27918
804.63	27732
804.773	27949
804.915	27835
805.057	28101
805.199	27972
805.341	27998
805.483	28215
805.626	28124
805.768	28044
805.91	28036
806.052	28059
806.194	27953
806.336	28272
806.478	28128
806.62	27979
806.762	28177
806.904	28211
807.046	28462
807.188	28489
807.33	28470
807.472	28584
807.614	28272
807.756	28299
807.898	28284
808.04	28215
808.182	28375
808.324	28417
808.465	28428
808.607	28565
808.749	28618
808.891	28771
809.033	28797
809.174	28694
809.316	28672
809.458	28805
809.6	28649
809.741	28717
809.883	28771
810.025	28999
810.166	29067
810.308	28908
810.45	28949
810.591	28965
810.733	28843
810.875	28763
811.016	28653
811.158	28649
811.299	28835
811.441	28930
811.582	28934
811.724	28691
811.865	28649
812.007	28584
812.148	28729
812.29	28634
812.431	28938
812.573	29025
812.714	29223
812.855	29303
812.997	29406
813.138	29482
813.279	29353
813.421	29151
813.562	29231
813.703	29048
813.845	28999
813.986	28748
814.127	28516
814.268	28489
814.41	28512
814.551	28413
814.692	28577
814.833	28204
814.974	28645
815.115	28481
815.256	28348
815.397	28303
815.539	28360
815.68	28128
815.821	28139
815.962	28192
816.103	28325
816.244	28234
816.385	27953
816.526	28036
816.666	27975
816.807	27660
816.948	27812
817.089	27762
817.23	27804
817.371	27766
817.512	27591
817.653	27671
817.793	27690
817.934	27698
818.075	27774
818.216	27717
818.356	27606
818.497	27648
818.638	27561
818.778	27412
818.919	27469
819.06	27538
819.2	27709
819.341	27831
819.481	27717
819.622	27888
819.762	28044
819.903	28006
820.043	27899
820.184	27937
820.324	27903
820.465	27975
820.605	27819
820.746	27770
820.886	27694
821.026	27842
821.167	27736
821.307	27762
821.447	27774
821.588	27618
821.728	27633
821.868	27443
822.008	27218
822.149	27249
822.289	27157
822.429	26914
822.569	26750
822.709	26914
822.849	26705
822.99	26705
823.13	26530
823.27	26674
823.41	26503
823.55	26522
823.69	26552
823.83	26507
823.97	26412
824.11	26442
824.25	26389
824.389	26355
824.529	26252
824.669	26309
824.809	26492
824.949	26499
825.089	26533
825.228	26511
825.368	26157
825.508	26206
825.648	26240
825.787	26134
825.927	26259
826.067	26263
826.206	26183
826.346	26278
826.485	26328
826.625	26187
826.765	26221
826.904	26271
827.044	26225
827.183	26122
827.323	25982
827.462	25986
827.601	26126
827.741	25860
827.88	25944
828.02	25833
828.159	25913
828.298	25864
828.437	25940
828.577	25807
828.716	26012
828.855	25765
828.994	25693
829.134	25571
829.273	25738
829.412	25578
829.551	25655
829.69	25594
829.829	25662
829.968	25696
830.107	25643
830.246	25658
830.385	25563
830.524	25491
830.663	25521
830.802	25343
830.941	25225
831.08	25171
831.219	25354
831.357	25301
831.496	25354
831.635	25263
831.774	25110
831.913	25122
832.051	25133
832.19	24966
832.329	25004
832.467	24897
832.606	24935
832.744	24825
832.883	24977
833.022	24844
833.16	24772
833.299	24981
833.437	24897
833.576	24920
833.714	25042
833.852	25065
833.991	25027
834.129	24913
834.267	24913
834.406	24886
834.544	24966
834.682	24958
834.821	25031
834.959	25141
835.097	25072
835.235	25061
835.373	24992
835.511	24901
835.65	24886
835.788	24806
835.926	24677
836.064	24661
836.202	24661
836.34	24688
836.478	24859
836.615	24738
836.753	24760
836.891	24901
837.029	24859
837.167	24840
837.305	24741
837.443	24722
837.58	24658
837.718	24760
837.856	24696
837.993	24631
838.131	24726
838.269	24369
838.406	24684
838.544	24502
838.681	24323
838.819	24186
838.956	23977
839.094	24087
839.231	24308
839.369	24292
839.506	24437
839.643	24502
839.781	23996
839.918	24022
840.055	24136
840.193	24121
840.33	24018
840.467	24064
840.604	24079
840.742	24213
840.879	23893
841.016	23977
841.153	23954
841.29	24228
841.427	23969
841.564	24152
841.701	23935
841.838	24041
841.975	23920
842.112	23969
842.249	23893
842.385	23882
842.522	23950
842.659	23984
842.796	23680
842.933	23821
843.069	23767
843.206	23687
843.343	23847
843.479	23767
843.616	23832
843.752	23490
843.889	23608
844.025	23676
844.162	23528
844.298	23771
844.435	23554
844.571	23486
844.708	23604
844.844	23733
844.98	23615
845.117	23558
845.253	23497
845.389	23463
845.525	23467
845.661	23376
845.798	23383
845.934	23364
846.07	23273
846.206	23261
846.342	23395
846.478	23250
846.614	23079
846.75	22995
846.886	22991
847.022	23159
847.158	22972
847.294	23010
847.429	23033
847.565	23094
847.701	23383
847.837	22702
847.972	22786
848.108	22885
848.244	22660
848.379	22694
848.515	22603
848.65	22630
848.786	22588
848.921	22615
849.057	22698
849.192	22656
849.328	22603
849.463	22637
849.598	22554
849.734	22557
849.869	22489
850.004	22314
850.14	22413
850.275	22409
850.41	22215
850.545	22242
850.68	22333
850.815	22390
850.95	22405
851.085	22573
851.22	22493
851.355	22375
851.49	22341
851.625	22329
851.76	22314
851.895	22261
852.03	22261
852.165	22329
852.299	22371
852.434	22295
852.569	22459
852.703	22352
852.838	22375
852.973	22436
853.107	22497
853.242	22280
853.376	22246
853.511	21994
853.645	22207
853.78	22253
853.914	22204
854.048	22082
854.183	22101
854.317	22185
854.451	22341
854.585	22188
854.72	22025
854.854	22337
854.988	22257
855.122	22070
855.256	22067
855.39	22200
855.524	22181
855.658	22287
855.792	22265
855.926	22261
856.06	22230
856.194	22291
856.327	22219
856.461	22044
856.595	22128
856.729	22147
856.862	22318
856.996	22215
857.13	22257
857.263	22436
857.397	22291
857.53	22207
857.664	22173
857.797	22257
857.931	22284
858.064	22295
858.197	22318
858.331	22226
858.464	22059
858.597	22051
858.731	22265
858.864	22139
858.997	22154
859.13	22105
859.263	22154
859.396	22363
859.529	22249
859.662	22169
859.795	22169
859.928	22375
860.061	22272
860.194	22337
860.327	22166
860.46	22295
860.592	22238
860.725	22333
860.858	22287
860.99	22082
861.123	22051
861.256	22139
861.388	22131
861.521	22755
861.653	22120
861.786	21979
861.918	21994
862.05	21983
862.183	22177
862.315	22078
862.447	22116
862.58	22211
862.712	21823
862.844	21899
862.976	21835
863.108	21934
863.24	22325
863.372	21934
863.504	21964
863.636	21899
863.768	21956
863.9	21827
864.032	21831
864.164	21869
864.296	21983
864.428	21934
864.559	21941
864.691	21972
864.823	21915
864.954	21876
865.086	21915
865.217	21751
865.349	21720
865.48	21690
865.612	21835
865.743	21842
865.875	21819
866.006	21755
866.137	21709
866.269	21774
866.4	21816
866.531	21709
866.662	21603
866.793	21736
866.924	21724
867.055	21838
867.186	21842
867.317	21610
867.448	21660
867.579	21686
867.71	21675
867.841	21694
867.972	21713
868.103	21622
868.233	21660
868.364	21819
868.495	21766
868.625	21998
868.756	21926
868.886	21907
869.017	21937
869.147	22074
869.278	22044
869.408	21911
869.539	21838
869.669	21998
869.799	22010
869.929	22067
870.06	22070
870.19	22363
870.32	22131
870.45	22265
870.58	22207
870.71	22424
870.84	22363
870.97	22428
871.1	22386
871.23	22470
871.36	22493
871.489	22436
871.619	22428
871.749	22504
871.879	22474
872.008	22546
872.138	22561
872.267	22584
872.397	22462
872.526	22386
872.656	22287
872.785	22405
872.915	22634
873.044	22599
873.173	22535
873.303	22615
873.432	22664
873.561	22645
873.69	22618
873.819	22569
873.948	22653
874.077	22554
874.206	22504
874.335	22622
874.464	22656
874.593	22713
874.722	22668
874.851	22885
874.979	22691
875.108	22778
875.237	22672
875.365	22649
875.494	22858
875.623	22752
875.751	22668
875.88	22835
876.008	22923
876.136	22965
876.265	23143
876.393	23227
876.521	23204
876.65	23220
876.778	23079
876.906	22961
877.034	23052
877.162	23117
877.29	22961
877.418	23166
877.546	23010
877.674	23178
877.802	23117
877.93	23159
878.058	23014
878.185	22854
878.313	23090
878.441	23136
878.568	22812
878.696	22995
878.824	23079
878.951	23204
879.079	23349
879.206	23372
879.333	23387
879.461	23113
879.588	23189
879.715	23246
879.842	23296
879.97	23227
880.097	22976
880.224	22942
880.351	22900
880.478	22793
880.605	22850
880.732	22831
880.859	23212
880.986	22854
881.112	22961
881.239	22759
881.366	22744
881.493	22622
881.619	22478
881.746	22592
881.872	22497
881.999	22344
882.125	22508
882.252	22569
882.378	22504
882.505	22599
882.631	22306
882.757	22242
882.883	22261
883.01	22150
883.136	22139
883.262	22010
883.388	22017
883.514	22272
883.64	22257
883.766	22124
883.892	21895
884.018	21956
884.143	21975
884.269	22063
884.395	21751
884.52	21899
884.646	21838
884.772	21808
884.897	21728
885.023	21838
885.148	21835
885.274	21949
885.399	21964
885.524	21835
885.65	21778
885.775	21884
885.9	21728
886.025	21907
886.15	21785
886.275	21797
886.4	21576
886.525	21911
886.65	21774
886.775	21724
886.9	21842
887.025	21994
887.149	21762
887.274	21530
887.399	21545
887.523	21553
887.648	21572
887.773	21496
887.897	21629
888.021	21606
888.146	21462
888.27	21694
888.395	21766
888.519	21485
888.643	21667
888.767	21663
888.891	21500
889.015	21374
889.139	21515
889.263	21389
889.387	21462
889.511	21492
889.635	21519
889.759	21477
889.883	21195
890.006	21317
890.13	21424
890.254	21218
890.377	21203
890.501	21184
890.624	21005
890.748	21188
890.871	20910
890.995	20895
891.118	20857
891.241	21051
891.364	20994
891.488	21013
891.611	20914
891.734	20902
891.857	20948
891.98	20834
892.103	20933
892.226	20876
892.349	20773
892.471	20659
892.594	20830
892.717	20880
892.839	20857
892.962	20811
893.085	20800
893.207	20823
893.33	20644
893.452	20678
893.575	20887
893.697	20758
893.819	20849
893.941	20967
894.064	20933
894.186	20769
894.308	20785
894.43	20941
894.552	20891
894.674	20876
894.796	20659
894.918	20769
895.04	20811
895.161	20857
895.283	20845
895.405	20712
895.526	20724
895.648	20830
895.769	20891
895.891	20811
896.012	20899
896.134	20811
896.255	20834
896.376	20689
896.498	20830
896.619	20815
896.74	20792
896.861	20883
896.982	21116
897.103	21237
897.224	21017
897.345	21100
897.466	20933
897.587	21013
897.708	21245
897.828	21047
897.949	20918
898.07	20750
898.19	20994
898.311	20990
898.431	20960
898.552	21104
898.672	21138
898.792	21074
898.913	20948
899.033	20880
899.153	20800
899.273	20720
899.393	20750
899.513	20705
899.633	20796
899.753	20724
899.873	20590
899.993	20800
900.113	20750
900.232	20678
900.352	20560
900.472	20613
900.591	20488
900.711	20594
900.83	20625
900.95	20511
901.069	20648
901.189	20423
901.308	20176
901.427	20084
901.546	20145
901.665	20172
901.784	20081
901.904	19993
902.023	19898
902.141	19628
902.26	19655
902.379	19750
902.498	19632
902.617	19525
902.735	19658
902.854	19563
902.973	19552
903.091	19164
903.21	19228
903.328	19213
903.446	19114
903.565	19122
903.683	18977
903.801	19034
903.919	19053
904.038	18970
904.156	18719
904.274	18806
904.392	18787
904.51	18817
904.627	18726
904.745	18821
904.863	18817
904.981	18654
905.098	18448
905.216	18384
905.334	18536
905.451	18475
905.569	18566
905.686	18445
905.803	18460
905.921	18304
906.038	18395
906.155	18262
906.272	18197
906.389	18201
906.506	18026
906.623	18110
906.74	18007
906.857	17843
906.974	17984
907.091	17992
907.208	18194
907.324	18057
907.441	17977
907.557	17722
907.674	17627
907.79	17718
907.907	17627
908.023	17779
908.139	17707
908.256	17680
908.372	17547
908.488	17676
908.604	17482
908.72	17459
908.836	17455
908.952	17429
909.068	17573
909.184	17539
909.3	17440
909.415	17433
909.531	17429
909.647	17231
909.762	17143
909.878	17174
909.993	17109
910.108	17124
910.224	17132
910.339	17037
910.454	16900
910.57	16927
910.685	16828
910.8	17003
910.915	16930
911.03	16930
911.145	16721
911.259	16748
911.374	16786
911.489	16607
911.604	16637
911.718	16440
911.833	16462
911.947	16382
912.062	16360
912.176	16497
912.291	16523
912.405	16504
912.519	16691
912.633	16592
912.748	16569
912.862	16478
912.976	16284
913.09	16131
913.204	16356
913.318	16341
913.431	16386
913.545	16382
913.659	16417
913.772	16265
913.886	16147
914	16128
914.113	16162
914.226	16223
914.34	16112
914.453	16029
914.566	16048
914.68	16063
914.793	15918
914.906	15774
915.019	15686
915.132	15603
915.245	15644
915.358	15709
915.47	15705
915.583	15690
915.696	15610
915.809	15690
915.921	15930
916.034	15637
916.146	15557
916.259	15507
916.371	15671
916.483	15679
916.595	15462
916.708	15450
916.82	15374
916.932	15530
917.044	15431
917.156	15416
917.268	15374
917.38	15359
917.491	15298
917.603	15294
917.715	15401
917.826	15435
917.938	15230
918.049	15173
918.161	15230
918.272	15374
918.384	15431
918.495	15264
918.606	15157
918.717	14990
918.828	15112
918.939	15116
919.05	14937
919.161	15005
919.272	14876
919.383	14910
919.494	15051
919.604	15272
919.715	15093
919.826	14975
919.936	14963
920.047	15104
920.157	15013
920.267	15192
920.378	15066
920.488	15005
920.598	15081
920.708	15150
920.818	15081
920.928	15146
921.038	15291
921.148	15173
921.258	15009
921.368	14868
921.477	14686
921.587	14708
921.697	14632
921.806	14861
921.916	14606
922.025	14446
922.134	14396
922.244	14317
922.353	14438
922.462	14183
922.571	14164
922.68	14145
922.789	13989
922.898	14035
923.007	13970
923.116	14054
923.224	14081
923.333	14054
923.442	13928
923.55	13776
923.659	13868
923.767	13928
923.876	13852
923.984	13833
924.092	13780
924.201	13761
924.309	13750
924.417	13685
924.525	13677
924.633	13620
924.741	14564
924.849	13559
924.956	13563
925.064	13392
925.172	13419
925.279	13392
925.387	13499
925.494	13460
925.602	13624
925.709	13510
925.816	13247
925.924	13213
926.031	13403
926.138	13381
926.245	13335
926.352	13308
926.459	13392
926.566	13419
926.673	13240
926.779	13133
926.886	13160
926.993	13069
927.099	12977
927.206	12848
927.312	12882
927.419	13080
927.525	12829
927.631	12993
927.737	12859
927.843	12795
927.95	12658
928.056	12745
928.162	12741
928.267	12776
928.373	13415
928.479	12863
928.585	12547
928.69	12703
928.796	12795
928.901	12631
929.007	12464
929.112	12650
929.218	12612
929.323	12433
929.428	12509
929.533	12585
929.638	12357
929.743	12426
929.848	12467
929.953	12376
930.058	12197
930.163	12171
930.267	12220
930.372	12289
930.477	12121
930.581	12338
930.685	12262
930.79	12057
930.894	12038
930.998	12068
931.103	12098
931.207	11733
931.311	11718
931.415	11600
931.519	11406
931.623	11315
