Data from test_V78500241_3354.txt Node
Date: Fri Mar 25 16:05:02 CST 2022
User: usil
Spectrometer: V785-0024
Trigger mode: 0
Integration Time (sec): 4.000000E-1
Scans to average: 1
Nonlinearity correction enabled: false
Boxcar width: 0
Storing dark spectrum: false
XAxis mode: Wavelengths
Number of Pixels in Spectrum: 1024
>>>>>Begin Spectral Data<<<<<
801.071	28923
801.214	29121
801.356	28835
801.499	28702
801.641	28649
801.783	28713
801.926	28611
802.068	28645
802.211	28588
802.353	28580
802.496	28341
802.638	28280
802.78	28390
802.923	28154
803.065	28207
803.208	28238
803.35	28489
803.492	28462
803.635	28398
803.777	28531
803.919	28500
804.061	28687
804.204	28535
804.346	28493
804.488	28504
804.63	28504
804.773	28485
804.915	28694
805.057	28664
805.199	28588
805.341	28691
805.483	28694
805.626	28713
805.768	28508
805.91	28828
806.052	28736
806.194	28634
806.336	28934
806.478	28755
806.62	28915
806.762	28774
806.904	29090
807.046	29391
807.188	29269
807.33	29254
807.472	29174
807.614	29269
807.756	29242
807.898	29071
808.04	29018
808.182	29022
808.324	29151
808.465	29193
808.607	29242
808.749	29387
808.891	29543
809.033	29615
809.174	29486
809.316	29433
809.458	29379
809.6	29444
809.741	29554
809.883	29570
810.025	29775
810.166	29752
810.308	29908
810.45	29783
810.591	29665
810.733	29490
810.875	29474
811.016	29387
811.158	29356
811.299	29649
811.441	29630
811.582	29661
811.724	29383
811.865	29543
812.007	29573
812.148	29623
812.29	29528
812.431	29707
812.573	29760
812.714	29783
812.855	30015
812.997	29999
813.138	30159
813.279	30136
813.421	30011
813.562	29961
813.703	29897
813.845	29767
813.986	29429
814.127	29258
814.268	29254
814.41	29254
814.551	29109
814.692	29296
814.833	29044
814.974	29246
815.115	29200
815.256	29105
815.397	29117
815.539	28946
815.68	28934
815.821	28763
815.962	29064
816.103	28999
816.244	28904
816.385	28790
816.526	28801
816.666	28573
816.807	28451
816.948	28637
817.089	28618
817.23	28615
817.371	28546
817.512	28592
817.653	28561
817.793	28428
817.934	28474
818.075	28470
818.216	28592
818.356	28337
818.497	28276
818.638	28200
818.778	28344
818.919	28303
819.06	28379
819.2	28428
819.341	28500
819.481	28615
819.622	28641
819.762	28965
819.903	28752
820.043	28744
820.184	28702
820.324	28641
820.465	28778
820.605	28748
820.746	28599
820.886	28550
821.026	28573
821.167	28630
821.307	28752
821.447	28489
821.588	28474
821.728	28219
821.868	28230
822.008	28150
822.149	28090
822.289	28013
822.429	27762
822.569	27720
822.709	27770
822.849	27606
822.99	27606
823.13	27469
823.27	27549
823.41	27348
823.55	27252
823.69	27298
823.83	27329
823.97	27287
824.11	27096
824.25	27112
824.389	27112
824.529	27340
824.669	27184
824.809	27321
824.949	27389
825.089	27135
825.228	27184
825.368	26933
825.508	27131
825.648	27214
825.787	27009
825.927	27146
826.067	26963
826.206	27207
826.346	27169
826.485	27058
826.625	27062
826.765	27161
826.904	27192
827.044	26975
827.183	26743
827.323	26758
827.462	26788
827.601	26864
827.741	26785
827.88	26842
828.02	26583
828.159	26727
828.298	26906
828.437	26815
828.577	26708
828.716	26891
828.855	26705
828.994	26514
829.134	26423
829.273	26499
829.412	26370
829.551	26362
829.69	26370
829.829	26518
829.968	26617
830.107	26533
830.246	26469
830.385	26453
830.524	26404
830.663	26275
830.802	26122
830.941	26229
831.08	26024
831.219	26191
831.357	26050
831.496	26286
831.635	26020
831.774	25955
831.913	26008
832.051	25811
832.19	25811
832.329	25951
832.467	25791
832.606	25662
832.744	25628
832.883	25761
833.022	25852
833.16	25795
833.299	25670
833.437	25696
833.576	25871
833.714	25852
833.852	25791
833.991	25830
834.129	25944
834.267	25966
834.406	25719
834.544	25887
834.682	25696
834.821	25693
834.959	25993
835.097	25753
835.235	25898
835.373	25784
835.511	25791
835.65	25670
835.788	25590
835.926	25502
836.064	25411
836.202	25518
836.34	25662
836.478	25818
836.615	25658
836.753	25544
836.891	25727
837.029	25635
837.167	25624
837.305	25514
837.443	25487
837.58	25327
837.718	25495
837.856	25426
837.993	25419
838.131	25445
838.269	25369
838.406	25457
838.544	25247
838.681	24973
838.819	25145
838.956	24837
839.094	24973
839.231	24894
839.369	25046
839.506	25350
839.643	25190
839.781	24970
839.918	24833
840.055	24935
840.193	24970
840.33	24753
840.467	24928
840.604	24973
840.742	25008
840.879	24753
841.016	24734
841.153	24734
841.29	24970
841.427	24772
841.564	24909
841.701	24791
841.838	24753
841.975	24696
842.112	24779
842.249	24779
842.385	24509
842.522	24814
842.659	24623
842.796	24445
842.933	24646
843.069	24483
843.206	24361
843.343	24627
843.479	24620
843.616	24509
843.752	24384
843.889	24334
844.025	24460
844.162	24273
844.298	24391
844.435	24479
844.571	24262
844.708	24323
844.844	24490
844.98	24433
845.117	24502
845.253	24163
845.389	24369
845.525	24133
845.661	24121
845.798	23980
845.934	24117
846.07	24095
846.206	24133
846.342	24273
846.478	24064
846.614	23813
846.75	23729
846.886	23790
847.022	23847
847.158	23840
847.294	23813
847.429	23805
847.565	23874
847.701	24003
847.837	23558
847.972	23531
848.108	23627
848.244	23589
848.379	23474
848.515	23364
848.65	23512
848.786	23372
848.921	23391
849.057	23528
849.192	23341
849.328	23395
849.463	23471
849.598	23391
849.734	23307
849.869	23292
850.004	23208
850.14	23208
850.275	23056
850.41	23079
850.545	23044
850.68	23044
850.815	23124
850.95	23178
851.085	23311
851.22	23124
851.355	23269
851.49	23204
851.625	22972
851.76	23010
851.895	23117
852.03	23231
852.165	23140
852.299	23128
852.434	23185
852.569	23159
852.703	23170
852.838	23337
852.973	23113
853.107	23303
853.242	23037
853.376	23018
853.511	22831
853.645	22892
853.78	23140
853.914	22972
854.048	22972
854.183	23056
854.317	22995
854.451	23235
854.585	22984
854.72	23060
854.854	23105
854.988	22949
855.122	22968
855.256	22835
855.39	22968
855.524	23014
855.658	23128
855.792	23022
855.926	23025
856.06	23052
856.194	23166
856.327	22957
856.461	22908
856.595	22938
856.729	22908
856.862	23162
856.996	23048
857.13	23128
857.263	23246
857.397	23102
857.53	23086
857.664	23014
857.797	22991
857.931	23136
858.064	23014
858.197	23140
858.331	23064
858.464	22900
858.597	22923
858.731	22873
858.864	22949
858.997	23056
859.13	22942
859.263	22892
859.396	23037
859.529	22923
859.662	22911
859.795	23022
859.928	22934
860.061	23174
860.194	23113
860.327	22987
860.46	23067
860.592	23109
860.725	23140
860.858	23212
860.99	22927
861.123	23025
861.256	23033
861.388	23010
861.521	23745
861.653	22946
861.786	22759
861.918	22934
862.05	22881
862.183	22790
862.315	22896
862.447	22854
862.58	22919
862.712	22637
862.844	22584
862.976	22771
863.108	22725
863.24	23105
863.372	22782
863.504	22683
863.636	22656
863.768	22668
863.9	22698
864.032	22645
864.164	22691
864.296	22748
864.428	22809
864.559	22778
864.691	22668
864.823	22615
864.954	22683
865.086	22805
865.217	22554
865.349	22523
865.48	22607
865.612	22557
865.743	22622
865.875	22596
866.006	22588
866.137	22626
866.269	22546
866.4	22451
866.531	22489
866.662	22451
866.793	22504
866.924	22466
867.055	22531
867.186	22531
867.317	22459
867.448	22333
867.579	22367
867.71	22428
867.841	22371
867.972	22641
868.103	22394
868.233	22428
868.364	22672
868.495	22596
868.625	22668
868.756	22915
868.886	22656
869.017	22698
869.147	22854
869.278	22858
869.408	22725
869.539	22641
869.669	22828
869.799	22675
869.929	22869
870.06	22847
870.19	22854
870.32	23056
870.45	23166
870.58	23098
870.71	23136
870.84	23220
870.97	23162
871.1	23102
871.23	23296
871.36	23299
871.489	23143
871.619	23330
871.749	23307
871.879	23383
872.008	23299
872.138	23299
872.267	23280
872.397	23109
872.526	23117
872.656	23117
872.785	23174
872.915	23288
873.044	23436
873.173	23258
873.303	23429
873.432	23490
873.561	23493
873.69	23330
873.819	23364
873.948	23391
874.077	23387
874.206	23307
874.335	23318
874.464	23474
874.593	23646
874.722	23562
874.851	23531
874.979	23608
875.108	23570
875.237	23501
875.365	23539
875.494	23585
875.623	23680
875.751	23417
875.88	23551
876.008	23619
876.136	23828
876.265	24114
876.393	23973
876.521	24167
876.65	23961
876.778	24057
876.906	23836
877.034	23798
877.162	23920
877.29	23912
877.418	23954
877.546	23920
877.674	23836
877.802	23817
877.93	23920
878.058	23885
878.185	23843
878.313	23783
878.441	23935
878.568	23733
878.696	23847
878.824	23809
878.951	24030
879.079	24110
879.206	24083
879.333	24060
879.461	23855
879.588	23969
879.715	24186
879.842	24079
879.97	23973
880.097	23714
880.224	23733
880.351	23760
880.478	23847
880.605	23691
880.732	23642
880.859	23958
880.986	23623
881.112	23657
881.239	23619
881.366	23512
881.493	23376
881.619	23318
881.746	23296
881.872	23315
881.999	23277
882.125	23098
882.252	23311
882.378	23098
882.505	23269
882.631	23121
882.757	22847
882.883	23102
883.01	22911
883.136	23003
883.262	22831
883.388	22816
883.514	22949
883.64	22980
883.766	22767
883.892	22660
884.018	22607
884.143	23064
884.269	22877
884.395	22622
884.52	22519
884.646	22565
884.772	22436
884.897	22459
885.023	22512
885.148	22588
885.274	22527
885.399	22702
885.524	22573
885.65	22523
885.775	22573
885.9	22497
886.025	22626
886.15	22584
886.275	22531
886.4	22493
886.525	22497
886.65	22481
886.775	22462
886.9	22561
887.025	22630
887.149	22481
887.274	22341
887.399	22390
887.523	22261
887.648	22173
887.773	22246
887.897	22382
888.021	22303
888.146	22329
888.27	22424
888.395	22341
888.519	22478
888.643	22287
888.767	22329
888.891	22234
889.015	22093
889.139	22029
889.263	21998
889.387	22147
889.511	22417
889.635	22192
889.759	22067
889.883	22116
890.006	22162
890.13	22097
890.254	21994
890.377	22139
890.501	21854
890.624	21762
890.748	21888
890.871	21747
890.995	21633
891.118	21492
891.241	21641
891.364	21576
891.488	21713
891.611	21698
891.734	21595
891.857	21686
891.98	21591
892.103	21675
892.226	21576
892.349	21637
892.471	21443
892.594	21545
892.717	21523
892.839	21401
892.962	21504
893.085	21473
893.207	21450
893.33	21466
893.452	21431
893.575	21652
893.697	21450
893.819	21705
893.941	21728
894.064	21595
894.186	21401
894.308	21401
894.43	21679
894.552	21686
894.674	21610
894.796	21431
894.918	21462
895.04	21374
895.161	21481
895.283	21663
895.405	21332
895.526	21629
895.648	21450
895.769	21492
895.891	21526
896.012	21538
896.134	21591
896.255	21481
896.376	21420
896.498	21507
896.619	21496
896.74	21450
896.861	21481
896.982	21720
897.103	21903
897.224	21671
897.345	21663
897.466	21542
897.587	21724
897.708	21823
897.828	21576
897.949	21656
898.07	21599
898.19	21458
898.311	21538
898.431	21618
898.552	21595
898.672	21686
898.792	21789
898.913	21675
899.033	21496
899.153	21507
899.273	21405
899.393	21401
899.513	21519
899.633	21500
899.753	21393
899.873	21336
899.993	21447
900.113	21245
900.232	21386
900.352	21211
900.472	21169
900.591	21066
900.711	21245
900.83	21043
900.95	21241
901.069	21195
901.189	21150
901.308	20807
901.427	20838
901.546	20788
901.665	20689
901.784	20629
901.904	20625
902.023	20457
902.141	20313
902.26	20252
902.379	20374
902.498	20324
902.617	20275
902.735	20229
902.854	20206
902.973	20168
903.091	19852
903.21	19841
903.328	19902
903.446	19776
903.565	19723
903.683	19708
903.801	19605
903.919	19525
904.038	19533
904.156	19422
904.274	19476
904.392	19400
904.51	19457
904.627	19350
904.745	19411
904.863	19506
904.981	19202
905.098	19072
905.216	19042
905.334	19183
905.451	19065
905.569	19008
905.686	19122
905.803	19042
905.921	18954
906.038	18989
906.155	18875
906.272	18795
906.389	18840
906.506	18623
906.623	18642
906.74	18642
906.857	18563
906.974	18483
907.091	18631
907.208	18696
907.324	18604
907.441	18498
907.557	18357
907.674	18330
907.79	18247
907.907	18304
908.023	18251
908.139	18216
908.256	18315
908.372	18201
908.488	18209
908.604	18034
908.72	18019
908.836	18034
908.952	18102
909.068	18007
909.184	18110
909.3	18140
909.415	18098
909.531	17874
909.647	17813
909.762	17741
909.878	17623
909.993	17634
910.108	17703
910.224	17657
910.339	17600
910.454	17558
910.57	17387
910.685	17436
910.8	17798
910.915	17630
911.03	17452
911.145	17235
911.259	17379
911.374	17235
911.489	17284
911.604	17136
911.718	17048
911.833	17056
911.947	16915
912.062	16881
912.176	16938
912.291	17151
912.405	17029
912.519	17235
912.633	17235
912.748	17136
912.862	17010
912.976	16831
913.09	16637
913.204	16812
913.318	16835
913.431	17010
913.545	16892
913.659	16942
913.772	16710
913.886	16824
914	16668
914.113	16694
914.226	16729
914.34	16641
914.453	16428
914.566	16653
914.68	16512
914.793	16394
914.906	16223
915.019	16124
915.132	16196
915.245	16143
915.358	16071
915.47	16223
915.583	16112
915.696	16177
915.809	16265
915.921	16238
916.034	16093
916.146	16048
916.259	15998
916.371	16177
916.483	16082
916.595	16048
916.708	15983
916.82	16013
916.932	15854
917.044	16029
917.156	15850
917.268	15755
917.38	15869
917.491	15850
917.603	15812
917.715	15835
917.826	15899
917.938	15762
918.049	15671
918.161	15728
918.272	15934
918.384	15850
918.495	15812
918.606	15671
918.717	15545
918.828	15557
918.939	15572
919.05	15519
919.161	15492
919.272	15306
919.383	15367
919.494	15595
919.604	15660
919.715	15523
919.826	15466
919.936	15526
920.047	15580
920.157	15481
920.267	15728
920.378	15504
920.488	15450
920.598	15789
920.708	15762
920.818	15644
920.928	15511
921.038	15717
921.148	15675
921.258	15500
921.368	15313
921.477	15211
921.587	15199
921.697	15005
921.806	15256
921.916	15100
922.025	14902
922.134	14838
922.244	14777
922.353	14895
922.462	14743
922.571	14575
922.68	14434
922.789	14541
922.898	14473
923.007	14431
923.116	14522
923.224	14442
923.333	14431
923.442	14248
923.55	14267
923.659	14267
923.767	14358
923.876	14024
923.984	14343
924.092	14214
924.201	14218
924.309	14157
924.417	14153
924.525	14054
924.633	14050
924.741	14956
924.849	13963
924.956	14077
925.064	13841
925.172	13811
925.279	13814
925.387	13826
925.494	13772
925.602	13940
925.709	13856
925.816	13689
925.924	13750
926.031	13788
926.138	13719
926.245	13788
926.352	13727
926.459	13734
926.566	13803
926.673	13738
926.779	13613
926.886	13552
926.993	13369
927.099	13453
927.206	13350
927.312	13308
927.419	13419
927.525	13358
927.631	13449
927.737	13236
927.843	13278
927.95	13046
928.056	13160
928.162	13240
928.267	13206
928.373	13715
928.479	13274
928.585	13031
928.69	13118
928.796	13114
928.901	13015
929.007	12897
929.112	13061
929.218	12996
929.323	12932
929.428	12886
929.533	12916
929.638	12806
929.743	12810
929.848	12833
929.953	12760
930.058	12650
930.163	12475
930.267	12563
930.372	12658
930.477	12407
930.581	12734
930.685	12509
930.79	12319
930.894	12376
930.998	12285
931.103	12585
931.207	12163
931.311	11984
931.415	11942
931.519	11752
931.623	11863
