Data from test_V78500241_912.txt Node
Date: Fri Mar 25 15:48:07 CST 2022
User: usil
Spectrometer: V785-0024
Trigger mode: 0
Integration Time (sec): 4.000000E-1
Scans to average: 1
Nonlinearity correction enabled: false
Boxcar width: 0
Storing dark spectrum: false
XAxis mode: Wavelengths
Number of Pixels in Spectrum: 1024
>>>>>Begin Spectral Data<<<<<
801.071	28196
801.214	28116
801.356	27755
801.499	27884
801.641	27698
801.783	27724
801.926	27812
802.068	27732
802.211	27625
802.353	27538
802.496	27534
802.638	27447
802.78	27382
802.923	27344
803.065	27268
803.208	27363
803.35	27504
803.492	27564
803.635	27675
803.777	27488
803.919	27614
804.061	27812
804.204	27622
804.346	27477
804.488	27496
804.63	27534
804.773	27420
804.915	27663
805.057	27671
805.199	27759
805.341	27800
805.483	27914
805.626	27770
805.768	27614
805.91	27842
806.052	27713
806.194	27774
806.336	27960
806.478	27800
806.62	27823
806.762	27914
806.904	28029
807.046	28284
807.188	28253
807.33	28333
807.472	28242
807.614	28059
807.756	28188
807.898	28040
808.04	28029
808.182	28055
808.324	28150
808.465	28097
808.607	28207
808.749	28421
808.891	28405
809.033	28710
809.174	28440
809.316	28291
809.458	28470
809.6	28531
809.741	28588
809.883	28615
810.025	28759
810.166	28828
810.308	28782
810.45	28584
810.591	28733
810.733	28466
810.875	28489
811.016	28322
811.158	28310
811.299	28516
811.441	28618
811.582	28603
811.724	28493
811.865	28375
812.007	28478
812.148	28485
812.29	28611
812.431	28592
812.573	28782
812.714	28888
812.855	29064
812.997	29090
813.138	29162
813.279	29185
813.421	29018
813.562	29022
813.703	28877
813.845	28774
813.986	28440
814.127	28303
814.268	28086
814.41	28177
814.551	28093
814.692	28131
814.833	28128
814.974	28211
815.115	28223
815.256	28101
815.397	27979
815.539	28116
815.68	27797
815.821	27960
815.962	27991
816.103	27865
816.244	27918
816.385	27857
816.526	27713
816.666	27633
816.807	27424
816.948	27549
817.089	27648
817.23	27641
817.371	27542
817.512	27435
817.653	27572
817.793	27443
817.934	27603
818.075	27466
818.216	27325
818.356	27298
818.497	27340
818.638	27104
818.778	27230
818.919	27294
819.06	27226
819.2	27317
819.341	27511
819.481	27462
819.622	27675
819.762	27831
819.903	27709
820.043	27690
820.184	27576
820.324	27648
820.465	27663
820.605	27610
820.746	27587
820.886	27500
821.026	27614
821.167	27538
821.307	27625
821.447	27542
821.588	27389
821.728	27211
821.868	27116
822.008	27020
822.149	26914
822.289	27001
822.429	26777
822.569	26625
822.709	26583
822.849	26404
822.99	26412
823.13	26419
823.27	26377
823.41	26332
823.55	26176
823.69	26275
823.83	26210
823.97	26225
824.11	25883
824.25	26142
824.389	26050
824.529	26214
824.669	26031
824.809	26393
824.949	26180
825.089	26149
825.228	26161
825.368	25997
825.508	25909
825.648	26073
825.787	25902
825.927	26050
826.067	25936
826.206	25864
826.346	26065
826.485	26168
826.625	25928
826.765	26142
826.904	25913
827.044	25776
827.183	25685
827.323	25628
827.462	25685
827.601	25685
827.741	25662
827.88	25712
828.02	25582
828.159	25658
828.298	25677
828.437	25723
828.577	25506
828.716	25757
828.855	25635
828.994	25350
829.134	25331
829.273	25434
829.412	25354
829.551	25335
829.69	25453
829.829	25384
829.968	25304
830.107	25373
830.246	25339
830.385	25362
830.524	25278
830.663	25285
830.802	25095
830.941	24981
831.08	24890
831.219	25027
831.357	25065
831.496	25240
831.635	24989
831.774	24863
831.913	24871
832.051	24703
832.19	24878
832.329	24738
832.467	24730
832.606	24464
832.744	24574
832.883	24597
833.022	24688
833.16	24661
833.299	24684
833.437	24623
833.576	24707
833.714	24692
833.852	24696
833.991	24726
834.129	24802
834.267	24787
834.406	24700
834.544	24677
834.682	24623
834.821	24726
834.959	24856
835.097	24627
835.235	24726
835.373	24817
835.511	24738
835.65	24555
835.788	24467
835.926	24570
836.064	24369
836.202	24365
836.34	24494
836.478	24532
836.615	24517
836.753	24578
836.891	24604
837.029	24593
837.167	24540
837.305	24505
837.443	24429
837.58	24418
837.718	24342
837.856	24407
837.993	24376
838.131	24353
838.269	24201
838.406	24308
838.544	24125
838.681	23996
838.819	23965
838.956	23764
839.094	23855
839.231	23954
839.369	23942
839.506	24114
839.643	24140
839.781	23851
839.918	23843
840.055	23756
840.193	23745
840.33	23703
840.467	23813
840.604	23783
840.742	24026
840.879	23661
841.016	23798
841.153	23535
841.29	23790
841.427	23691
841.564	23855
841.701	23707
841.838	23619
841.975	23783
842.112	23570
842.249	23509
842.385	23436
842.522	23737
842.659	23497
842.796	23512
842.933	23490
843.069	23322
843.206	23455
843.343	23535
843.479	23349
843.616	23425
843.752	23326
843.889	23307
844.025	23372
844.162	23216
844.298	23318
844.435	23284
844.571	23094
844.708	23337
844.844	23463
844.98	23334
845.117	23402
845.253	23284
845.389	23299
845.525	23140
845.661	23140
845.798	22999
845.934	23094
846.07	23006
846.206	23113
846.342	23041
846.478	22995
846.614	22831
846.75	22683
846.886	22713
847.022	22858
847.158	22740
847.294	22698
847.429	22767
847.565	22698
847.701	22923
847.837	22603
847.972	22481
848.108	22519
848.244	22641
848.379	22379
848.515	22409
848.65	22272
848.786	22272
848.921	22341
849.057	22523
849.192	22409
849.328	22261
849.463	22211
849.598	22337
849.734	22268
849.869	22109
850.004	22230
850.14	22116
850.275	22230
850.41	21918
850.545	22048
850.68	22078
850.815	22055
850.95	21991
851.085	22200
851.22	22230
851.355	22124
851.49	22090
851.625	22051
851.76	22063
851.895	22021
852.03	21945
852.165	22207
852.299	22067
852.434	22177
852.569	22105
852.703	22078
852.838	22120
852.973	22051
853.107	22257
853.242	21975
853.376	22032
853.511	21808
853.645	21960
853.78	22006
853.914	22025
854.048	21960
854.183	21842
854.317	21861
854.451	22112
854.585	22040
854.72	21934
854.854	22029
854.988	21850
855.122	21888
855.256	21743
855.39	21823
855.524	22093
855.658	21922
855.792	22017
855.926	22032
856.06	21934
856.194	21960
856.327	21804
856.461	21884
856.595	21770
856.729	21888
856.862	21968
856.996	21926
857.13	21949
857.263	21979
857.397	21926
857.53	21884
857.664	21975
857.797	21930
857.931	22013
858.064	21960
858.197	22017
858.331	21949
858.464	21816
858.597	21892
858.731	21899
858.864	21930
858.997	22032
859.13	21808
859.263	21983
859.396	21953
859.529	21911
859.662	21895
859.795	21857
859.928	21854
860.061	22051
860.194	22048
860.327	22010
860.46	21937
860.592	22105
860.725	22021
860.858	21960
860.99	21964
861.123	21850
861.256	21911
861.388	21895
861.521	22611
861.653	21747
861.786	21629
861.918	21667
862.05	21724
862.183	21865
862.315	21937
862.447	21907
862.58	21663
862.712	21728
862.844	21606
862.976	21656
863.108	21656
863.24	21960
863.372	21595
863.504	21496
863.636	21576
863.768	21610
863.9	21538
864.032	21553
864.164	21606
864.296	21671
864.428	21682
864.559	21622
864.691	21679
864.823	21568
864.954	21587
865.086	21595
865.217	21511
865.349	21469
865.48	21511
865.612	21530
865.743	21705
865.875	21466
866.006	21511
866.137	21534
866.269	21496
866.4	21511
866.531	21526
866.662	21416
866.793	21435
866.924	21481
867.055	21428
867.186	21481
867.317	21393
867.448	21355
867.579	21485
867.71	21359
867.841	21378
867.972	21428
868.103	21332
868.233	21416
868.364	21332
868.495	21530
868.625	21583
868.756	21800
868.886	21473
869.017	21679
869.147	21789
869.278	21736
869.408	21739
869.539	21648
869.669	21698
869.799	21751
869.929	21759
870.06	21766
870.19	21911
870.32	21964
870.45	22059
870.58	21953
870.71	22166
870.84	22074
870.97	22078
871.1	22097
871.23	22276
871.36	22280
871.489	22234
871.619	22147
871.749	22363
871.879	22276
872.008	22394
872.138	22204
872.267	22246
872.397	22036
872.526	22070
872.656	22055
872.785	22032
872.915	22234
873.044	22280
873.173	22390
873.303	22268
873.432	22344
873.561	22272
873.69	22295
873.819	22268
873.948	22379
874.077	22440
874.206	22204
874.335	22246
874.464	22409
874.593	22531
874.722	22360
874.851	22596
874.979	22519
875.108	22603
875.237	22440
875.365	22348
875.494	22436
875.623	22516
875.751	22451
875.88	22405
876.008	22596
876.136	22698
876.265	22843
876.393	23022
876.521	22949
876.65	23018
876.778	22991
876.906	22782
877.034	22782
877.162	22869
877.29	22733
877.418	22869
877.546	22911
877.674	22847
877.802	22839
877.93	22831
878.058	22847
878.185	22729
878.313	22797
878.441	22820
878.568	22660
878.696	22824
878.824	22782
878.951	22904
879.079	23033
879.206	23239
879.333	23060
879.461	22995
879.588	22839
879.715	23025
879.842	23014
879.97	22927
880.097	22713
880.224	22634
880.351	22634
880.478	22710
880.605	22675
880.732	22649
880.859	22889
880.986	22645
881.112	22767
881.239	22565
881.366	22386
881.493	22276
881.619	22204
881.746	22390
881.872	22242
881.999	22128
882.125	22097
882.252	22276
882.378	22215
882.505	22280
882.631	22093
882.757	22006
882.883	22067
883.01	22055
883.136	21873
883.262	21785
883.388	21835
883.514	22002
883.64	21968
883.766	21888
883.892	21785
884.018	21644
884.143	21911
884.269	21968
884.395	21732
884.52	21538
884.646	21511
884.772	21492
884.897	21496
885.023	21652
885.148	21701
885.274	21587
885.399	21561
885.524	21564
885.65	21485
885.775	21500
885.9	21519
886.025	21698
886.15	21614
886.275	21591
886.4	21466
886.525	21397
886.65	21439
886.775	21431
886.9	21671
887.025	21743
887.149	21549
887.274	21291
887.399	21233
887.523	21298
887.648	21226
887.773	21226
887.897	21393
888.021	21370
888.146	21192
888.27	21401
888.395	21412
888.519	21302
888.643	21370
888.767	21450
888.891	21237
889.015	21123
889.139	21180
889.263	21108
889.387	21104
889.511	21389
889.635	21283
889.759	21017
889.883	21051
890.006	21233
890.13	21173
890.254	20925
890.377	21051
890.501	20819
890.624	20792
890.748	20845
890.871	20712
890.995	20598
891.118	20625
891.241	20746
891.364	20746
891.488	20800
891.611	20682
891.734	20670
891.857	20655
891.98	20663
892.103	20678
892.226	20724
892.349	20602
892.471	20389
892.594	20636
892.717	20522
892.839	20663
892.962	20682
893.085	20659
893.207	20667
893.33	20454
893.452	20526
893.575	20625
893.697	20556
893.819	20606
893.941	20708
894.064	20739
894.186	20568
894.308	20590
894.43	20556
894.552	20819
894.674	20549
894.796	20431
894.918	20507
895.04	20533
895.161	20648
895.283	20621
895.405	20499
895.526	20446
895.648	20522
895.769	20632
895.891	20556
896.012	20598
896.134	20613
896.255	20636
896.376	20549
896.498	20473
896.619	20598
896.74	20530
896.861	20678
896.982	20868
897.103	21024
897.224	20804
897.345	20705
897.466	20667
897.587	20811
897.708	20933
897.828	20754
897.949	20682
898.07	20564
898.19	20651
898.311	20868
898.431	20762
898.552	20826
898.672	20914
898.792	20834
898.913	20804
899.033	20648
899.153	20655
899.273	20518
899.393	20473
899.513	20644
899.633	20621
899.753	20609
899.873	20465
899.993	20598
900.113	20533
900.232	20511
900.352	20419
900.472	20377
900.591	20233
900.711	20233
900.83	20271
900.95	20324
901.069	20328
901.189	20126
901.308	19959
901.427	19967
901.546	19940
901.665	19959
901.784	19864
901.904	19700
902.023	19647
902.141	19438
902.26	19521
902.379	19472
902.498	19388
902.617	19270
902.735	19346
902.854	19312
902.973	19274
903.091	19000
903.21	19050
903.328	19031
903.446	18935
903.565	18913
903.683	18863
903.801	18620
903.919	18821
904.038	18764
904.156	18627
904.274	18658
904.392	18623
904.51	18711
904.627	18635
904.745	18559
904.863	18627
904.981	18414
905.098	18235
905.216	18300
905.334	18243
905.451	18251
905.569	18220
905.686	18330
905.803	18213
905.921	17984
906.038	18220
906.155	18079
906.272	17984
906.389	17923
906.506	17878
906.623	17813
906.74	17805
906.857	17779
906.974	17592
907.091	17935
907.208	17893
907.324	17847
907.441	17695
907.557	17573
907.674	17463
907.79	17402
907.907	17448
908.023	17532
908.139	17551
908.256	17524
908.372	17406
908.488	17330
908.604	17273
908.72	17193
908.836	17193
908.952	17246
909.068	17185
909.184	17292
909.3	17242
909.415	17280
909.531	17185
909.647	17121
909.762	16839
909.878	16915
909.993	16961
910.108	16957
910.224	16793
910.339	17014
910.454	16736
910.57	16778
910.685	16596
910.8	16938
910.915	16873
911.03	16816
911.145	16527
911.259	16580
911.374	16535
911.489	16538
911.604	16360
911.718	16341
911.833	16291
911.947	16173
912.062	16177
912.176	16303
912.291	16299
912.405	16291
912.519	16440
912.633	16409
912.748	16379
912.862	16284
912.976	16071
913.09	15991
913.204	16074
913.318	16082
913.431	16135
913.545	16131
913.659	16162
913.772	16097
913.886	15987
914	15827
914.113	15945
914.226	15968
914.34	15983
914.453	15739
914.566	15899
914.68	15759
914.793	15770
914.906	15614
915.019	15519
915.132	15401
915.245	15481
915.358	15618
915.47	15488
915.583	15485
915.696	15526
915.809	15557
915.921	15549
916.034	15370
916.146	15408
916.259	15393
916.371	15500
916.483	15412
916.595	15260
916.708	15256
916.82	15355
916.932	15351
917.044	15370
917.156	15176
917.268	15188
917.38	15127
917.491	15138
917.603	15077
917.715	15233
917.826	15233
917.938	15112
918.049	15020
918.161	15093
918.272	15268
918.384	15188
918.495	14998
918.606	14849
918.717	14845
918.828	14967
918.939	14838
919.05	14830
919.161	14891
919.272	14651
919.383	14746
919.494	14963
919.604	15093
919.715	14887
919.826	14758
919.936	14868
920.047	14864
920.157	14861
920.267	15070
920.378	14921
920.488	14811
920.598	15017
920.708	15150
920.818	14948
920.928	14925
921.038	15131
921.148	15070
921.258	14830
921.368	14731
921.477	14667
921.587	14549
921.697	14549
921.806	14579
921.916	14476
922.025	14218
922.134	14252
922.244	14164
922.353	14294
922.462	14008
922.571	14069
922.68	13902
922.789	13807
922.898	13879
923.007	13902
923.116	13822
923.224	13803
923.333	13814
923.442	13658
923.55	13689
923.659	13704
923.767	13803
923.876	13499
923.984	13715
924.092	13571
924.201	13624
924.309	13616
924.417	13670
924.525	13514
924.633	13476
924.741	14469
924.849	13415
924.956	13518
925.064	13301
925.172	13206
925.279	13141
925.387	13259
925.494	13320
925.602	13411
925.709	13285
925.816	13198
925.924	13274
926.031	13259
926.138	13198
926.245	13206
926.352	13107
926.459	13202
926.566	13251
926.673	13053
926.779	12924
926.886	13042
926.993	12844
927.099	12833
927.206	12749
927.312	12764
927.419	12817
927.525	12795
927.631	12817
927.737	12707
927.843	12658
927.95	12521
928.056	12623
928.162	12658
928.267	12623
928.373	13221
928.479	12669
928.585	12471
928.69	12582
928.796	12612
928.901	12403
929.007	12315
929.112	12536
929.218	12410
929.323	12403
929.428	12399
929.533	12407
929.638	12273
929.743	12266
929.848	12319
929.953	12357
930.058	12232
930.163	12068
930.267	12015
930.372	12182
930.477	12095
930.581	12289
930.685	12041
930.79	11946
930.894	12015
930.998	11859
931.103	12060
931.207	11619
931.311	11604
931.415	11501
931.519	11296
931.623	11326
