Data from test_V78500241_504.txt Node
Date: Fri Mar 25 15:45:17 CST 2022
User: usil
Spectrometer: V785-0024
Trigger mode: 0
Integration Time (sec): 4.000000E-1
Scans to average: 1
Nonlinearity correction enabled: false
Boxcar width: 0
Storing dark spectrum: false
XAxis mode: Wavelengths
Number of Pixels in Spectrum: 1024
>>>>>Begin Spectral Data<<<<<
801.071	27264
801.214	27169
801.356	26868
801.499	26838
801.641	26857
801.783	26804
801.926	26678
802.068	26674
802.211	26609
802.353	26453
802.496	26358
802.638	26301
802.78	26374
802.923	26347
803.065	26221
803.208	26225
803.35	26446
803.492	26530
803.635	26469
803.777	26385
803.919	26450
804.061	26686
804.204	26533
804.346	26488
804.488	26415
804.63	26400
804.773	26248
804.915	26533
805.057	26602
805.199	26533
805.341	26450
805.483	26594
805.626	26438
805.768	26396
805.91	26552
806.052	26511
806.194	26503
806.336	26750
806.478	26598
806.62	26667
806.762	26720
806.904	26823
807.046	27074
807.188	26952
807.33	27036
807.472	27173
807.614	26948
807.756	26952
807.898	26674
808.04	26724
808.182	26834
808.324	26853
808.465	26823
808.607	27070
808.749	27146
808.891	27188
809.033	27374
809.174	27241
809.316	27226
809.458	27180
809.6	27279
809.741	27157
809.883	27370
810.025	27507
810.166	27412
810.308	27576
810.45	27408
810.591	27336
810.733	27268
810.875	27157
811.016	27096
811.158	27089
811.299	27443
811.441	27473
811.582	27317
811.724	27180
811.865	27207
812.007	27131
812.148	27138
812.29	27119
812.431	27287
812.573	27591
812.714	27656
812.855	27751
812.997	27892
813.138	27895
813.279	27907
813.421	27762
813.562	27751
813.703	27530
813.845	27416
813.986	27032
814.127	27104
814.268	26743
814.41	26705
814.551	26815
814.692	26990
814.833	26716
814.974	26811
815.115	26880
815.256	26697
815.397	26663
815.539	26777
815.68	26575
815.821	26541
815.962	26549
816.103	26609
816.244	26530
816.385	26305
816.526	26389
816.666	26145
816.807	26187
816.948	26096
817.089	26164
817.23	26134
817.371	26157
817.512	25989
817.653	26092
817.793	25902
817.934	26062
818.075	26191
818.216	26111
818.356	25928
818.497	25986
818.638	25887
818.778	25845
818.919	25852
819.06	25849
819.2	26001
819.341	26119
819.481	26088
819.622	26122
819.762	26393
819.903	26351
820.043	26149
820.184	26218
820.324	26122
820.465	26206
820.605	26088
820.746	26320
820.886	26073
821.026	26199
821.167	26001
821.307	26355
821.447	26172
821.588	26115
821.728	25909
821.868	25826
822.008	25658
822.149	25605
822.289	25521
822.429	25312
822.569	25331
822.709	25331
822.849	25000
822.99	25145
823.13	25099
823.27	25065
823.41	24806
823.55	24894
823.69	24897
823.83	24806
823.97	24741
824.11	24673
824.25	24749
824.389	24726
824.529	24798
824.669	24730
824.809	24897
824.949	24783
825.089	24829
825.228	24601
825.368	24517
825.508	24544
825.648	24559
825.787	24722
825.927	24513
826.067	24498
826.206	24498
826.346	24566
826.485	24555
826.625	24532
826.765	24715
826.904	24681
827.044	24273
827.183	24235
827.323	24262
827.462	24361
827.601	24262
827.741	24136
827.88	24323
828.02	24186
828.159	24182
828.298	24243
828.437	24327
828.577	24239
828.716	24289
828.855	24247
828.994	23950
829.134	23904
829.273	24076
829.412	23977
829.551	24026
829.69	23897
829.829	23931
829.968	23961
830.107	24007
830.246	23870
830.385	23908
830.524	23885
830.663	23676
830.802	23619
830.941	23528
831.08	23592
831.219	23649
831.357	23562
831.496	23680
831.635	23554
831.774	23440
831.913	23455
832.051	23223
832.19	23356
832.329	23337
832.467	23105
832.606	23185
832.744	23265
832.883	23147
833.022	23258
833.16	23181
833.299	23280
833.437	23261
833.576	23265
833.714	23356
833.852	23277
833.991	23341
834.129	23288
834.267	23387
834.406	23189
834.544	23178
834.682	23246
834.821	23181
834.959	23349
835.097	23208
835.235	23311
835.373	23372
835.511	23231
835.65	23105
835.788	23143
835.926	23025
836.064	23029
836.202	22923
836.34	23258
836.478	23162
836.615	23162
836.753	23105
836.891	23140
837.029	23117
837.167	23105
837.305	23056
837.443	22877
837.58	22949
837.718	23117
837.856	22923
837.993	22828
838.131	22976
838.269	22706
838.406	22786
838.544	22904
838.681	22596
838.819	22679
838.956	22538
839.094	22481
839.231	22455
839.369	22580
839.506	22782
839.643	22641
839.781	22382
839.918	22268
840.055	22436
840.193	22325
840.33	22360
840.467	22481
840.604	22405
840.742	22561
840.879	22253
841.016	22394
841.153	22246
841.29	22306
841.427	22306
841.564	22424
841.701	22363
841.838	22268
841.975	22299
842.112	22276
842.249	22234
842.385	22238
842.522	22341
842.659	22169
842.796	22063
842.933	22116
843.069	21953
843.206	22150
843.343	22070
843.479	22067
843.616	22070
843.752	21880
843.889	21937
844.025	22017
844.162	21808
844.298	21835
844.435	21823
844.571	21892
844.708	22036
844.844	22032
844.98	21895
845.117	21869
845.253	21759
845.389	21667
845.525	21732
845.661	21728
845.798	21667
845.934	21652
846.07	21576
846.206	21667
846.342	21709
846.478	21557
846.614	21268
846.75	21332
846.886	21374
847.022	21523
847.158	21332
847.294	21397
847.429	21458
847.565	21382
847.701	21542
847.837	21119
847.972	21051
848.108	21165
848.244	21127
848.379	20929
848.515	20914
848.65	20921
848.786	20937
848.921	20906
849.057	21085
849.192	21009
849.328	21020
849.463	20937
849.598	20868
849.734	20921
849.869	20804
850.004	20564
850.14	20716
850.275	20648
850.41	20655
850.545	20564
850.68	20716
850.815	20735
850.95	20716
851.085	20925
851.22	20590
851.355	20880
851.49	20667
851.625	20667
851.76	20727
851.895	20575
852.03	20552
852.165	20773
852.299	20743
852.434	20823
852.569	20788
852.703	20705
852.838	20899
852.973	20819
853.107	20746
853.242	20636
853.376	20663
853.511	20358
853.645	20484
853.78	20606
853.914	20575
854.048	20530
854.183	20587
854.317	20503
854.451	20705
854.585	20480
854.72	20556
854.854	20670
854.988	20434
855.122	20571
855.256	20400
855.39	20579
855.524	20556
855.658	20476
855.792	20549
855.926	20522
856.06	20632
856.194	20511
856.327	20549
856.461	20476
856.595	20465
856.729	20564
856.862	20632
856.996	20587
857.13	20511
857.263	20648
857.397	20644
857.53	20583
857.664	20492
857.797	20556
857.931	20667
858.064	20545
858.197	20708
858.331	20438
858.464	20537
858.597	20431
858.731	20587
858.864	20575
858.997	20476
859.13	20526
859.263	20560
859.396	20602
859.529	20454
859.662	20499
859.795	20552
859.928	20583
860.061	20689
860.194	20735
860.327	20583
860.46	20507
860.592	20682
860.725	20549
860.858	20697
860.99	20552
861.123	20484
861.256	20434
861.388	20473
861.521	21176
861.653	20385
861.786	20339
861.918	20415
862.05	20336
862.183	20366
862.315	20606
862.447	20511
862.58	20484
862.712	20191
862.844	20161
862.976	20404
863.108	20484
863.24	20800
863.372	20187
863.504	20290
863.636	20290
863.768	20229
863.9	20278
864.032	20096
864.164	20199
864.296	20237
864.428	20332
864.559	20492
864.691	20286
864.823	20206
864.954	20252
865.086	20229
865.217	20183
865.349	19951
865.48	20229
865.612	20050
865.743	20290
865.875	20149
866.006	20252
866.137	20134
866.269	20050
866.4	20126
866.531	20134
866.662	20073
866.793	20024
866.924	20161
867.055	20088
867.186	20062
867.317	20142
867.448	19989
867.579	20073
867.71	20016
867.841	19967
867.972	20119
868.103	20134
868.233	20111
868.364	20130
868.495	20096
868.625	20267
868.756	20442
868.886	20210
869.017	20271
869.147	20537
869.278	20446
869.408	20400
869.539	20328
869.669	20522
869.799	20389
869.929	20556
870.06	20396
870.19	20686
870.32	20609
870.45	20762
870.58	20731
870.71	20845
870.84	20811
870.97	20731
871.1	20739
871.23	20792
871.36	20963
871.489	20929
871.619	20864
871.749	20906
871.879	21039
872.008	21062
872.138	20735
872.267	20906
872.397	20800
872.526	20743
872.656	20697
872.785	20727
872.915	20929
873.044	21055
873.173	20872
873.303	21074
873.432	20982
873.561	21100
873.69	20986
873.819	20918
873.948	21020
874.077	20937
874.206	20910
874.335	20960
874.464	21100
874.593	21214
874.722	21077
874.851	21188
874.979	21306
875.108	21275
875.237	21150
875.365	21108
875.494	21146
875.623	21325
875.751	21203
875.88	21214
876.008	21325
876.136	21355
876.265	21580
876.393	21747
876.521	21759
876.65	21728
876.778	21618
876.906	21496
877.034	21500
877.162	21553
877.29	21538
877.418	21568
877.546	21496
877.674	21530
877.802	21572
877.93	21599
878.058	21416
878.185	21454
878.313	21538
878.441	21492
878.568	21340
878.696	21466
878.824	21599
878.951	21587
879.079	21838
879.206	21937
879.333	21717
879.461	21637
879.588	21671
879.715	21652
879.842	21827
879.97	21701
880.097	21431
880.224	21287
880.351	21397
880.478	21378
880.605	21412
880.732	21408
880.859	21549
880.986	21408
881.112	21507
881.239	21230
881.366	21165
881.493	21100
881.619	20899
881.746	20994
881.872	20986
881.999	20960
882.125	20895
882.252	20952
882.378	21028
882.505	21146
882.631	20845
882.757	20727
882.883	20739
883.01	20720
883.136	20667
883.262	20526
883.388	20590
883.514	20724
883.64	20667
883.766	20594
883.892	20461
884.018	20556
884.143	20609
884.269	20659
884.395	20480
884.52	20389
884.646	20267
884.772	20191
884.897	20298
885.023	20358
885.148	20358
885.274	20389
885.399	20393
885.524	20237
885.65	20362
885.775	20282
885.9	20305
886.025	20454
886.15	20298
886.275	20298
886.4	20195
886.525	20320
886.65	20263
886.775	20218
886.9	20461
887.025	20507
887.149	20336
887.274	20153
887.399	20157
887.523	20069
887.648	20126
887.773	20012
887.897	20218
888.021	20240
888.146	20077
888.27	20092
888.395	20214
888.519	20183
888.643	20062
888.767	20130
888.891	19978
889.015	19913
889.139	19917
889.263	19772
889.387	20043
889.511	20043
889.635	20005
889.759	19818
889.883	19875
890.006	19978
890.13	19967
890.254	19852
890.377	19784
890.501	19662
890.624	19799
890.748	19681
890.871	19529
890.995	19472
891.118	19396
891.241	19556
891.364	19441
891.488	19635
891.611	19476
891.734	19525
891.857	19476
891.98	19544
892.103	19613
892.226	19438
892.349	19426
892.471	19263
892.594	19396
892.717	19445
892.839	19419
892.962	19430
893.085	19449
893.207	19430
893.33	19228
893.452	19266
893.575	19434
893.697	19441
893.819	19514
893.941	19605
894.064	19548
894.186	19289
894.308	19335
894.43	19548
894.552	19514
894.674	19563
894.796	19411
894.918	19343
895.04	19381
895.161	19422
895.283	19327
895.405	19301
895.526	19358
895.648	19499
895.769	19434
895.891	19495
896.012	19499
896.134	19518
896.255	19552
896.376	19453
896.498	19445
896.619	19514
896.74	19460
896.861	19373
896.982	19860
897.103	19898
897.224	19822
897.345	19674
897.466	19696
897.587	19704
897.708	19723
897.828	19620
897.949	19453
898.07	19529
898.19	19514
898.311	19738
898.431	19571
898.552	19681
898.672	19769
898.792	19712
898.913	19746
899.033	19590
899.153	19396
899.273	19480
899.393	19445
899.513	19426
899.633	19381
899.753	19415
899.873	19460
899.993	19354
900.113	19403
900.232	19449
900.352	19464
900.472	19289
900.591	19156
900.711	19244
900.83	19251
900.95	19274
901.069	19297
901.189	19118
901.308	18871
901.427	18825
901.546	18859
901.665	18871
901.784	18837
901.904	18749
902.023	18570
902.141	18372
902.26	18262
902.379	18513
902.498	18350
902.617	18178
902.735	18361
902.854	18304
902.973	18258
903.091	18041
903.21	17996
903.328	18041
903.446	17996
903.565	17855
903.683	17866
903.801	17767
903.919	17813
904.038	17748
904.156	17520
904.274	17592
904.392	17573
904.51	17600
904.627	17642
904.745	17687
904.863	17710
904.981	17429
905.098	17345
905.216	17159
905.334	17349
905.451	17387
905.569	17307
905.686	17345
905.803	17299
905.921	17014
906.038	17151
906.155	17105
906.272	17025
906.389	17006
906.506	16816
906.623	16809
906.74	16835
906.857	16694
906.974	16607
907.091	16847
907.208	16850
907.324	16854
907.441	16603
907.557	16535
907.674	16538
907.79	16474
907.907	16561
908.023	16565
908.139	16478
908.256	16512
908.372	16398
908.488	16375
908.604	16341
908.72	16261
908.836	16287
908.952	16192
909.068	16234
909.184	16341
909.3	16215
909.415	16200
909.531	16280
909.647	15922
909.762	16025
909.878	15922
909.993	15926
910.108	15941
910.224	15838
910.339	15991
910.454	15816
910.57	15770
910.685	15766
910.8	15918
910.915	15949
911.03	15823
911.145	15690
911.259	15538
911.374	15648
911.489	15511
911.604	15542
911.718	15294
911.833	15359
911.947	15173
912.062	15249
912.176	15355
912.291	15393
912.405	15401
912.519	15534
912.633	15519
912.748	15389
912.862	15340
912.976	15157
913.09	14937
913.204	15097
913.318	15142
913.431	15249
913.545	15283
913.659	15256
913.772	15081
913.886	14998
914	14845
914.113	15070
914.226	14998
914.34	14960
914.453	14883
914.566	14906
914.68	14849
914.793	14948
914.906	14697
915.019	14617
915.132	14442
915.245	14537
915.358	14670
915.47	14568
915.583	14640
915.696	14598
915.809	14765
915.921	14644
916.034	14473
916.146	14476
916.259	14518
916.371	14473
916.483	14507
916.595	14442
916.708	14495
916.82	14431
916.932	14370
917.044	14332
917.156	14336
917.268	14229
917.38	14294
917.491	14202
917.603	14275
917.715	14286
917.826	14332
917.938	14180
918.049	14103
918.161	14176
918.272	14404
918.384	14320
918.495	14187
918.606	13989
918.717	13841
918.828	13997
918.939	14035
919.05	13982
919.161	13959
919.272	13852
919.383	13894
919.494	14027
919.604	14271
919.715	14024
919.826	14008
919.936	13955
920.047	14008
920.157	13963
920.267	14195
920.378	13989
920.488	13947
920.598	14126
920.708	14324
920.818	14138
920.928	14115
921.038	14332
921.148	14172
921.258	13909
921.368	13830
921.477	13822
921.587	13727
921.697	13548
921.806	13738
921.916	13540
922.025	13510
922.134	13434
922.244	13396
922.353	13464
922.462	13232
922.571	13240
922.68	13034
922.789	13038
922.898	13099
923.007	13019
923.116	13122
923.224	13038
923.333	13019
923.442	12966
923.55	12878
923.659	12848
923.767	12935
923.876	12901
923.984	12882
924.092	12825
924.201	12821
924.309	12875
924.417	12798
924.525	12795
924.633	12738
924.741	13506
924.849	12551
924.956	12665
925.064	12498
925.172	12391
925.279	12445
925.387	12582
925.494	12456
925.602	12665
925.709	12422
925.816	12452
925.924	12467
926.031	12559
926.138	12391
926.245	12490
926.352	12308
926.459	12498
926.566	12547
926.673	12353
926.779	12262
926.886	12224
926.993	12114
927.099	12110
927.206	12034
927.312	12095
927.419	12125
927.525	12076
927.631	12060
927.737	11961
927.843	11916
927.95	11748
928.056	11916
928.162	11927
928.267	11912
928.373	12551
928.479	11958
928.585	11760
928.69	11821
928.796	11889
928.901	11786
929.007	11661
929.112	11737
929.218	11703
929.323	11668
929.428	11596
929.533	11855
929.638	11577
929.743	11600
929.848	11657
929.953	11638
930.058	11505
930.163	11372
930.267	11311
930.372	11433
930.477	11258
930.581	11558
930.685	11368
930.79	11231
930.894	11307
930.998	11258
931.103	11402
931.207	11067
931.311	10900
931.415	10809
931.519	10607
931.623	10580
