Data from test_V78500241_175.txt Node
Date: Fri Mar 25 15:43:00 CST 2022
User: usil
Spectrometer: V785-0024
Trigger mode: 0
Integration Time (sec): 4.000000E-1
Scans to average: 1
Nonlinearity correction enabled: false
Boxcar width: 0
Storing dark spectrum: false
XAxis mode: Wavelengths
Number of Pixels in Spectrum: 1024
>>>>>Begin Spectral Data<<<<<
801.071	28596
801.214	28679
801.356	28333
801.499	28341
801.641	28261
801.783	28188
801.926	28337
802.068	28093
802.211	28284
802.353	27899
802.496	27736
802.638	27865
802.78	27888
802.923	27755
803.065	27717
803.208	27698
803.35	27785
803.492	27991
803.635	27899
803.777	27907
803.919	27835
804.061	28204
804.204	27960
804.346	27987
804.488	27660
804.63	27911
804.773	27682
804.915	27793
805.057	27914
805.199	27789
805.341	27873
805.483	27918
805.626	27914
805.768	27888
805.91	28124
806.052	28078
806.194	27797
806.336	28223
806.478	27953
806.62	27926
806.762	28044
806.904	28261
807.046	28356
807.188	28390
807.33	28417
807.472	28185
807.614	28204
807.756	28196
807.898	28135
808.04	28154
808.182	28131
808.324	28147
808.465	28219
808.607	28322
808.749	28352
808.891	28687
809.033	28683
809.174	28588
809.316	28599
809.458	28599
809.6	28295
809.741	28508
809.883	28550
810.025	28675
810.166	28828
810.308	28649
810.45	28744
810.591	28649
810.733	28542
810.875	28474
811.016	28280
811.158	28173
811.299	28557
811.441	28538
811.582	28531
811.724	28432
811.865	28401
812.007	28466
812.148	28379
812.29	28413
812.431	28538
812.573	28721
812.714	28858
812.855	28885
812.997	28961
813.138	29143
813.279	29151
813.421	28957
813.562	28995
813.703	28660
813.845	28580
813.986	28295
814.127	28169
814.268	27895
814.41	28154
814.551	27926
814.692	28261
814.833	28010
814.974	27922
815.115	27922
815.256	27827
815.397	27789
815.539	27842
815.68	27876
815.821	27854
815.962	27755
816.103	27827
816.244	27690
816.385	27534
816.526	27477
816.666	27393
816.807	27291
816.948	27135
817.089	27249
817.23	27100
817.371	27176
817.512	27268
817.653	27116
817.793	27211
817.934	27146
818.075	27214
818.216	27127
818.356	27138
818.497	27001
818.638	26975
818.778	26788
818.919	26845
819.06	26838
819.2	26986
819.341	27146
819.481	26975
819.622	27264
819.762	27435
819.903	27351
820.043	27294
820.184	27169
820.324	27146
820.465	27317
820.605	27199
820.746	27093
820.886	27020
821.026	27017
821.167	27024
821.307	27112
821.447	27036
821.588	26853
821.728	26724
821.868	26716
822.008	26503
822.149	26568
822.289	26511
822.429	26259
822.569	26206
822.709	26183
822.849	26043
822.99	25966
823.13	25875
823.27	25951
823.41	25799
823.55	25590
823.69	25841
823.83	25742
823.97	25803
824.11	25518
824.25	25594
824.389	25544
824.529	25582
824.669	25479
824.809	25616
824.949	25586
825.089	25700
825.228	25525
825.368	25381
825.508	25324
825.648	25400
825.787	25438
825.927	25365
826.067	25415
826.206	25377
826.346	25460
826.485	25324
826.625	25259
826.765	25464
826.904	25445
827.044	25122
827.183	24935
827.323	24954
827.462	25065
827.601	25015
827.741	24928
827.88	24909
828.02	25046
828.159	24886
828.298	24996
828.437	25118
828.577	24962
828.716	25038
828.855	24935
828.994	24795
829.134	24806
829.273	24779
829.412	24631
829.551	24627
829.69	24669
829.829	24719
829.968	24772
830.107	24768
830.246	24707
830.385	24673
830.524	24646
830.663	24486
830.802	24327
830.941	24254
831.08	24300
831.219	24216
831.357	24346
831.496	24365
831.635	24270
831.774	24095
831.913	24136
832.051	23950
832.19	23954
832.329	23988
832.467	23961
832.606	23882
832.744	23824
832.883	23851
833.022	23809
833.16	23893
833.299	24018
833.437	23805
833.576	23904
833.714	23882
833.852	23946
833.991	23916
834.129	23996
834.267	24038
834.406	23843
834.544	23939
834.682	23874
834.821	23897
834.959	24060
835.097	23821
835.235	23973
835.373	23942
835.511	23843
835.65	23680
835.788	23653
835.926	23623
836.064	23436
836.202	23528
836.34	23653
836.478	23764
836.615	23665
836.753	23726
836.891	23771
837.029	23642
837.167	23638
837.305	23501
837.443	23524
837.58	23551
837.718	23615
837.856	23665
837.993	23471
838.131	23490
838.269	23387
838.406	23505
838.544	23528
838.681	23117
838.819	23155
838.956	22911
839.094	22942
839.231	22896
839.369	23105
839.506	23318
839.643	23189
839.781	22976
839.918	22942
840.055	22892
840.193	22869
840.33	22596
840.467	22805
840.604	22885
840.742	23117
840.879	22744
841.016	22782
841.153	22683
841.29	22911
841.427	22782
841.564	22740
841.701	22774
841.838	22668
841.975	22725
842.112	22816
842.249	22656
842.385	22592
842.522	22869
842.659	22653
842.796	22447
842.933	22546
843.069	22504
843.206	22424
843.343	22527
843.479	22489
843.616	22565
843.752	22337
843.889	22192
844.025	22481
844.162	22223
844.298	22253
844.435	22356
844.571	22272
844.708	22253
844.844	22284
844.98	22428
845.117	22386
845.253	22158
845.389	22295
845.525	22166
845.661	22086
845.798	21972
845.934	21983
846.07	21975
846.206	22067
846.342	22105
846.478	21854
846.614	21823
846.75	21762
846.886	21690
847.022	21720
847.158	21781
847.294	21648
847.429	21720
847.565	21732
847.701	21987
847.837	21370
847.972	21393
848.108	21587
848.244	21492
848.379	21477
848.515	21245
848.65	21321
848.786	21249
848.921	21298
849.057	21374
849.192	21256
849.328	21336
849.463	21211
849.598	21264
849.734	21169
849.869	21024
850.004	21127
850.14	21081
850.275	21043
850.41	20868
850.545	20963
850.68	20967
850.815	21009
850.95	21009
851.085	21142
851.22	21047
851.355	20963
851.49	20880
851.625	20906
851.76	21024
851.895	20986
852.03	20975
852.165	20956
852.299	20937
852.434	20937
852.569	21051
852.703	21055
852.838	21100
852.973	20990
853.107	21009
853.242	20937
853.376	20762
853.511	20594
853.645	20815
853.78	20834
853.914	20838
854.048	20724
854.183	20967
854.317	20765
854.451	20941
854.585	20644
854.72	20864
854.854	20910
854.988	20769
855.122	20735
855.256	20663
855.39	20876
855.524	20902
855.658	20720
855.792	20823
855.926	20701
856.06	20906
856.194	20762
856.327	20857
856.461	20674
856.595	20697
856.729	20765
856.862	20769
856.996	20826
857.13	20853
857.263	20807
857.397	20826
857.53	20788
857.664	20941
857.797	20746
857.931	20887
858.064	20853
858.197	20773
858.331	20754
858.464	20663
858.597	20701
858.731	20762
858.864	20693
858.997	20678
859.13	20625
859.263	20781
859.396	20754
859.529	20632
859.662	20606
859.795	20712
859.928	20712
860.061	20853
860.194	20956
860.327	20743
860.46	20716
860.592	20800
860.725	20765
860.858	20754
860.99	20648
861.123	20583
861.256	20667
861.388	20651
861.521	21344
861.653	20609
861.786	20568
861.918	20648
862.05	20716
862.183	20670
862.315	20864
862.447	20815
862.58	20720
862.712	20522
862.844	20450
862.976	20454
863.108	20541
863.24	20689
863.372	20339
863.504	20446
863.636	20396
863.768	20419
863.9	20370
864.032	20248
864.164	20332
864.296	20476
864.428	20362
864.559	20438
864.691	20431
864.823	20370
864.954	20442
865.086	20396
865.217	20324
865.349	20126
865.48	20298
865.612	20313
865.743	20415
865.875	20317
866.006	20267
866.137	20362
866.269	20355
866.4	20309
866.531	20351
866.662	20240
866.793	20301
866.924	20309
867.055	20298
867.186	20244
867.317	20164
867.448	20161
867.579	20278
867.71	20145
867.841	20062
867.972	20195
868.103	20317
868.233	20248
868.364	20370
868.495	20199
868.625	20575
868.756	20579
868.886	20385
869.017	20518
869.147	20598
869.278	20503
869.408	20545
869.539	20495
869.669	20533
869.799	20564
869.929	20686
870.06	20545
870.19	20807
870.32	20853
870.45	20857
870.58	20925
870.71	20963
870.84	21017
870.97	20868
871.1	20849
871.23	21112
871.36	21096
871.489	21096
871.619	21024
871.749	21108
871.879	21055
872.008	21245
872.138	21047
872.267	21009
872.397	20929
872.526	20849
872.656	20979
872.785	21093
872.915	21089
873.044	21119
873.173	21039
873.303	21043
873.432	21085
873.561	21142
873.69	21119
873.819	21138
873.948	21207
874.077	21104
874.206	20994
874.335	21222
874.464	21287
874.593	21386
874.722	21416
874.851	21424
874.979	21405
875.108	21355
875.237	21313
875.365	21188
875.494	21340
875.623	21302
875.751	21306
875.88	21454
876.008	21576
876.136	21564
876.265	21789
876.393	21808
876.521	21797
876.65	21800
876.778	21778
876.906	21701
877.034	21675
877.162	21751
877.29	21625
877.418	21625
877.546	21755
877.674	21724
877.802	21644
877.93	21739
878.058	21774
878.185	21625
878.313	21618
878.441	21663
878.568	21648
878.696	21656
878.824	21827
878.951	21865
879.079	21888
879.206	22006
879.333	21804
879.461	21762
879.588	21869
879.715	21781
879.842	21991
879.97	21713
880.097	21599
880.224	21580
880.351	21622
880.478	21511
880.605	21469
880.732	21534
880.859	21751
880.986	21462
881.112	21576
881.239	21397
881.366	21374
881.493	21260
881.619	21192
881.746	21131
881.872	21165
881.999	21150
882.125	21017
882.252	21260
882.378	21039
882.505	21256
882.631	21070
882.757	21013
882.883	20941
883.01	20925
883.136	20895
883.262	20765
883.388	20617
883.514	20731
883.64	20815
883.766	20800
883.892	20644
884.018	20727
884.143	20925
884.269	20830
884.395	20526
884.52	20473
884.646	20469
884.772	20427
884.897	20351
885.023	20473
885.148	20564
885.274	20621
885.399	20575
885.524	20469
885.65	20537
885.775	20583
885.9	20419
886.025	20499
886.15	20621
886.275	20442
886.4	20457
886.525	20434
886.65	20423
886.775	20419
886.9	20537
887.025	20689
887.149	20362
887.274	20259
887.399	20122
887.523	20180
887.648	20145
887.773	20092
887.897	20290
888.021	20218
888.146	20229
888.27	20412
888.395	20267
888.519	20229
888.643	20168
888.767	20301
888.891	20199
889.015	20069
889.139	20130
889.263	19913
889.387	20195
889.511	20271
889.635	20187
889.759	20012
889.883	19940
890.006	20058
890.13	20107
890.254	19970
890.377	19986
890.501	19738
890.624	19795
890.748	19780
890.871	19772
890.995	19559
891.118	19533
891.241	19715
891.364	19719
891.488	19738
891.611	19571
891.734	19632
891.857	19734
891.98	19556
892.103	19582
892.226	19685
892.349	19506
892.471	19495
892.594	19502
892.717	19620
892.839	19438
892.962	19510
893.085	19670
893.207	19430
893.33	19449
893.452	19472
893.575	19491
893.697	19472
893.819	19628
893.941	19651
894.064	19643
894.186	19468
894.308	19438
894.43	19635
894.552	19769
894.674	19594
894.796	19438
894.918	19476
895.04	19525
895.161	19643
895.283	19548
895.405	19396
895.526	19605
895.648	19533
895.769	19624
895.891	19556
896.012	19742
896.134	19662
896.255	19480
896.376	19480
896.498	19601
896.619	19708
896.74	19540
896.861	19719
896.982	19909
897.103	20069
897.224	19898
897.345	19799
897.466	19734
897.587	19780
897.708	19951
897.828	19772
897.949	19700
898.07	19666
898.19	19719
898.311	19833
898.431	19609
898.552	19731
898.672	19742
898.792	19765
898.913	19807
899.033	19499
899.153	19594
899.273	19468
899.393	19358
899.513	19533
899.633	19495
899.753	19578
899.873	19335
899.993	19506
900.113	19506
900.232	19460
900.352	19392
900.472	19316
900.591	19301
900.711	19255
900.83	19171
900.95	19327
901.069	19346
901.189	19175
901.308	18954
901.427	19004
901.546	18954
901.665	18882
901.784	18966
901.904	18741
902.023	18585
902.141	18486
902.26	18266
902.379	18464
902.498	18403
902.617	18376
902.735	18365
902.854	18403
902.973	18228
903.091	18057
903.21	18019
903.328	18045
903.446	17958
903.565	17855
903.683	17817
903.801	17798
903.919	17794
904.038	17786
904.156	17592
904.274	17745
904.392	17604
904.51	17665
904.627	17642
904.745	17676
904.863	17691
904.981	17444
905.098	17254
905.216	17372
905.334	17307
905.451	17311
905.569	17288
905.686	17307
905.803	17193
905.921	17056
906.038	17143
906.155	17159
906.272	16991
906.389	17056
906.506	16885
906.623	16854
906.74	16790
906.857	16694
906.974	16809
907.091	16850
907.208	16968
907.324	16946
907.441	16790
907.557	16698
907.674	16603
907.79	16519
907.907	16466
908.023	16527
908.139	16538
908.256	16291
908.372	16538
908.488	16398
908.604	16192
908.72	16234
908.836	16409
908.952	16291
909.068	16200
909.184	16314
909.3	16219
909.415	16337
909.531	16135
909.647	15911
909.762	15991
909.878	15884
909.993	15975
910.108	15911
910.224	15888
910.339	15945
910.454	15827
910.57	15679
910.685	15759
910.8	15983
910.915	15827
911.03	15800
911.145	15523
911.259	15462
911.374	15462
911.489	15374
911.604	15389
911.718	15310
911.833	15313
911.947	15184
912.062	15203
912.176	15321
912.291	15230
912.405	15344
912.519	15431
912.633	15374
912.748	15321
912.862	15230
912.976	15211
913.09	14998
913.204	15062
913.318	15112
913.431	15161
913.545	15199
913.659	15169
913.772	15089
913.886	14834
914	14861
914.113	14967
914.226	14990
914.34	14933
914.453	14735
914.566	14986
914.68	14792
914.793	14750
914.906	14526
915.019	14613
915.132	14480
915.245	14518
915.358	14526
915.47	14541
915.583	14526
915.696	14492
915.809	14659
915.921	14583
916.034	14427
916.146	14415
916.259	14507
916.371	14549
916.483	14469
916.595	14370
916.708	14396
916.82	14374
916.932	14362
917.044	14282
917.156	14271
917.268	14187
917.38	14256
917.491	14206
917.603	14187
917.715	14225
917.826	14267
917.938	14195
918.049	13997
918.161	14202
918.272	14221
918.384	14298
918.495	14130
918.606	14027
918.717	13906
918.828	13997
918.939	13894
919.05	13833
919.161	13928
919.272	13765
919.383	13795
919.494	13982
919.604	14168
919.715	13932
919.826	13887
919.936	13833
920.047	13921
920.157	13925
920.267	14069
920.378	13868
920.488	13913
920.598	14084
920.708	14164
920.818	13917
920.928	14077
921.038	14221
921.148	14191
921.258	13795
921.368	13761
921.477	13795
921.587	13723
921.697	13559
921.806	13609
921.916	13601
922.025	13422
922.134	13327
922.244	13304
922.353	13255
922.462	13190
922.571	13145
922.68	13088
922.789	12981
922.898	13027
923.007	12958
923.116	12989
923.224	12985
923.333	12909
923.442	12787
923.55	12719
923.659	12837
923.767	12916
923.876	12715
923.984	12791
924.092	12597
924.201	12673
924.309	12612
924.417	12757
924.525	12612
924.633	12623
924.741	13419
924.849	12513
924.956	12566
925.064	12426
925.172	12319
925.279	12365
925.387	12395
925.494	12315
925.602	12509
925.709	12429
925.816	12346
925.924	12266
926.031	12384
926.138	12315
926.245	12422
926.352	12289
926.459	12506
926.566	12422
926.673	12365
926.779	12129
926.886	12175
926.993	11996
927.099	11908
927.206	11958
927.312	11946
927.419	12026
927.525	11984
927.631	11969
927.737	11866
927.843	11741
927.95	11733
928.056	11802
928.162	11817
928.267	11920
928.373	12399
928.479	11901
928.585	11589
928.69	11745
928.796	11748
928.901	11649
929.007	11509
929.112	11649
929.218	11608
929.323	11535
929.428	11600
929.533	11657
929.638	11387
929.743	11528
929.848	11516
929.953	11444
930.058	11429
930.163	11212
930.267	11227
930.372	11421
930.477	11143
930.581	11379
930.685	11280
930.79	11064
930.894	11170
930.998	11121
931.103	11178
931.207	10805
931.311	10831
931.415	10702
931.519	10421
931.623	10516
