Data from test_V78500241_1512.txt Node
Date: Fri Mar 25 15:52:16 CST 2022
User: usil
Spectrometer: V785-0024
Trigger mode: 0
Integration Time (sec): 4.000000E-1
Scans to average: 1
Nonlinearity correction enabled: false
Boxcar width: 0
Storing dark spectrum: false
XAxis mode: Wavelengths
Number of Pixels in Spectrum: 1024
>>>>>Begin Spectral Data<<<<<
801.071	28158
801.214	28051
801.356	27907
801.499	27884
801.641	27762
801.783	27747
801.926	27800
802.068	27842
802.211	27625
802.353	27553
802.496	27427
802.638	27340
802.78	27351
802.923	27306
803.065	27287
803.208	27420
803.35	27393
803.492	27542
803.635	27572
803.777	27511
803.919	27561
804.061	27987
804.204	27679
804.346	27523
804.488	27431
804.63	27595
804.773	27587
804.915	27641
805.057	27846
805.199	27599
805.341	27926
805.483	27774
805.626	27762
805.768	27732
805.91	27785
806.052	27838
806.194	27644
806.336	27956
806.478	27800
806.62	27739
806.762	27861
806.904	28044
807.046	28265
807.188	28166
807.33	28131
807.472	28253
807.614	28082
807.756	28280
807.898	28010
808.04	28002
808.182	28040
808.324	28188
808.465	28105
808.607	28325
808.749	28451
808.891	28497
809.033	28462
809.174	28542
809.316	28474
809.458	28508
809.6	28394
809.741	28455
809.883	28645
810.025	28797
810.166	28736
810.308	28733
810.45	28599
810.591	28641
810.733	28500
810.875	28348
811.016	28329
811.158	28306
811.299	28447
811.441	28653
811.582	28634
811.724	28360
811.865	28356
812.007	28314
812.148	28409
812.29	28424
812.431	28717
812.573	28687
812.714	28915
812.855	28938
812.997	29025
813.138	29223
813.279	29204
813.421	28934
813.562	29014
813.703	28843
813.845	28706
813.986	28424
814.127	28169
814.268	28109
814.41	28185
814.551	28006
814.692	28234
814.833	28090
814.974	28090
815.115	28234
815.256	27972
815.397	28032
815.539	28002
815.68	27918
815.821	27873
815.962	27937
816.103	27941
816.244	27819
816.385	27633
816.526	27743
816.666	27515
816.807	27530
816.948	27443
817.089	27481
817.23	27519
817.371	27416
817.512	27291
817.653	27408
817.793	27370
817.934	27412
818.075	27469
818.216	27408
818.356	27420
818.497	27287
818.638	27077
818.778	27237
818.919	27180
819.06	27374
819.2	27279
819.341	27370
819.481	27450
819.622	27618
819.762	27583
819.903	27717
820.043	27595
820.184	27644
820.324	27515
820.465	27618
820.605	27705
820.746	27519
820.886	27378
821.026	27568
821.167	27462
821.307	27485
821.447	27504
821.588	27458
821.728	27173
821.868	27138
822.008	26990
822.149	26804
822.289	26944
822.429	26648
822.569	26655
822.709	26670
822.849	26309
822.99	26427
823.13	26355
823.27	26332
823.41	26176
823.55	26157
823.69	26267
823.83	26168
823.97	26199
824.11	26016
824.25	26027
824.389	25997
824.529	26096
824.669	26077
824.809	25974
824.949	26263
825.089	26115
825.228	25963
825.368	25970
825.508	25966
825.648	26069
825.787	26016
825.927	25966
826.067	25871
826.206	25871
826.346	25947
826.485	25879
826.625	25951
826.765	26111
826.904	26024
827.044	25559
827.183	25731
827.323	25632
827.462	25746
827.601	25639
827.741	25578
827.88	25582
828.02	25430
828.159	25518
828.298	25582
828.437	25635
828.577	25662
828.716	25563
828.855	25502
828.994	25400
829.134	25354
829.273	25449
829.412	25274
829.551	25217
829.69	25225
829.829	25339
829.968	25426
830.107	25415
830.246	25365
830.385	25312
830.524	25213
830.663	25118
830.802	25042
830.941	24909
831.08	24840
831.219	25046
831.357	25103
831.496	25103
831.635	25023
831.774	24837
831.913	24844
832.051	24700
832.19	24707
832.329	24814
832.467	24772
832.606	24559
832.744	24547
832.883	24578
833.022	24582
833.16	24540
833.299	24593
833.437	24707
833.576	24722
833.714	24768
833.852	24661
833.991	24859
834.129	24768
834.267	24798
834.406	24681
834.544	24635
834.682	24650
834.821	24658
834.959	24791
835.097	24528
835.235	24681
835.373	24627
835.511	24661
835.65	24631
835.788	24509
835.926	24422
836.064	24369
836.202	24353
836.34	24448
836.478	24589
836.615	24479
836.753	24597
836.891	24536
837.029	24441
837.167	24456
837.305	24452
837.443	24319
837.58	24388
837.718	24319
837.856	24315
837.993	24292
838.131	24376
838.269	24163
838.406	24289
838.544	24182
838.681	23996
838.819	24011
838.956	23847
839.094	23718
839.231	23866
839.369	23980
839.506	24060
839.643	24095
839.781	23802
839.918	23718
840.055	23851
840.193	23748
840.33	23798
840.467	23897
840.604	23756
840.742	24098
840.879	23668
841.016	23665
841.153	23512
841.29	23893
841.427	23642
841.564	23882
841.701	23684
841.838	23805
841.975	23577
842.112	23630
842.249	23630
842.385	23402
842.522	23668
842.659	23562
842.796	23486
842.933	23585
843.069	23406
843.206	23410
843.343	23474
843.479	23425
843.616	23493
843.752	23261
843.889	23280
844.025	23258
844.162	23151
844.298	23299
844.435	23296
844.571	23227
844.708	23334
844.844	23402
844.98	23326
845.117	23330
845.253	23113
845.389	23060
845.525	23208
845.661	22976
845.798	23056
845.934	22999
846.07	22938
846.206	23003
846.342	23018
846.478	22949
846.614	22683
846.75	22603
846.886	22637
847.022	22816
847.158	22713
847.294	22698
847.429	22744
847.565	22607
847.701	22984
847.837	22432
847.972	22409
848.108	22474
848.244	22424
848.379	22367
848.515	22344
848.65	22200
848.786	22246
848.921	22284
849.057	22485
849.192	22493
849.328	22303
849.463	22348
849.598	22268
849.734	22177
849.869	22162
850.004	22013
850.14	22093
850.275	22002
850.41	21915
850.545	22010
850.68	21975
850.815	22036
850.95	22128
851.085	22196
851.22	22234
851.355	22029
851.49	22063
851.625	21994
851.76	21956
851.895	21884
852.03	21983
852.165	22048
852.299	22090
852.434	22166
852.569	22200
852.703	22082
852.838	22063
852.973	22249
853.107	22204
853.242	22074
853.376	21915
853.511	21800
853.645	21743
853.78	22017
853.914	21869
854.048	21911
854.183	21937
854.317	21842
854.451	22207
854.585	21915
854.72	21930
854.854	22036
854.988	21770
855.122	21941
855.256	21804
855.39	21789
855.524	22051
855.658	21895
855.792	21838
855.926	22002
856.06	21937
856.194	21895
856.327	21930
856.461	21903
856.595	21827
856.729	21888
856.862	22002
856.996	21915
857.13	21972
857.263	21922
857.397	22059
857.53	21899
857.664	21892
857.797	21964
857.931	21930
858.064	21903
858.197	21930
858.331	21880
858.464	21888
858.597	21793
858.731	21873
858.864	21823
858.997	21797
859.13	21987
859.263	21857
859.396	22097
859.529	21888
859.662	21892
859.795	21793
859.928	21930
860.061	22093
860.194	22211
860.327	21964
860.46	21884
860.592	22059
860.725	22017
860.858	21953
860.99	21907
861.123	21732
861.256	21949
861.388	21918
861.521	22451
861.653	21873
861.786	21667
861.918	21774
862.05	21819
862.183	21736
862.315	21736
862.447	21876
862.58	21774
862.712	21561
862.844	21557
862.976	21728
863.108	21713
863.24	22025
863.372	21561
863.504	21641
863.636	21572
863.768	21606
863.9	21564
864.032	21485
864.164	21610
864.296	21682
864.428	21641
864.559	21637
864.691	21682
864.823	21523
864.954	21564
865.086	21576
865.217	21561
865.349	21462
865.48	21576
865.612	21386
865.743	21595
865.875	21481
866.006	21526
866.137	21469
866.269	21545
866.4	21424
866.531	21416
866.662	21306
866.793	21488
866.924	21397
867.055	21462
867.186	21416
867.317	21382
867.448	21275
867.579	21481
867.71	21237
867.841	21310
867.972	21370
868.103	21344
868.233	21351
868.364	21477
868.495	21580
868.625	21648
868.756	21641
868.886	21553
869.017	21720
869.147	21789
869.278	21865
869.408	21709
869.539	21633
869.669	21622
869.799	21751
869.929	21823
870.06	21865
870.19	21838
870.32	21903
870.45	21975
870.58	22120
870.71	22128
870.84	22128
870.97	22143
871.1	22002
871.23	22272
871.36	22249
871.489	22128
871.619	22253
871.749	22249
871.879	22238
872.008	22306
872.138	22348
872.267	22306
872.397	22055
872.526	22207
872.656	22010
872.785	22116
872.915	22276
873.044	22291
873.173	22200
873.303	22333
873.432	22348
873.561	22322
873.69	22394
873.819	22211
873.948	22337
874.077	22238
874.206	22257
874.335	22223
874.464	22424
874.593	22428
874.722	22428
874.851	22622
874.979	22508
875.108	22691
875.237	22459
875.365	22405
875.494	22542
875.623	22580
875.751	22417
875.88	22455
876.008	22561
876.136	22675
876.265	22889
876.393	22885
876.521	23014
876.65	22854
876.778	22873
876.906	22850
877.034	22790
877.162	22843
877.29	22812
877.418	22869
877.546	22873
877.674	22793
877.802	22839
877.93	22877
878.058	22809
878.185	22755
878.313	22809
878.441	22793
878.568	22664
878.696	22740
878.824	22862
878.951	22911
879.079	22972
879.206	23105
879.333	22938
879.461	22919
879.588	22942
879.715	23022
879.842	23014
879.97	22934
880.097	22679
880.224	22630
880.351	22557
880.478	22713
880.605	22615
880.732	22656
880.859	22793
880.986	22771
881.112	22698
881.239	22455
881.366	22417
881.493	22318
881.619	22276
881.746	22207
881.872	22185
881.999	22131
882.125	22246
882.252	22238
882.378	22295
882.505	22360
882.631	22078
882.757	21960
882.883	21960
883.01	22055
883.136	21831
883.262	21781
883.388	21739
883.514	21861
883.64	21876
883.766	21778
883.892	21679
884.018	21762
884.143	21880
884.269	21895
884.395	21762
884.52	21580
884.646	21496
884.772	21450
884.897	21363
885.023	21595
885.148	21690
885.274	21717
885.399	21663
885.524	21580
885.65	21587
885.775	21603
885.9	21557
886.025	21709
886.15	21603
886.275	21462
886.4	21477
886.525	21496
886.65	21393
886.775	21393
886.9	21618
887.025	21816
887.149	21561
887.274	21272
887.399	21230
887.523	21355
887.648	21294
887.773	21233
887.897	21310
888.021	21386
888.146	21302
888.27	21378
888.395	21469
888.519	21370
888.643	21233
888.767	21389
888.891	21165
889.015	21081
889.139	21226
889.263	21089
889.387	21260
889.511	21355
889.635	21233
889.759	21081
889.883	20990
890.006	21173
890.13	21260
890.254	21077
890.377	21005
890.501	20925
890.624	20804
890.748	20895
890.871	20746
890.995	20720
891.118	20693
891.241	20807
891.364	20678
891.488	20682
891.611	20648
891.734	20689
891.857	20750
891.98	20739
892.103	20682
892.226	20697
892.349	20568
892.471	20457
892.594	20511
892.717	20617
892.839	20552
892.962	20625
893.085	20705
893.207	20629
893.33	20492
893.452	20484
893.575	20552
893.697	20632
893.819	20625
893.941	20682
894.064	20807
894.186	20571
894.308	20495
894.43	20621
894.552	20663
894.674	20636
894.796	20480
894.918	20377
895.04	20590
895.161	20670
895.283	20655
895.405	20526
895.526	20457
895.648	20469
895.769	20625
895.891	20560
896.012	20705
896.134	20648
896.255	20606
896.376	20583
896.498	20556
896.619	20644
896.74	20621
896.861	20587
896.982	20929
897.103	21020
897.224	20811
897.345	20754
897.466	20701
897.587	20762
897.708	20845
897.828	20853
897.949	20739
898.07	20659
898.19	20743
898.311	20918
898.431	20750
898.552	20743
898.672	20956
898.792	20743
898.913	20743
899.033	20735
899.153	20571
899.273	20545
899.393	20503
899.513	20442
899.633	20606
899.753	20431
899.873	20545
899.993	20522
900.113	20377
900.232	20495
900.352	20393
900.472	20248
900.591	20336
900.711	20400
900.83	20385
900.95	20457
901.069	20423
901.189	20282
901.308	19898
901.427	19765
901.546	19811
901.665	19784
901.784	19849
901.904	19738
902.023	19662
902.141	19434
902.26	19426
902.379	19441
902.498	19460
902.617	19244
902.735	19434
902.854	19270
902.973	19346
903.091	19069
903.21	19118
903.328	19046
903.446	18928
903.565	18852
903.683	18886
903.801	18749
903.919	18745
904.038	18810
904.156	18574
904.274	18642
904.392	18532
904.51	18604
904.627	18589
904.745	18627
904.863	18532
904.981	18372
905.098	18258
905.216	18281
905.334	18357
905.451	18281
905.569	18254
905.686	18216
905.803	18224
905.921	18072
906.038	18155
906.155	18133
906.272	18011
906.389	17870
906.506	17817
906.623	17775
906.74	17798
906.857	17722
906.974	17687
907.091	17969
907.208	17813
907.324	17809
907.441	17733
907.557	17585
907.674	17535
907.79	17474
907.907	17493
908.023	17558
908.139	17577
908.256	17402
908.372	17444
908.488	17364
908.604	17364
908.72	17170
908.836	17220
908.952	17227
909.068	17250
909.184	17395
909.3	17239
909.415	17242
909.531	17140
909.647	16946
909.762	16995
909.878	16896
909.993	16938
910.108	16915
910.224	16987
910.339	16816
910.454	16816
910.57	16816
910.685	16630
910.8	16824
910.915	16900
911.03	16637
911.145	16664
911.259	16394
911.374	16653
911.489	16493
911.604	16504
911.718	16272
911.833	16120
911.947	16204
912.062	16131
912.176	16363
912.291	16230
912.405	16253
912.519	16558
912.633	16409
912.748	16276
912.862	16154
912.976	16093
913.09	15899
913.204	15922
913.318	15934
913.431	16154
913.545	16131
913.659	16105
913.772	16036
913.886	15808
914	15884
914.113	15812
914.226	15983
914.34	15960
914.453	15694
914.566	15888
914.68	15800
914.793	15736
914.906	15561
915.019	15420
915.132	15428
915.245	15458
915.358	15416
915.47	15367
915.583	15523
915.696	15504
915.809	15568
915.921	15603
916.034	15321
916.146	15447
916.259	15363
916.371	15500
916.483	15329
916.595	15272
916.708	15310
916.82	15367
916.932	15249
917.044	15218
917.156	15138
917.268	15100
917.38	15150
917.491	15127
917.603	15207
917.715	15165
917.826	15203
917.938	14868
918.049	14944
918.161	14986
918.272	15081
918.384	15207
918.495	15020
918.606	14902
918.717	14910
918.828	14849
918.939	14872
919.05	14849
919.161	14838
919.272	14674
919.383	14762
919.494	14891
919.604	15017
919.715	14796
919.826	14762
919.936	14800
920.047	14861
920.157	14918
920.267	14963
920.378	14716
920.488	14746
920.598	14967
920.708	15055
920.818	14899
920.928	15039
921.038	15058
921.148	15112
921.258	14819
921.368	14701
921.477	14476
921.587	14625
921.697	14343
921.806	14552
921.916	14381
922.025	14248
922.134	14301
922.244	14123
922.353	14206
922.462	14012
922.571	14039
922.68	13917
922.789	13746
922.898	13940
923.007	13750
923.116	13864
923.224	13849
923.333	13811
923.442	13712
923.55	13601
923.659	13628
923.767	13681
923.876	13616
923.984	13704
924.092	13559
924.201	13651
924.309	13529
924.417	13422
924.525	13521
924.633	13499
924.741	14431
924.849	13236
924.956	13343
925.064	13270
925.172	13244
925.279	13213
925.387	13282
925.494	13194
925.602	13350
925.709	13213
925.816	13099
925.924	13259
926.031	13335
926.138	13175
926.245	13156
926.352	13031
926.459	13126
926.566	13228
926.673	13034
926.779	13034
926.886	12973
926.993	12878
927.099	12882
927.206	12738
927.312	12711
927.419	12802
927.525	12772
927.631	12677
927.737	12673
927.843	12726
927.95	12589
928.056	12544
928.162	12646
928.267	12616
928.373	13308
928.479	12722
928.585	12441
928.69	12566
928.796	12582
928.901	12414
929.007	12365
929.112	12475
929.218	12376
929.323	12319
929.428	12296
929.533	12380
929.638	12266
929.743	12186
929.848	12296
929.953	12311
930.058	11996
930.163	11920
930.267	11840
930.372	12095
930.477	11984
930.581	12201
930.685	12011
930.79	11882
930.894	11889
930.998	11908
931.103	12003
931.207	11520
931.311	11516
931.415	11490
931.519	11235
931.623	11201
