Data from test_V78500241_1280.txt Node
Date: Fri Mar 25 15:50:40 CST 2022
User: usil
Spectrometer: V785-0024
Trigger mode: 0
Integration Time (sec): 4.000000E-1
Scans to average: 1
Nonlinearity correction enabled: false
Boxcar width: 0
Storing dark spectrum: false
XAxis mode: Wavelengths
Number of Pixels in Spectrum: 1024
>>>>>Begin Spectral Data<<<<<
801.071	28215
801.214	28200
801.356	27903
801.499	27800
801.641	27743
801.783	27701
801.926	27778
802.068	27808
802.211	27648
802.353	27572
802.496	27397
802.638	27416
802.78	27431
802.923	27340
803.065	27252
803.208	27317
803.35	27230
803.492	27686
803.635	27603
803.777	27500
803.919	27686
804.061	27949
804.204	27614
804.346	27492
804.488	27405
804.63	27564
804.773	27386
804.915	27538
805.057	27660
805.199	27583
805.341	27686
805.483	27922
805.626	27682
805.768	27637
805.91	27648
806.052	27641
806.194	27705
806.336	28029
806.478	27694
806.62	27827
806.762	27956
806.904	28029
807.046	28306
807.188	28143
807.33	28093
807.472	28200
807.614	27960
807.756	28200
807.898	28063
808.04	27812
808.182	27888
808.324	28013
808.465	28036
808.607	28200
808.749	28409
808.891	28455
809.033	28462
809.174	28459
809.316	28249
809.458	28394
809.6	28352
809.741	28398
809.883	28455
810.025	28805
810.166	28698
810.308	28778
810.45	28630
810.591	28611
810.733	28413
810.875	28360
811.016	28268
811.158	28280
811.299	28333
811.441	28596
811.582	28561
811.724	28554
811.865	28459
812.007	28386
812.148	28394
812.29	28413
812.431	28592
812.573	28710
812.714	28717
812.855	28854
812.997	28934
813.138	29041
813.279	29067
813.421	28847
813.562	28942
813.703	28691
813.845	28622
813.986	28367
814.127	28211
814.268	28204
814.41	28242
814.551	28002
814.692	28169
814.833	27972
814.974	28086
815.115	28105
815.256	27873
815.397	27907
815.539	28029
815.68	27835
815.821	27873
815.962	27964
816.103	27865
816.244	27739
816.385	27591
816.526	27724
816.666	27542
816.807	27382
816.948	27447
817.089	27557
817.23	27374
817.371	27370
817.512	27367
817.653	27420
817.793	27260
817.934	27515
818.075	27427
818.216	27298
818.356	27279
818.497	27237
818.638	27104
818.778	27222
818.919	27150
819.06	27176
819.2	27188
819.341	27294
819.481	27420
819.622	27504
819.762	27705
819.903	27511
820.043	27511
820.184	27557
820.324	27549
820.465	27538
820.605	27389
820.746	27458
820.886	27325
821.026	27439
821.167	27443
821.307	27526
821.447	27424
821.588	27256
821.728	27233
821.868	27188
822.008	26781
822.149	27013
822.289	26872
822.429	26613
822.569	26598
822.709	26712
822.849	26366
822.99	26282
823.13	26267
823.27	26324
823.41	26320
823.55	26115
823.69	26305
823.83	26153
823.97	26225
824.11	25906
824.25	26016
824.389	25970
824.529	26035
824.669	26069
824.809	26180
824.949	26111
825.089	26149
825.228	26077
825.368	25879
825.508	25883
825.648	25982
825.787	25902
825.927	25974
826.067	25772
826.206	25791
826.346	25913
826.485	25902
826.625	25780
826.765	25921
826.904	25883
827.044	25544
827.183	25628
827.323	25586
827.462	25704
827.601	25578
827.741	25483
827.88	25605
828.02	25438
828.159	25502
828.298	25635
828.437	25666
828.577	25510
828.716	25628
828.855	25514
828.994	25407
829.134	25381
829.273	25559
829.412	25244
829.551	25232
829.69	25274
829.829	25228
829.968	25392
830.107	25346
830.246	25244
830.385	25289
830.524	25183
830.663	25107
830.802	24837
830.941	24947
831.08	24840
831.219	25004
831.357	25015
831.496	25061
831.635	24916
831.774	24719
831.913	24749
832.051	24757
832.19	24627
832.329	24646
832.467	24658
832.606	24498
832.744	24502
832.883	24612
833.022	24532
833.16	24544
833.299	24612
833.437	24559
833.576	24627
833.714	24631
833.852	24795
833.991	24631
834.129	24593
834.267	24722
834.406	24741
834.544	24802
834.682	24547
834.821	24585
834.959	24738
835.097	24551
835.235	24730
835.373	24623
835.511	24711
835.65	24391
835.788	24471
835.926	24304
836.064	24334
836.202	24327
836.34	24437
836.478	24578
836.615	24429
836.753	24429
836.891	24532
837.029	24559
837.167	24410
837.305	24346
837.443	24315
837.58	24136
837.718	24346
837.856	24300
837.993	24190
838.131	24369
838.269	24205
838.406	24205
838.544	24045
838.681	23916
838.819	23805
838.956	23809
839.094	23748
839.231	23707
839.369	23851
839.506	24220
839.643	24026
839.781	23714
839.918	23745
840.055	23722
840.193	23855
840.33	23589
840.467	23714
840.604	23722
840.742	23828
840.879	23592
841.016	23634
841.153	23619
841.29	23882
841.427	23592
841.564	23729
841.701	23680
841.838	23684
841.975	23463
842.112	23528
842.249	23539
842.385	23433
842.522	23604
842.659	23577
842.796	23368
842.933	23395
843.069	23299
843.206	23414
843.343	23429
843.479	23558
843.616	23471
843.752	23200
843.889	23208
844.025	23383
844.162	23121
844.298	23265
844.435	23212
844.571	23147
844.708	23197
844.844	23436
844.98	23288
845.117	23334
845.253	23075
845.389	23098
845.525	23098
845.661	23075
845.798	23048
845.934	22930
846.07	22877
846.206	22946
846.342	23044
846.478	22927
846.614	22675
846.75	22500
846.886	22626
847.022	22710
847.158	22694
847.294	22599
847.429	22736
847.565	22622
847.701	22805
847.837	22394
847.972	22390
848.108	22462
848.244	22443
848.379	22253
848.515	22188
848.65	22253
848.786	22177
848.921	22318
849.057	22249
849.192	22280
849.328	22314
849.463	22154
849.598	22215
849.734	22139
849.869	22139
850.004	22040
850.14	22128
850.275	22059
850.41	22032
850.545	21876
850.68	21968
850.815	22021
850.95	22021
851.085	22135
851.22	22177
851.355	22006
851.49	21930
851.625	22055
851.76	21926
851.895	22025
852.03	21922
852.165	22070
852.299	22048
852.434	22055
852.569	22013
852.703	21968
852.838	22090
852.973	22010
853.107	22059
853.242	21895
853.376	21865
853.511	21633
853.645	21831
853.78	21941
853.914	21880
854.048	21835
854.183	21804
854.317	21892
854.451	22082
854.585	21720
854.72	21861
854.854	21835
854.988	21660
855.122	21747
855.256	21660
855.39	21762
855.524	21804
855.658	21949
855.792	21854
855.926	21808
856.06	21964
856.194	21816
856.327	21759
856.461	21656
856.595	21770
856.729	21694
856.862	21869
856.996	21804
857.13	21911
857.263	22002
857.397	21930
857.53	21873
857.664	21956
857.797	21797
857.931	21873
858.064	21766
858.197	21930
858.331	21793
858.464	21667
858.597	21720
858.731	21915
858.864	21747
858.997	21720
859.13	21934
859.263	21842
859.396	21895
859.529	21739
859.662	21701
859.795	21679
859.928	21785
860.061	21846
860.194	22074
860.327	21831
860.46	21934
860.592	21968
860.725	22002
860.858	21926
860.99	21975
861.123	21812
861.256	21793
861.388	21739
861.521	22470
861.653	21732
861.786	21610
861.918	21553
862.05	21804
862.183	21778
862.315	21698
862.447	21694
862.58	21819
862.712	21572
862.844	21492
862.976	21564
863.108	21622
863.24	21949
863.372	21401
863.504	21568
863.636	21561
863.768	21610
863.9	21424
864.032	21393
864.164	21447
864.296	21557
864.428	21667
864.559	21614
864.691	21614
864.823	21530
864.954	21477
865.086	21545
865.217	21348
865.349	21294
865.48	21420
865.612	21382
865.743	21610
865.875	21447
866.006	21359
866.137	21534
866.269	21412
866.4	21329
866.531	21389
866.662	21374
866.793	21329
866.924	21287
867.055	21321
867.186	21374
867.317	21393
867.448	21077
867.579	21363
867.71	21298
867.841	21348
867.972	21370
868.103	21370
868.233	21313
868.364	21321
868.495	21382
868.625	21523
868.756	21690
868.886	21553
869.017	21572
869.147	21644
869.278	21732
869.408	21542
869.539	21553
869.669	21701
869.799	21663
869.929	21606
870.06	21759
870.19	21972
870.32	21911
870.45	21945
870.58	21945
870.71	22131
870.84	22086
870.97	21930
871.1	21930
871.23	22078
871.36	22112
871.489	22040
871.619	22097
871.749	22230
871.879	22166
872.008	22257
872.138	22196
872.267	22314
872.397	21964
872.526	22017
872.656	21987
872.785	22021
872.915	22215
873.044	22318
873.173	22337
873.303	22185
873.432	22200
873.561	22432
873.69	22253
873.819	22219
873.948	22128
874.077	22185
874.206	22162
874.335	22367
874.464	22219
874.593	22405
874.722	22314
874.851	22436
874.979	22500
875.108	22413
875.237	22379
875.365	22257
875.494	22424
875.623	22367
875.751	22337
875.88	22413
876.008	22493
876.136	22607
876.265	22759
876.393	22805
876.521	22919
876.65	22858
876.778	22869
876.906	22771
877.034	22683
877.162	22763
877.29	22675
877.418	22835
877.546	22812
877.674	22607
877.802	22733
877.93	22725
878.058	22580
878.185	22554
878.313	22687
878.441	22687
878.568	22615
878.696	22706
878.824	22679
878.951	22949
879.079	22953
879.206	23010
879.333	22900
879.461	22828
879.588	22831
879.715	22919
879.842	23037
879.97	22759
880.097	22557
880.224	22584
880.351	22611
880.478	22717
880.605	22531
880.732	22565
880.859	22687
880.986	22554
881.112	22569
881.239	22341
881.366	22303
881.493	22196
881.619	22101
881.746	22207
881.872	22192
881.999	22185
882.125	22097
882.252	22200
882.378	22162
882.505	22234
882.631	22051
882.757	21857
882.883	21762
883.01	21892
883.136	21854
883.262	21637
883.388	21614
883.514	21835
883.64	21876
883.766	21663
883.892	21644
884.018	21724
884.143	21759
884.269	21819
884.395	21583
884.52	21542
884.646	21458
884.772	21344
884.897	21428
885.023	21526
885.148	21568
885.274	21599
885.399	21530
885.524	21515
885.65	21447
885.775	21447
885.9	21458
886.025	21523
886.15	21542
886.275	21336
886.4	21340
886.525	21447
886.65	21412
886.775	21386
886.9	21481
887.025	21709
887.149	21447
887.274	21222
887.399	21294
887.523	21207
887.648	21241
887.773	21123
887.897	21302
888.021	21313
888.146	21211
888.27	21302
888.395	21329
888.519	21188
888.643	21340
888.767	21355
888.891	21146
889.015	21024
889.139	21051
889.263	21070
889.387	21214
889.511	21249
889.635	21161
889.759	20921
889.883	21020
890.006	21028
890.13	21119
890.254	20914
890.377	20925
890.501	20781
890.624	20640
890.748	20750
890.871	20606
890.995	20587
891.118	20541
891.241	20556
891.364	20606
891.488	20743
891.611	20552
891.734	20609
891.857	20594
891.98	20552
892.103	20560
892.226	20640
892.349	20450
892.471	20412
892.594	20507
892.717	20476
892.839	20530
892.962	20476
893.085	20511
893.207	20537
893.33	20461
893.452	20400
893.575	20427
893.697	20461
893.819	20655
893.941	20587
894.064	20644
894.186	20446
894.308	20393
894.43	20571
894.552	20648
894.674	20594
894.796	20518
894.918	20419
895.04	20522
895.161	20537
895.283	20503
895.405	20465
895.526	20568
895.648	20381
895.769	20484
895.891	20583
896.012	20518
896.134	20518
896.255	20404
896.376	20385
896.498	20404
896.619	20511
896.74	20427
896.861	20659
896.982	20788
897.103	20952
897.224	20739
897.345	20815
897.466	20579
897.587	20796
897.708	20701
897.828	20697
897.949	20693
898.07	20533
898.19	20632
898.311	20792
898.431	20724
898.552	20701
898.672	20807
898.792	20762
898.913	20667
899.033	20526
899.153	20503
899.273	20351
899.393	20393
899.513	20434
899.633	20495
899.753	20438
899.873	20438
899.993	20408
900.113	20385
900.232	20434
900.352	20476
900.472	20267
900.591	20183
900.711	20225
900.83	20145
900.95	20214
901.069	20339
901.189	20111
901.308	19917
901.427	19689
901.546	19837
901.665	19890
901.784	19932
901.904	19715
902.023	19468
902.141	19434
902.26	19339
902.379	19331
902.498	19392
902.617	19285
902.735	19350
902.854	19259
902.973	19209
903.091	19061
903.21	18985
903.328	19008
903.446	18947
903.565	18817
903.683	18738
903.801	18677
903.919	18741
904.038	18642
904.156	18551
904.274	18673
904.392	18490
904.51	18635
904.627	18483
904.745	18635
904.863	18635
904.981	18338
905.098	18190
905.216	18083
905.334	18266
905.451	18190
905.569	18171
905.686	18224
905.803	18213
905.921	18034
906.038	18095
906.155	17965
906.272	17912
906.389	17885
906.506	17634
906.623	17714
906.74	17699
906.857	17668
906.974	17592
907.091	17741
907.208	17805
907.324	17805
907.441	17653
907.557	17608
907.674	17421
907.79	17425
907.907	17448
908.023	17474
908.139	17425
908.256	17322
908.372	17402
908.488	17280
908.604	17254
908.72	17143
908.836	17174
908.952	17067
909.068	17197
909.184	17216
909.3	17147
909.415	17170
909.531	17208
909.647	16881
909.762	16911
909.878	16843
909.993	16847
910.108	16873
910.224	16820
910.339	16824
910.454	16706
910.57	16694
910.685	16554
910.8	16873
910.915	16854
911.03	16615
911.145	16367
911.259	16481
911.374	16402
911.489	16367
911.604	16280
911.718	16291
911.833	16272
911.947	16124
912.062	16078
912.176	16223
912.291	16238
912.405	16166
912.519	16314
912.633	16402
912.748	16185
912.862	16143
912.976	16101
913.09	15926
913.204	15884
913.318	15975
913.431	16048
913.545	16074
913.659	16128
913.772	15880
913.886	15854
914	15724
914.113	15895
914.226	15930
914.34	15747
914.453	15717
914.566	15827
914.68	15644
914.793	15682
914.906	15424
915.019	15378
915.132	15374
915.245	15363
915.358	15469
915.47	15370
915.583	15420
915.696	15382
915.809	15519
915.921	15504
916.034	15412
916.146	15302
916.259	15249
916.371	15363
916.483	15287
916.595	15199
916.708	15348
916.82	15055
916.932	15287
917.044	15245
917.156	15157
917.268	15074
917.38	15081
917.491	14948
917.603	15081
917.715	15142
917.826	15097
917.938	15005
918.049	14921
918.161	15032
918.272	15180
918.384	15066
918.495	14990
918.606	14769
918.717	14754
918.828	14853
918.939	14906
919.05	14693
919.161	14670
919.272	14556
919.383	14724
919.494	14697
919.604	15001
919.715	14788
919.826	14686
919.936	14762
920.047	14777
920.157	14777
920.267	14921
920.378	14735
920.488	14705
920.598	14921
920.708	15020
920.818	14876
920.928	14929
921.038	15024
921.148	15047
921.258	14724
921.368	14526
921.477	14503
921.587	14427
921.697	14305
921.806	14590
921.916	14301
922.025	14248
922.134	14069
922.244	14176
922.353	14092
922.462	13993
922.571	13906
922.68	13822
922.789	13734
922.898	13803
923.007	13769
923.116	13898
923.224	13807
923.333	13689
923.442	13643
923.55	13529
923.659	13666
923.767	13647
923.876	13453
923.984	13533
924.092	13529
924.201	13544
924.309	13434
924.417	13521
924.525	13388
924.633	13468
924.741	14282
924.849	13247
924.956	13308
925.064	13107
925.172	13164
925.279	13225
925.387	13183
925.494	13091
925.602	13327
925.709	13244
925.816	13019
925.924	13118
926.031	13118
926.138	13171
926.245	13156
926.352	13084
926.459	13152
926.566	13149
926.673	12977
926.779	12996
926.886	12951
926.993	12817
927.099	12684
927.206	12768
927.312	12726
927.419	12791
927.525	12650
927.631	12749
927.737	12711
927.843	12593
927.95	12410
928.056	12547
928.162	12498
928.267	12559
928.373	13053
928.479	12574
928.585	12407
928.69	12464
928.796	12525
928.901	12429
929.007	12296
929.112	12372
929.218	12353
929.323	12266
929.428	12239
929.533	12403
929.638	12220
929.743	12152
929.848	12182
929.953	12213
930.058	12079
930.163	11954
930.267	12007
930.372	12083
930.477	11882
930.581	12129
930.685	12045
930.79	11863
930.894	11863
930.998	11824
931.103	11927
931.207	11520
931.311	11573
931.415	11444
931.519	11166
931.623	11223
