Data from test_V78500241_3204.txt Node
Date: Fri Mar 25 16:03:59 CST 2022
User: usil
Spectrometer: V785-0024
Trigger mode: 0
Integration Time (sec): 4.000000E-1
Scans to average: 1
Nonlinearity correction enabled: false
Boxcar width: 0
Storing dark spectrum: false
XAxis mode: Wavelengths
Number of Pixels in Spectrum: 1024
>>>>>Begin Spectral Data<<<<<
801.071	28668
801.214	28535
801.356	28192
801.499	28344
801.641	28120
801.783	28109
801.926	28147
802.068	28105
802.211	28112
802.353	28059
802.496	27907
802.638	27888
802.78	27816
802.923	27747
803.065	27793
803.208	27644
803.35	27850
803.492	27895
803.635	27934
803.777	27911
803.919	27994
804.061	28424
804.204	28131
804.346	27956
804.488	27968
804.63	27922
804.773	27899
804.915	28036
805.057	28265
805.199	28036
805.341	28173
805.483	28204
805.626	28162
805.768	28135
805.91	28261
806.052	28181
806.194	28143
806.336	28455
806.478	28242
806.62	28143
806.762	28284
806.904	28538
807.046	28733
807.188	28725
807.33	28634
807.472	28660
807.614	28637
807.756	28679
807.898	28443
808.04	28272
808.182	28417
808.324	28675
808.465	28592
808.607	28866
808.749	28923
808.891	28991
809.033	29109
809.174	28820
809.316	28828
809.458	28957
809.6	28957
809.741	28888
809.883	29079
810.025	29246
810.166	29143
810.308	29200
810.45	29200
810.591	29041
810.733	28869
810.875	28873
811.016	28877
811.158	28847
811.299	29064
811.441	29208
811.582	29018
811.724	29003
811.865	28835
812.007	28759
812.148	29014
812.29	28965
812.431	29056
812.573	29337
812.714	29356
812.855	29535
812.997	29600
813.138	29657
813.279	29596
813.421	29368
813.562	29402
813.703	29140
813.845	29041
813.986	29025
814.127	28839
814.268	28740
814.41	28679
814.551	28592
814.692	28774
814.833	28478
814.974	28519
815.115	28592
815.256	28436
815.397	28455
815.539	28538
815.68	28478
815.821	28447
815.962	28531
816.103	28424
816.244	28238
816.385	28246
816.526	28162
816.666	28044
816.807	27789
816.948	28002
817.089	28238
817.23	28055
817.371	27941
817.512	27960
817.653	28192
817.793	27770
817.934	28013
818.075	27850
818.216	27979
818.356	27827
818.497	27713
818.638	27770
818.778	27720
818.919	27713
819.06	27682
819.2	27895
819.341	27880
819.481	27930
819.622	27956
819.762	28200
819.903	28147
820.043	28147
820.184	28055
820.324	28051
820.465	28207
820.605	27972
820.746	27934
820.886	27937
821.026	28059
821.167	28059
821.307	28131
821.447	27888
821.588	27873
821.728	27808
821.868	27568
822.008	27416
822.149	27355
822.289	27370
822.429	27154
822.569	27123
822.709	27199
822.849	26990
822.99	26937
823.13	26925
823.27	26788
823.41	26724
823.55	26613
823.69	26769
823.83	26746
823.97	26678
824.11	26480
824.25	26560
824.389	26404
824.529	26667
824.669	26499
824.809	26617
824.949	26556
825.089	26613
825.228	26636
825.368	26393
825.508	26503
825.648	26514
825.787	26495
825.927	26549
826.067	26469
826.206	26503
826.346	26594
826.485	26526
826.625	26442
826.765	26564
826.904	26347
827.044	26187
827.183	26172
827.323	26191
827.462	26305
827.601	26237
827.741	26088
827.88	26214
828.02	26058
828.159	26164
828.298	26278
828.437	26252
828.577	26130
828.716	26081
828.855	26115
828.994	25940
829.134	25814
829.273	26027
829.412	25898
829.551	25761
829.69	25989
829.829	25978
829.968	26069
830.107	25864
830.246	25845
830.385	25727
830.524	25731
830.663	25693
830.802	25540
830.941	25483
831.08	25358
831.219	25460
831.357	25552
831.496	25681
831.635	25540
831.774	25510
831.913	25331
832.051	25259
832.19	25339
832.329	25358
832.467	25339
832.606	25110
832.744	25278
832.883	25171
833.022	25202
833.16	25091
833.299	25069
833.437	25145
833.576	25133
833.714	25164
833.852	25266
833.991	25244
834.129	25331
834.267	25274
834.406	25179
834.544	25266
834.682	25206
834.821	25160
834.959	25339
835.097	25122
835.235	25194
835.373	25198
835.511	25171
835.65	25118
835.788	25168
835.926	24966
836.064	24886
836.202	24821
836.34	25061
836.478	25053
836.615	24977
836.753	25088
836.891	25012
837.029	25061
837.167	25050
837.305	24882
837.443	24909
837.58	24894
837.718	24890
837.856	24905
837.993	24920
838.131	24856
838.269	24646
838.406	24837
838.544	24707
838.681	24608
838.819	24467
838.956	24414
839.094	24239
839.231	24395
839.369	24536
839.506	24631
839.643	24475
839.781	24365
839.918	24346
840.055	24365
840.193	24232
840.33	24251
840.467	24235
840.604	24342
840.742	24475
840.879	24155
841.016	24171
841.153	24243
841.29	24372
841.427	24266
841.564	24148
841.701	24076
841.838	24091
841.975	23988
842.112	24121
842.249	23999
842.385	23935
842.522	24159
842.659	24041
842.796	23935
842.933	23954
843.069	23999
843.206	23950
843.343	24053
843.479	24045
843.616	24060
843.752	23752
843.889	23729
844.025	23969
844.162	23676
844.298	23821
844.435	23817
844.571	23707
844.708	23775
844.844	23813
844.98	23958
845.117	23999
845.253	23661
845.389	23562
845.525	23589
845.661	23642
845.798	23383
845.934	23543
846.07	23452
846.206	23512
846.342	23596
846.478	23436
846.614	23204
846.75	23185
846.886	23128
847.022	23239
847.158	23277
847.294	23288
847.429	23303
847.565	23143
847.701	23356
847.837	23048
847.972	23029
848.108	23022
848.244	23029
848.379	22847
848.515	22710
848.65	22869
848.786	22771
848.921	22759
849.057	23014
849.192	22854
849.328	22938
849.463	22763
849.598	22740
849.734	22603
849.869	22630
850.004	22611
850.14	22607
850.275	22565
850.41	22527
850.545	22485
850.68	22557
850.815	22577
850.95	22462
851.085	22869
851.22	22596
851.355	22603
851.49	22664
851.625	22478
851.76	22561
851.895	22481
852.03	22489
852.165	22679
852.299	22512
852.434	22641
852.569	22672
852.703	22550
852.838	22573
852.973	22683
853.107	22672
853.242	22497
853.376	22322
853.511	22211
853.645	22314
853.78	22542
853.914	22474
854.048	22459
854.183	22375
854.317	22394
854.451	22573
854.585	22424
854.72	22470
854.854	22565
854.988	22272
855.122	22314
855.256	22211
855.39	22459
855.524	22398
855.658	22466
855.792	22375
855.926	22390
856.06	22443
856.194	22466
856.327	22329
856.461	22265
856.595	22310
856.729	22409
856.862	22440
856.996	22417
857.13	22546
857.263	22592
857.397	22451
857.53	22405
857.664	22500
857.797	22489
857.931	22683
858.064	22508
858.197	22504
858.331	22356
858.464	22360
858.597	22341
858.731	22325
858.864	22322
858.997	22348
859.13	22424
859.263	22394
859.396	22268
859.529	22295
859.662	22219
859.795	22337
859.928	22333
860.061	22565
860.194	22679
860.327	22352
860.46	22443
860.592	22451
860.725	22557
860.858	22603
860.99	22424
861.123	22333
861.256	22348
861.388	22459
861.521	23025
861.653	22371
861.786	22226
861.918	22162
862.05	22314
862.183	22295
862.315	22322
862.447	22367
862.58	22322
862.712	22086
862.844	22040
862.976	22207
863.108	22097
863.24	22421
863.372	22029
863.504	22128
863.636	22040
863.768	22139
863.9	22017
864.032	22055
864.164	21884
864.296	22154
864.428	22200
864.559	22166
864.691	22166
864.823	22147
864.954	22181
865.086	22128
865.217	22173
865.349	22010
865.48	21972
865.612	22063
865.743	22067
865.875	21975
866.006	21915
866.137	22082
866.269	22006
866.4	21956
866.531	21876
866.662	21903
866.793	21964
866.924	21876
867.055	21972
867.186	21941
867.317	21884
867.448	21774
867.579	21793
867.71	21915
867.841	21720
867.972	21835
868.103	21899
868.233	21857
868.364	21968
868.495	22017
868.625	22173
868.756	22188
868.886	22010
869.017	22196
869.147	22246
869.278	22295
869.408	22150
869.539	22158
869.669	22242
869.799	22230
869.929	22211
870.06	22265
870.19	22318
870.32	22375
870.45	22523
870.58	22531
870.71	22523
870.84	22637
870.97	22615
871.1	22557
871.23	22588
871.36	22603
871.489	22554
871.619	22729
871.749	22698
871.879	22790
872.008	22869
872.138	22733
872.267	22702
872.397	22584
872.526	22577
872.656	22687
872.785	22500
872.915	22881
873.044	22885
873.173	22797
873.303	22831
873.432	22599
873.561	22889
873.69	22847
873.819	22801
873.948	22831
874.077	22721
874.206	22752
874.335	22694
874.464	22972
874.593	23083
874.722	23037
874.851	23143
874.979	23029
875.108	22930
875.237	22927
875.365	22885
875.494	22869
875.623	22976
875.751	22892
875.88	22961
876.008	23048
876.136	23090
876.265	23547
876.393	23554
876.521	23421
876.65	23463
876.778	23341
876.906	23334
877.034	23334
877.162	23368
877.29	23261
877.418	23231
877.546	23311
877.674	23277
877.802	23239
877.93	23417
878.058	23372
878.185	23151
878.313	23368
878.441	23258
878.568	23166
878.696	23242
878.824	23414
878.951	23497
879.079	23592
879.206	23543
879.333	23478
879.461	23334
879.588	23505
879.715	23531
879.842	23642
879.97	23455
880.097	23086
880.224	23170
880.351	23029
880.478	23208
880.605	23098
880.732	23223
880.859	23292
880.986	23151
881.112	23128
881.239	23037
881.366	22923
881.493	22828
881.619	22679
881.746	22850
881.872	22721
881.999	22755
882.125	22656
882.252	22782
882.378	22706
882.505	22752
882.631	22653
882.757	22512
882.883	22459
883.01	22459
883.136	22329
883.262	22177
883.388	22310
883.514	22337
883.64	22500
883.766	22303
883.892	22223
884.018	22207
884.143	22337
884.269	22451
884.395	22139
884.52	21968
884.646	22074
884.772	21945
884.897	21774
885.023	22010
885.148	22097
885.274	22181
885.399	22105
885.524	22044
885.65	22013
885.775	22021
885.9	22040
886.025	22070
886.15	22135
886.275	21972
886.4	21827
886.525	21994
886.65	22002
886.775	21975
886.9	22040
887.025	22276
887.149	21880
887.274	21785
887.399	21911
887.523	21823
887.648	21652
887.773	21705
887.897	21800
888.021	21945
888.146	21781
888.27	21880
888.395	21934
888.519	21808
888.643	21812
888.767	21861
888.891	21561
889.015	21542
889.139	21576
889.263	21534
889.387	21679
889.511	21812
889.635	21667
889.759	21561
889.883	21568
890.006	21488
890.13	21629
890.254	21401
890.377	21515
890.501	21382
890.624	21260
890.748	21275
890.871	21332
890.995	21005
891.118	21055
891.241	21237
891.364	21165
891.488	21275
891.611	21062
891.734	21108
891.857	21199
891.98	21066
892.103	21157
892.226	21104
892.349	21104
892.471	20842
892.594	21096
892.717	21123
892.839	21005
892.962	21100
893.085	21074
893.207	21036
893.33	20998
893.452	20960
893.575	21104
893.697	20963
893.819	21100
893.941	21207
894.064	21241
894.186	20956
894.308	20899
894.43	21013
894.552	21108
894.674	21055
894.796	20952
894.918	20960
895.04	20883
895.161	21070
895.283	21093
895.405	21017
895.526	20960
895.648	21017
895.769	21039
895.891	20982
896.012	21032
896.134	21131
896.255	21047
896.376	20986
896.498	20925
896.619	20986
896.74	21001
896.861	21051
896.982	21382
897.103	21431
897.224	21165
897.345	21249
897.466	21176
897.587	21169
897.708	21256
897.828	21226
897.949	21081
898.07	21066
898.19	21161
898.311	21260
898.431	21165
898.552	21199
898.672	21241
898.792	21268
898.913	21150
899.033	21089
899.153	20994
899.273	20807
899.393	20944
899.513	20960
899.633	20941
899.753	20883
899.873	20762
899.993	20925
900.113	20872
900.232	20883
900.352	20845
900.472	20712
900.591	20522
900.711	20906
900.83	20579
900.95	20750
901.069	20765
901.189	20533
901.308	20343
901.427	20290
901.546	20275
901.665	20305
901.784	20256
901.904	20225
902.023	20046
902.141	19818
902.26	19826
902.379	19989
902.498	19715
902.617	19601
902.735	19753
902.854	19780
902.973	19651
903.091	19529
903.21	19419
903.328	19400
903.446	19343
903.565	19232
903.683	19110
903.801	19156
903.919	19289
904.038	19175
904.156	18954
904.274	19107
904.392	19008
904.51	18776
904.627	18958
904.745	18989
904.863	18954
904.981	18749
905.098	18658
905.216	18639
905.334	18707
905.451	18661
905.569	18620
905.686	18696
905.803	18597
905.921	18403
906.038	18521
906.155	18456
906.272	18353
906.389	18300
906.506	18258
906.623	18220
906.74	18091
906.857	18041
906.974	18224
907.091	18152
907.208	18277
907.324	18194
907.441	18053
907.557	17874
907.674	17885
907.79	17771
907.907	17790
908.023	17866
908.139	17973
908.256	17939
908.372	17767
908.488	17752
908.604	17604
908.72	17611
908.836	17566
908.952	17539
909.068	17672
909.184	17691
909.3	17554
909.415	17532
909.531	17577
909.647	17292
909.762	17444
909.878	17299
909.993	17197
910.108	17296
910.224	17151
910.339	17231
910.454	17136
910.57	17029
910.685	17052
910.8	17254
910.915	17246
911.03	16991
911.145	16900
911.259	16953
911.374	16968
911.489	16790
911.604	16645
911.718	16607
911.833	16706
911.947	16523
912.062	16470
912.176	16584
912.291	16691
912.405	16622
912.519	16809
912.633	16812
912.748	16653
912.862	16592
912.976	16428
913.09	16371
913.204	16299
913.318	16447
913.431	16516
913.545	16436
913.659	16558
913.772	16363
913.886	16242
914	16173
914.113	16394
914.226	16287
914.34	16287
914.453	16051
914.566	16166
914.68	16173
914.793	16109
914.906	15907
915.019	15831
915.132	15816
915.245	15660
915.358	15861
915.47	15816
915.583	15736
915.696	15804
915.809	15937
915.921	15937
916.034	15793
916.146	15762
916.259	15713
916.371	15774
916.483	15770
916.595	15568
916.708	15682
916.82	15568
916.932	15519
917.044	15584
917.156	15526
917.268	15424
917.38	15397
917.491	15363
917.603	15450
917.715	15622
917.826	15511
917.938	15412
918.049	15363
918.161	15370
918.272	15458
918.384	15481
918.495	15363
918.606	15203
918.717	15093
918.828	15097
918.939	15127
919.05	15157
919.161	15074
919.272	14994
919.383	15081
919.494	15302
919.604	15321
919.715	15161
919.826	15085
919.936	15085
920.047	15203
920.157	15104
920.267	15313
920.378	15199
920.488	15013
920.598	15264
920.708	15435
920.818	15245
920.928	15294
921.038	15447
921.148	15287
921.258	15043
921.368	14994
921.477	14902
921.587	14807
921.697	14724
921.806	14765
921.916	14682
922.025	14514
922.134	14579
922.244	14488
922.353	14583
922.462	14343
922.571	14282
922.68	14138
922.789	14183
922.898	14153
923.007	14161
923.116	14187
923.224	14107
923.333	13997
923.442	14001
923.55	13879
923.659	13978
923.767	13955
923.876	13887
923.984	14005
924.092	13849
924.201	13864
924.309	13849
924.417	13879
924.525	13723
924.633	13761
924.741	14610
924.849	13533
924.956	13677
925.064	13620
925.172	13392
925.279	13521
925.387	13540
925.494	13533
925.602	13533
925.709	13533
925.816	13438
925.924	13396
926.031	13518
926.138	13438
926.245	13472
926.352	13297
926.459	13510
926.566	13510
926.673	13308
926.779	13194
926.886	13198
926.993	13103
927.099	13110
927.206	13004
927.312	12947
927.419	13141
927.525	13031
927.631	13004
927.737	12939
927.843	12894
927.95	12726
928.056	12882
928.162	12890
928.267	12970
928.373	13392
928.479	12966
928.585	12654
928.69	12768
928.796	12924
928.901	12726
929.007	12509
929.112	12627
929.218	12734
929.323	12578
929.428	12604
929.533	12779
929.638	12540
929.743	12532
929.848	12547
929.953	12509
930.058	12361
930.163	12254
930.267	12216
930.372	12369
930.477	12163
930.581	12429
930.685	12277
930.79	12175
930.894	12197
930.998	12068
931.103	12209
931.207	11824
931.311	11916
931.415	11649
931.519	11539
931.623	11471
