Data from test_V78500241_2145.txt Node
Date: Fri Mar 25 15:56:39 CST 2022
User: usil
Spectrometer: V785-0024
Trigger mode: 0
Integration Time (sec): 4.000000E-1
Scans to average: 1
Nonlinearity correction enabled: false
Boxcar width: 0
Storing dark spectrum: false
XAxis mode: Wavelengths
Number of Pixels in Spectrum: 1024
>>>>>Begin Spectral Data<<<<<
801.071	29056
801.214	28881
801.356	28573
801.499	28607
801.641	28455
801.783	28401
801.926	28649
802.068	28481
802.211	28630
802.353	28405
802.496	28246
802.638	28207
802.78	28219
802.923	28150
803.065	28177
803.208	28185
803.35	28265
803.492	28230
803.635	28512
803.777	28352
803.919	28451
804.061	28809
804.204	28489
804.346	28329
804.488	28379
804.63	28421
804.773	28478
804.915	28599
805.057	28622
805.199	28390
805.341	28527
805.483	28565
805.626	28702
805.768	28611
805.91	28607
806.052	28763
806.194	28634
806.336	28824
806.478	28637
806.62	28637
806.762	28866
806.904	28938
807.046	29311
807.188	29075
807.33	29029
807.472	29258
807.614	29083
807.756	29170
807.898	29041
808.04	28888
808.182	28881
808.324	28984
808.465	29025
808.607	29239
808.749	29406
808.891	29429
809.033	29463
809.174	29478
809.316	29284
809.458	29391
809.6	29349
809.741	29486
809.883	29520
810.025	29672
810.166	29695
810.308	29657
810.45	29585
810.591	29627
810.733	29417
810.875	29417
811.016	29273
811.158	29277
811.299	29440
811.441	29596
811.582	29592
811.724	29398
811.865	29349
812.007	29360
812.148	29486
812.29	29330
812.431	29562
812.573	29687
812.714	29684
812.855	29859
812.997	29977
813.138	30106
813.279	30079
813.421	29904
813.562	29809
813.703	29566
813.845	29627
813.986	29444
814.127	29197
814.268	29018
814.41	29090
814.551	29159
814.692	29075
814.833	29113
814.974	28980
815.115	29200
815.256	29067
815.397	28911
815.539	29094
815.68	28873
815.821	28782
815.962	28748
816.103	28881
816.244	28725
816.385	28748
816.526	28557
816.666	28497
816.807	28428
816.948	28329
817.089	28432
817.23	28421
817.371	28421
817.512	28401
817.653	28382
817.793	28306
817.934	28333
818.075	28424
818.216	28280
818.356	28455
818.497	28291
818.638	28181
818.778	28265
818.919	28135
819.06	28230
819.2	28310
819.341	28386
819.481	28352
819.622	28660
819.762	28706
819.903	28687
820.043	28637
820.184	28459
820.324	28527
820.465	28793
820.605	28459
820.746	28675
820.886	28360
821.026	28447
821.167	28455
821.307	28592
821.447	28500
821.588	28238
821.728	28303
821.868	27964
822.008	27964
822.149	27869
822.289	27876
822.429	27652
822.569	27424
822.709	27610
822.849	27382
822.99	27382
823.13	27268
823.27	27260
823.41	27291
823.55	27237
823.69	27226
823.83	27165
823.97	27157
824.11	27020
824.25	27009
824.389	26998
824.529	27077
824.669	27055
824.809	27123
824.949	26998
825.089	27218
825.228	26933
825.368	26937
825.508	26796
825.648	27009
825.787	26990
825.927	27074
826.067	26986
826.206	26838
826.346	27017
826.485	26872
826.625	26857
826.765	26914
826.904	27013
827.044	26735
827.183	26724
827.323	26609
827.462	26682
827.601	26575
827.741	26613
827.88	26731
828.02	26453
828.159	26590
828.298	26564
828.437	26495
828.577	26556
828.716	26746
828.855	26552
828.994	26282
829.134	26336
829.273	26431
829.412	26355
829.551	26355
829.69	26385
829.829	26343
829.968	26362
830.107	26355
830.246	26305
830.385	26324
830.524	26286
830.663	26172
830.802	26050
830.941	25909
831.08	25936
831.219	25982
831.357	26020
831.496	26183
831.635	25982
831.774	25727
831.913	25826
832.051	25727
832.19	25788
832.329	25811
832.467	25613
832.606	25700
832.744	25525
832.883	25601
833.022	25502
833.16	25502
833.299	25700
833.437	25693
833.576	25761
833.714	25643
833.852	25841
833.991	25704
834.129	25757
834.267	25677
834.406	25590
834.544	25632
834.682	25658
834.821	25662
834.959	25788
835.097	25628
835.235	25658
835.373	25643
835.511	25681
835.65	25510
835.788	25422
835.926	25312
836.064	25350
836.202	25407
836.34	25449
836.478	25594
836.615	25441
836.753	25491
836.891	25651
837.029	25464
837.167	25411
837.305	25365
837.443	25369
837.58	25358
837.718	25346
837.856	25274
837.993	25240
838.131	25240
838.269	25190
838.406	25209
838.544	25072
838.681	25061
838.819	24958
838.956	24700
839.094	24764
839.231	24791
839.369	24970
839.506	25050
839.643	24871
839.781	24757
839.918	24726
840.055	24684
840.193	24707
840.33	24631
840.467	24700
840.604	24623
840.742	24909
840.879	24547
841.016	24532
841.153	24521
841.29	24814
841.427	24658
841.564	24620
841.701	24639
841.838	24547
841.975	24585
842.112	24486
842.249	24483
842.385	24528
842.522	24700
842.659	24422
842.796	24319
842.933	24441
843.069	24247
843.206	24452
843.343	24532
843.479	24300
843.616	24437
843.752	24346
843.889	24258
844.025	24380
844.162	24235
844.298	24311
844.435	24129
844.571	24072
844.708	24289
844.844	24376
844.98	24327
845.117	24403
845.253	24270
845.389	23916
845.525	24041
845.661	24011
845.798	23870
845.934	23954
846.07	23870
846.206	23969
846.342	24049
846.478	23999
846.614	23661
846.75	23551
846.886	23672
847.022	23764
847.158	23790
847.294	23703
847.429	23653
847.565	23665
847.701	23813
847.837	23402
847.972	23208
848.108	23497
848.244	23497
848.379	23280
848.515	23280
848.65	23265
848.786	23151
848.921	23296
849.057	23349
849.192	23178
849.328	23246
849.463	23200
849.598	23212
849.734	23083
849.869	23037
850.004	23041
850.14	22972
850.275	22999
850.41	22927
850.545	22968
850.68	22892
850.815	22999
850.95	22915
851.085	23147
851.22	23048
851.355	22824
851.49	22991
851.625	22923
851.76	22976
851.895	22835
852.03	22862
852.165	23105
852.299	23140
852.434	23014
852.569	23064
852.703	22923
852.838	23102
852.973	23086
853.107	23014
853.242	22877
853.376	22782
853.511	22702
853.645	22660
853.78	22835
853.914	22767
854.048	22771
854.183	22687
854.317	22881
854.451	22934
854.585	22786
854.72	22801
854.854	22877
854.988	22820
855.122	22816
855.256	22721
855.39	22774
855.524	22793
855.658	22736
855.792	22927
855.926	22759
856.06	22843
856.194	22771
856.327	22759
856.461	22691
856.595	22771
856.729	22908
856.862	22930
856.996	22854
857.13	22942
857.263	22908
857.397	22866
857.53	22634
857.664	22824
857.797	22831
857.931	22869
858.064	22942
858.197	22896
858.331	22706
858.464	22664
858.597	22694
858.731	22736
858.864	22771
858.997	22713
859.13	22656
859.263	22771
859.396	22911
859.529	22866
859.662	22706
859.795	22809
859.928	22843
860.061	22805
860.194	22869
860.327	22850
860.46	22831
860.592	22915
860.725	22892
860.858	22885
860.99	22873
861.123	22725
861.256	22653
861.388	22900
861.521	23490
861.653	22698
861.786	22580
861.918	22641
862.05	22615
862.183	22668
862.315	22740
862.447	22744
862.58	22740
862.712	22531
862.844	22538
862.976	22573
863.108	22512
863.24	23067
863.372	22379
863.504	22489
863.636	22500
863.768	22618
863.9	22516
864.032	22516
864.164	22542
864.296	22474
864.428	22531
864.559	22523
864.691	22535
864.823	22447
864.954	22440
865.086	22363
865.217	22489
865.349	22394
865.48	22360
865.612	22276
865.743	22554
865.875	22352
866.006	22204
866.137	22257
866.269	22318
866.4	22421
866.531	22367
866.662	22344
866.793	22344
866.924	22226
867.055	22329
867.186	22329
867.317	22352
867.448	22200
867.579	22230
867.71	22261
867.841	22337
867.972	22333
868.103	22276
868.233	22257
868.364	22348
868.495	22504
868.625	22474
868.756	22660
868.886	22443
869.017	22462
869.147	22596
869.278	22797
869.408	22596
869.539	22523
869.669	22687
869.799	22599
869.929	22641
870.06	22645
870.19	22908
870.32	22763
870.45	22961
870.58	22927
870.71	22915
870.84	23090
870.97	23014
871.1	22885
871.23	23124
871.36	23178
871.489	22927
871.619	23147
871.749	23185
871.879	23250
872.008	23254
872.138	23140
872.267	23090
872.397	23025
872.526	23098
872.656	22949
872.785	22942
872.915	23166
873.044	23258
873.173	23220
873.303	23330
873.432	23345
873.561	23288
873.69	23197
873.819	23197
873.948	23212
874.077	23136
874.206	23105
874.335	23022
874.464	23356
874.593	23288
874.722	23284
874.851	23349
874.979	23395
875.108	23425
875.237	23391
875.365	23193
875.494	23368
875.623	23376
875.751	23189
875.88	23520
876.008	23322
876.136	23657
876.265	23745
876.393	23885
876.521	23798
876.65	23859
876.778	23672
876.906	23691
877.034	23760
877.162	23851
877.29	23649
877.418	23672
877.546	23824
877.674	23703
877.802	23619
877.93	23653
878.058	23596
878.185	23512
878.313	23665
878.441	23539
878.568	23497
878.696	23600
878.824	23767
878.951	23866
879.079	23805
879.206	24038
879.333	23817
879.461	23710
879.588	23741
879.715	23942
879.842	23988
879.97	23718
880.097	23528
880.224	23360
880.351	23493
880.478	23539
880.605	23554
880.732	23490
880.859	23748
880.986	23577
881.112	23531
881.239	23417
881.366	23269
881.493	23185
881.619	23204
881.746	23197
881.872	23105
881.999	22949
882.125	22953
882.252	23018
882.378	23094
882.505	23117
882.631	22999
882.757	22759
882.883	22885
883.01	22668
883.136	22603
883.262	22630
883.388	22607
883.514	22679
883.64	22812
883.766	22687
883.892	22565
884.018	22527
884.143	22729
884.269	22858
884.395	22421
884.52	22348
884.646	22394
884.772	22337
884.897	22318
885.023	22390
885.148	22561
885.274	22637
885.399	22459
885.524	22436
885.65	22402
885.775	22268
885.9	22443
886.025	22474
886.15	22451
886.275	22371
886.4	22295
886.525	22386
886.65	22310
886.775	22284
886.9	22398
887.025	22577
887.149	22303
887.274	22215
887.399	22048
887.523	22093
887.648	22097
887.773	21998
887.897	22219
888.021	22105
888.146	21983
888.27	22188
888.395	22329
888.519	22173
888.643	22040
888.767	22128
888.891	21911
889.015	21888
889.139	21937
889.263	21854
889.387	21998
889.511	22101
889.635	22040
889.759	21888
889.883	21972
890.006	21960
890.13	21975
890.254	21819
890.377	21918
890.501	21701
890.624	21545
890.748	21774
890.871	21477
890.995	21450
891.118	21351
891.241	21458
891.364	21431
891.488	21492
891.611	21469
891.734	21435
891.857	21599
891.98	21523
892.103	21485
892.226	21473
892.349	21450
892.471	21279
892.594	21340
892.717	21306
892.839	21279
892.962	21443
893.085	21344
893.207	21329
893.33	21169
893.452	21192
893.575	21496
893.697	21195
893.819	21557
893.941	21564
894.064	21504
894.186	21294
894.308	21214
894.43	21485
894.552	21488
894.674	21367
894.796	21218
894.918	21332
895.04	21325
895.161	21462
895.283	21431
895.405	21256
895.526	21310
895.648	21363
895.769	21359
895.891	21291
896.012	21447
896.134	21298
896.255	21298
896.376	21294
896.498	21325
896.619	21397
896.74	21367
896.861	21466
896.982	21641
897.103	21732
897.224	21618
897.345	21485
897.466	21408
897.587	21462
897.708	21530
897.828	21466
897.949	21450
898.07	21370
898.19	21412
898.311	21637
898.431	21553
898.552	21500
898.672	21606
898.792	21526
898.913	21614
899.033	21447
899.153	21249
899.273	21195
899.393	21233
899.513	21294
899.633	21279
899.753	21237
899.873	21173
899.993	21230
900.113	21203
900.232	21222
900.352	21131
900.472	21146
900.591	20982
900.711	21077
900.83	20864
900.95	21199
901.069	21024
901.189	20899
901.308	20670
901.427	20495
901.546	20533
901.665	20575
901.784	20625
901.904	20419
902.023	20374
902.141	20126
902.26	20240
902.379	20183
902.498	20054
902.617	19947
902.735	20122
902.854	20103
902.973	19993
903.091	19731
903.21	19757
903.328	19830
903.446	19544
903.565	19544
903.683	19537
903.801	19403
903.919	19445
904.038	19563
904.156	19297
904.274	19358
904.392	19358
904.51	19228
904.627	19187
904.745	19327
904.863	19278
904.981	19114
905.098	18932
905.216	18840
905.334	18886
905.451	18977
905.569	18954
905.686	19042
905.803	18886
905.921	18661
906.038	18802
906.155	18802
906.272	18620
906.389	18688
906.506	18467
906.623	18471
906.74	18517
906.857	18456
906.974	18315
907.091	18555
907.208	18593
907.324	18460
907.441	18338
907.557	18155
907.674	18133
907.79	18201
907.907	18110
908.023	18133
908.139	18178
908.256	18049
908.372	18091
908.488	17946
908.604	17984
908.72	17866
908.836	17885
908.952	17870
909.068	17863
909.184	17916
909.3	17866
909.415	17863
909.531	17752
909.647	17649
909.762	17634
909.878	17608
909.993	17543
910.108	17528
910.224	17512
910.339	17604
910.454	17452
910.57	17417
910.685	17349
910.8	17493
910.915	17543
911.03	17379
911.145	17204
911.259	17197
911.374	17189
911.489	17105
911.604	17029
911.718	16972
911.833	16938
911.947	16755
912.062	16759
912.176	16881
912.291	16915
912.405	16869
912.519	17075
912.633	17022
912.748	16991
912.862	16885
912.976	16748
913.09	16622
913.204	16656
913.318	16626
913.431	16889
913.545	16660
913.659	16835
913.772	16611
913.886	16615
914	16398
914.113	16542
914.226	16634
914.34	16485
914.453	16287
914.566	16466
914.68	16363
914.793	16261
914.906	16093
915.019	15994
915.132	16109
915.245	16082
915.358	16071
915.47	16010
915.583	16150
915.696	16105
915.809	16154
915.921	16177
916.034	16063
916.146	15907
916.259	15907
916.371	15884
916.483	15880
916.595	15861
916.708	15770
916.82	15846
916.932	15793
917.044	15907
917.156	15724
917.268	15652
917.38	15739
917.491	15633
917.603	15633
917.715	15709
917.826	15797
917.938	15549
918.049	15511
918.161	15622
918.272	15652
918.384	15671
918.495	15580
918.606	15458
918.717	15336
918.828	15485
918.939	15481
919.05	15378
919.161	15424
919.272	15104
919.383	15272
919.494	15473
919.604	15637
919.715	15313
919.826	15355
919.936	15408
920.047	15443
920.157	15329
920.267	15530
920.378	15477
920.488	15348
920.598	15542
920.708	15629
920.818	15504
920.928	15374
921.038	15663
921.148	15629
921.258	15233
921.368	15165
921.477	15089
921.587	15066
921.697	14864
921.806	15013
921.916	14902
922.025	14708
922.134	14735
922.244	14640
922.353	14804
922.462	14549
922.571	14541
922.68	14332
922.789	14377
922.898	14256
923.007	14259
923.116	14370
923.224	14358
923.333	14301
923.442	14199
923.55	14119
923.659	14206
923.767	14191
923.876	14088
923.984	14145
924.092	14027
924.201	14058
924.309	14088
924.417	14092
924.525	14012
924.633	13997
924.741	14705
924.849	13791
924.956	13902
925.064	13750
925.172	13693
925.279	13666
925.387	13753
925.494	13738
925.602	13788
925.709	13765
925.816	13559
925.924	13620
926.031	13856
926.138	13662
926.245	13616
926.352	13590
926.459	13681
926.566	13715
926.673	13472
926.779	13381
926.886	13480
926.993	13320
927.099	13236
927.206	13263
927.312	13278
927.419	13285
927.525	13244
927.631	13213
927.737	13156
927.843	13122
927.95	12973
928.056	13164
928.162	13122
928.267	13091
928.373	13712
928.479	13228
928.585	12897
928.69	13000
928.796	13091
928.901	12920
929.007	12719
929.112	13027
929.218	12844
929.323	12878
929.428	12711
929.533	12935
929.638	12631
929.743	12760
929.848	12757
929.953	12688
930.058	12616
930.163	12464
930.267	12433
930.372	12544
930.477	12460
930.581	12650
930.685	12418
930.79	12418
930.894	12399
930.998	12357
931.103	12395
931.207	12038
931.311	12079
931.415	11813
931.519	11630
931.623	11627
