Data from test_V78500241_3179.txt Node
Date: Fri Mar 25 16:03:49 CST 2022
User: usil
Spectrometer: V785-0024
Trigger mode: 0
Integration Time (sec): 4.000000E-1
Scans to average: 1
Nonlinearity correction enabled: false
Boxcar width: 0
Storing dark spectrum: false
XAxis mode: Wavelengths
Number of Pixels in Spectrum: 1024
>>>>>Begin Spectral Data<<<<<
801.071	28634
801.214	28569
801.356	28523
801.499	28337
801.641	28242
801.783	28268
801.926	28211
802.068	28211
802.211	28242
802.353	28029
802.496	27987
802.638	27869
802.78	27914
802.923	27869
803.065	27842
803.208	27850
803.35	27934
803.492	28162
803.635	28097
803.777	28082
803.919	28093
804.061	28508
804.204	28299
804.346	28097
804.488	28055
804.63	28032
804.773	28013
804.915	28249
805.057	28352
805.199	28131
805.341	28352
805.483	28204
805.626	28188
805.768	28261
805.91	28375
806.052	28474
806.194	28363
806.336	28443
806.478	28295
806.62	28546
806.762	28363
806.904	28637
807.046	28866
807.188	28759
807.33	28774
807.472	28900
807.614	28831
807.756	28687
807.898	28672
808.04	28596
808.182	28759
808.324	28710
808.465	28752
808.607	29006
808.749	29014
808.891	29037
809.033	29143
809.174	28961
809.316	29041
809.458	29239
809.6	29022
809.741	29124
809.883	29048
810.025	29330
810.166	29353
810.308	29311
810.45	29098
810.591	29200
810.733	29109
810.875	28987
811.016	28953
811.158	28927
811.299	29067
811.441	29242
811.582	29174
811.724	29090
811.865	29048
812.007	28976
812.148	29132
812.29	29044
812.431	29178
812.573	29235
812.714	29615
812.855	29528
812.997	29691
813.138	29722
813.279	29615
813.421	29657
813.562	29414
813.703	29375
813.845	29174
813.986	29003
814.127	28850
814.268	28820
814.41	28694
814.551	28694
814.692	28866
814.833	28759
814.974	28641
815.115	28740
815.256	28691
815.397	28706
815.539	28672
815.68	28447
815.821	28531
815.962	28531
816.103	28481
816.244	28489
816.385	28421
816.526	28268
816.666	27979
816.807	27968
816.948	28093
817.089	28109
817.23	27941
817.371	28086
817.512	28162
817.653	28086
817.793	27930
817.934	28097
818.075	28048
818.216	27941
818.356	27994
818.497	27964
818.638	27785
818.778	27793
818.919	27755
819.06	27884
819.2	28006
819.341	28131
819.481	27934
819.622	28268
819.762	28508
819.903	28504
820.043	28265
820.184	28246
820.324	28257
820.465	28200
820.605	28112
820.746	28185
820.886	28025
821.026	28299
821.167	28249
821.307	28242
821.447	28040
821.588	28055
821.728	27694
821.868	27618
822.008	27675
822.149	27557
822.289	27439
822.429	27302
822.569	27272
822.709	27169
822.849	27233
822.99	27020
823.13	27070
823.27	27074
823.41	26952
823.55	26765
823.69	26887
823.83	26876
823.97	26777
824.11	26697
824.25	26651
824.389	26697
824.529	26861
824.669	26743
824.809	26925
824.949	26743
825.089	26830
825.228	26906
825.368	26587
825.508	26716
825.648	26587
825.787	26556
825.927	26678
826.067	26598
826.206	26670
826.346	26701
826.485	26648
826.625	26560
826.765	26754
826.904	26678
827.044	26370
827.183	26427
827.323	26278
827.462	26438
827.601	26320
827.741	26294
827.88	26244
828.02	26271
828.159	26214
828.298	26317
828.437	26408
828.577	26077
828.716	26381
828.855	26244
828.994	25940
829.134	26081
829.273	26024
829.412	25974
829.551	25932
829.69	26130
829.829	26115
829.968	26020
830.107	26115
830.246	25951
830.385	26073
830.524	25970
830.663	25883
830.802	25746
830.941	25552
831.08	25575
831.219	25700
831.357	25632
831.496	25860
831.635	25708
831.774	25518
831.913	25464
832.051	25354
832.19	25396
832.329	25377
832.467	25373
832.606	25236
832.744	25232
832.883	25240
833.022	25236
833.16	25346
833.299	25400
833.437	25301
833.576	25419
833.714	25438
833.852	25316
833.991	25266
834.129	25400
834.267	25301
834.406	25327
834.544	25521
834.682	25434
834.821	25301
834.959	25419
835.097	25255
835.235	25407
835.373	25415
835.511	25225
835.65	25168
835.788	25244
835.926	25053
836.064	25285
836.202	25114
836.34	25206
836.478	25278
836.615	25171
836.753	25213
836.891	25156
837.029	25213
837.167	25072
837.305	25080
837.443	25031
837.58	24875
837.718	25061
837.856	24932
837.993	25008
838.131	25046
838.269	24966
838.406	24943
838.544	24951
838.681	24673
838.819	24612
838.956	24418
839.094	24448
839.231	24585
839.369	24650
839.506	24920
839.643	24604
839.781	24509
839.918	24456
840.055	24399
840.193	24448
840.33	24369
840.467	24475
840.604	24380
840.742	24684
840.879	24194
841.016	24213
841.153	24289
841.29	24494
841.427	24388
841.564	24338
841.701	24437
841.838	24410
841.975	24391
842.112	24258
842.249	24285
842.385	24121
842.522	24445
842.659	24197
842.796	24129
842.933	24106
843.069	24038
843.206	24045
843.343	24243
843.479	24155
843.616	24125
843.752	23935
843.889	23821
844.025	23988
844.162	23950
844.298	23942
844.435	23946
844.571	23897
844.708	23969
844.844	24022
844.98	24060
845.117	23885
845.253	23817
845.389	23649
845.525	23847
845.661	23767
845.798	23649
845.934	23760
846.07	23627
846.206	23657
846.342	23733
846.478	23539
846.614	23383
846.75	23242
846.886	23349
847.022	23528
847.158	23406
847.294	23433
847.429	23414
847.565	23391
847.701	23630
847.837	23124
847.972	23094
848.108	23181
848.244	23181
848.379	23109
848.515	22961
848.65	22976
848.786	22858
848.921	22984
849.057	23010
849.192	23121
849.328	22919
849.463	22908
849.598	22812
849.734	22915
849.869	22847
850.004	22717
850.14	22843
850.275	22740
850.41	22713
850.545	22698
850.68	22744
850.815	22755
850.95	22679
851.085	22987
851.22	22911
851.355	22706
851.49	22774
851.625	22816
851.76	22672
851.895	22626
852.03	22599
852.165	22713
852.299	22736
852.434	22831
852.569	22771
852.703	22805
852.838	22797
852.973	22736
853.107	22816
853.242	22691
853.376	22523
853.511	22481
853.645	22451
853.78	22641
853.914	22615
854.048	22474
854.183	22592
854.317	22561
854.451	22729
854.585	22554
854.72	22569
854.854	22573
854.988	22489
855.122	22599
855.256	22329
855.39	22546
855.524	22637
855.658	22478
855.792	22542
855.926	22748
856.06	22554
856.194	22683
856.327	22405
856.461	22432
856.595	22516
856.729	22462
856.862	22649
856.996	22634
857.13	22645
857.263	22683
857.397	22645
857.53	22550
857.664	22622
857.797	22626
857.931	22634
858.064	22504
858.197	22573
858.331	22519
858.464	22596
858.597	22417
858.731	22626
858.864	22493
858.997	22546
859.13	22535
859.263	22550
859.396	22683
859.529	22432
859.662	22561
859.795	22542
859.928	22664
860.061	22626
860.194	22713
860.327	22592
860.46	22550
860.592	22687
860.725	22725
860.858	22687
860.99	22561
861.123	22485
861.256	22573
861.388	22569
861.521	23303
861.653	22390
861.786	22261
861.918	22363
862.05	22405
862.183	22443
862.315	22523
862.447	22573
862.58	22531
862.712	22185
862.844	22158
862.976	22542
863.108	22318
863.24	22668
863.372	22192
863.504	22280
863.636	22169
863.768	22249
863.9	22249
864.032	22177
864.164	22280
864.296	22306
864.428	22257
864.559	22268
864.691	22242
864.823	22177
864.954	22188
865.086	22272
865.217	22135
865.349	22093
865.48	22131
865.612	22181
865.743	22246
865.875	22135
866.006	22139
866.137	22177
866.269	22128
866.4	22048
866.531	22067
866.662	22059
866.793	22097
866.924	22150
867.055	22067
867.186	22006
867.317	21854
867.448	21922
867.579	22143
867.71	22032
867.841	22013
867.972	22093
868.103	22002
868.233	22059
868.364	21994
868.495	22055
868.625	22211
868.756	22337
868.886	22306
869.017	22268
869.147	22432
869.278	22394
869.408	22447
869.539	22348
869.669	22413
869.799	22360
869.929	22371
870.06	22360
870.19	22592
870.32	22611
870.45	22664
870.58	22679
870.71	22862
870.84	22809
870.97	22733
871.1	22649
871.23	22900
871.36	22854
871.489	22835
871.619	22873
871.749	22923
871.879	22904
872.008	23010
872.138	22889
872.267	22938
872.397	22740
872.526	22569
872.656	22767
872.785	22634
872.915	22885
873.044	22938
873.173	22877
873.303	22885
873.432	22923
873.561	22961
873.69	23056
873.819	22892
873.948	23022
874.077	23044
874.206	22972
874.335	22873
874.464	23048
874.593	23117
874.722	23155
874.851	23178
874.979	23155
875.108	23216
875.237	23048
875.365	22968
875.494	23189
875.623	23208
875.751	23200
875.88	23098
876.008	23174
876.136	23364
876.265	23501
876.393	23661
876.521	23589
876.65	23585
876.778	23596
876.906	23493
877.034	23505
877.162	23440
877.29	23280
877.418	23440
877.546	23337
877.674	23455
877.802	23486
877.93	23531
878.058	23402
878.185	23425
878.313	23356
878.441	23566
878.568	23379
878.696	23452
878.824	23429
878.951	23577
879.079	23646
879.206	23718
879.333	23684
879.461	23402
879.588	23634
879.715	23672
879.842	23710
879.97	23600
880.097	23410
880.224	23254
880.351	23322
880.478	23307
880.605	23200
880.732	23299
880.859	23452
880.986	23307
881.112	23296
881.239	23239
881.366	22972
881.493	23014
881.619	23033
881.746	22896
881.872	22824
881.999	22850
882.125	22797
882.252	22927
882.378	22904
882.505	22900
882.631	22721
882.757	22462
882.883	22656
883.01	22561
883.136	22489
883.262	22424
883.388	22310
883.514	22485
883.64	22409
883.766	22470
883.892	22379
884.018	22318
884.143	22382
884.269	22523
884.395	22234
884.52	22147
884.646	22242
884.772	22105
884.897	22002
885.023	22181
885.148	22200
885.274	22265
885.399	22253
885.524	22272
885.65	22200
885.775	22147
885.9	22120
886.025	22284
886.15	22268
886.275	21964
886.4	22055
886.525	22181
886.65	22055
886.775	22086
886.9	22128
887.025	22310
887.149	22093
887.274	21934
887.399	21922
887.523	21846
887.648	21892
887.773	21846
887.897	21903
888.021	21918
888.146	21739
888.27	21987
888.395	22017
888.519	21964
888.643	21865
888.767	22021
888.891	21781
889.015	21797
889.139	21869
889.263	21812
889.387	21698
889.511	21949
889.635	21823
889.759	21656
889.883	21652
890.006	21720
890.13	21770
890.254	21599
890.377	21549
890.501	21469
890.624	21424
890.748	21389
890.871	21321
890.995	21351
891.118	21245
891.241	21275
891.364	21245
891.488	21340
891.611	21344
891.734	21260
891.857	21260
891.98	21264
892.103	21313
892.226	21230
892.349	21165
892.471	21093
892.594	21142
892.717	21184
892.839	21199
892.962	21096
893.085	21237
893.207	21093
893.33	20921
893.452	21047
893.575	21268
893.697	21089
893.819	21230
893.941	21264
894.064	21214
894.186	21055
894.308	21013
894.43	21249
894.552	21260
894.674	21275
894.796	20941
894.918	21036
895.04	21047
895.161	21203
895.283	21116
895.405	21009
895.526	21104
895.648	21081
895.769	21112
895.891	21199
896.012	21161
896.134	21192
896.255	21123
896.376	21017
896.498	21104
896.619	21233
896.74	21036
896.861	21161
896.982	21515
897.103	21587
897.224	21355
897.345	21336
897.466	21283
897.587	21313
897.708	21370
897.828	21279
897.949	21211
898.07	21085
898.19	21226
898.311	21340
898.431	21256
898.552	21310
898.672	21344
898.792	21412
898.913	21279
899.033	21093
899.153	21085
899.273	21036
899.393	21127
899.513	21176
899.633	20990
899.753	21096
899.873	20823
899.993	20998
900.113	20887
900.232	21055
900.352	20933
900.472	20815
900.591	20720
900.711	20807
900.83	20781
900.95	20788
901.069	20880
901.189	20712
901.308	20374
901.427	20434
901.546	20393
901.665	20362
901.784	20446
901.904	20332
902.023	20191
902.141	19826
902.26	19955
902.379	19997
902.498	19852
902.617	19864
902.735	19852
902.854	19837
902.973	19822
903.091	19521
903.21	19506
903.328	19445
903.446	19426
903.565	19381
903.683	19270
903.801	19301
903.919	19225
904.038	19289
904.156	19175
904.274	19072
904.392	19034
904.51	19053
904.627	19084
904.745	19053
904.863	19179
904.981	18859
905.098	18810
905.216	18757
905.334	18825
905.451	18749
905.569	18722
905.686	18848
905.803	18700
905.921	18532
906.038	18627
906.155	18506
906.272	18422
906.389	18395
906.506	18228
906.623	18334
906.74	18441
906.857	18205
906.974	18186
907.091	18330
907.208	18372
907.324	18289
907.441	18159
907.557	17973
907.674	17984
907.79	17992
907.907	17965
908.023	18049
908.139	17961
908.256	17973
908.372	17889
908.488	17733
908.604	17737
908.72	17741
908.836	17737
908.952	17699
909.068	17836
909.184	17878
909.3	17741
909.415	17737
909.531	17585
909.647	17505
909.762	17486
909.878	17280
909.993	17391
910.108	17372
910.224	17379
910.339	17356
910.454	17216
910.57	17147
910.685	17159
910.8	17425
910.915	17414
911.03	17216
911.145	17140
911.259	16976
911.374	16961
911.489	16930
911.604	16835
911.718	16611
911.833	16706
911.947	16660
912.062	16546
912.176	16721
912.291	16774
912.405	16683
912.519	16946
912.633	16892
912.748	16744
912.862	16755
912.976	16645
913.09	16447
913.204	16470
913.318	16538
913.431	16626
913.545	16561
913.659	16675
913.772	16577
913.886	16356
914	16249
914.113	16402
914.226	16512
914.34	16447
914.453	16253
914.566	16382
914.68	16280
914.793	16192
914.906	15945
915.019	15903
915.132	15755
915.245	15846
915.358	15937
915.47	15888
915.583	15892
915.696	16124
915.809	15953
915.921	16055
916.034	15861
916.146	15827
916.259	15720
916.371	15842
916.483	15876
916.595	15709
916.708	15698
916.82	15694
916.932	15713
917.044	15606
917.156	15603
917.268	15625
917.38	15530
917.491	15515
917.603	15519
917.715	15595
917.826	15610
917.938	15477
918.049	15435
918.161	15496
918.272	15568
918.384	15564
918.495	15481
918.606	15192
918.717	15214
918.828	15332
918.939	15298
919.05	15222
919.161	15218
919.272	15058
919.383	15146
919.494	15264
919.604	15424
919.715	15249
919.826	15127
919.936	15249
920.047	15272
920.157	15241
920.267	15431
920.378	15203
920.488	15165
920.598	15344
920.708	15431
920.818	15344
920.928	15351
921.038	15534
921.148	15431
921.258	15252
921.368	15085
921.477	14868
921.587	14948
921.697	14887
921.806	14998
921.916	14792
922.025	14674
922.134	14499
922.244	14511
922.353	14541
922.462	14564
922.571	14366
922.68	14282
922.789	14153
922.898	14202
923.007	14168
923.116	14244
923.224	14195
923.333	14180
923.442	14092
923.55	14069
923.659	14008
923.767	14054
923.876	13978
923.984	14065
924.092	13928
924.201	14016
924.309	13951
924.417	13909
924.525	13856
924.633	13856
924.741	14670
924.849	13647
924.956	13791
925.064	13643
925.172	13502
925.279	13586
925.387	13658
925.494	13533
925.602	13765
925.709	13628
925.816	13540
925.924	13552
926.031	13605
926.138	13537
926.245	13518
926.352	13457
926.459	13685
926.566	13597
926.673	13422
926.779	13373
926.886	13381
926.993	13145
927.099	13175
927.206	13145
927.312	13019
927.419	13304
927.525	13027
927.631	13065
927.737	12985
927.843	12970
927.95	12802
928.056	12932
928.162	12951
928.267	12894
928.373	13438
928.479	12871
928.585	12772
928.69	12859
928.796	12890
928.901	12749
929.007	12738
929.112	12757
929.218	12875
929.323	12604
929.428	12578
929.533	12646
929.638	12662
929.743	12665
929.848	12601
929.953	12639
930.058	12494
930.163	12350
930.267	12342
930.372	12456
930.477	12300
930.581	12502
930.685	12399
930.79	12178
930.894	12205
930.998	12155
931.103	12315
931.207	11927
931.311	11821
931.415	11726
931.519	11528
931.623	11604
