Data from test_V78500241_1961.txt Node
Date: Fri Mar 25 15:55:23 CST 2022
User: usil
Spectrometer: V785-0024
Trigger mode: 0
Integration Time (sec): 4.000000E-1
Scans to average: 1
Nonlinearity correction enabled: false
Boxcar width: 0
Storing dark spectrum: false
XAxis mode: Wavelengths
Number of Pixels in Spectrum: 1024
>>>>>Begin Spectral Data<<<<<
801.071	28634
801.214	28771
801.356	28451
801.499	28299
801.641	28261
801.783	28082
801.926	28188
802.068	28287
802.211	28204
802.353	28204
802.496	27846
802.638	27895
802.78	27854
802.923	27831
803.065	27713
803.208	27964
803.35	27956
803.492	28082
803.635	28154
803.777	28070
803.919	28211
804.061	28375
804.204	28284
804.346	28093
804.488	28032
804.63	28207
804.773	28006
804.915	28253
805.057	28276
805.199	28169
805.341	28257
805.483	28166
805.626	28436
805.768	28249
805.91	28287
806.052	28428
806.194	28280
806.336	28462
806.478	28356
806.62	28249
806.762	28428
806.904	28535
807.046	28949
807.188	28649
807.33	28786
807.472	28740
807.614	28630
807.756	28736
807.898	28557
808.04	28736
808.182	28577
808.324	28622
808.465	28592
808.607	28885
808.749	28957
808.891	29056
809.033	29018
809.174	29071
809.316	28923
809.458	29003
809.6	28961
809.741	29033
809.883	29174
810.025	29178
810.166	29311
810.308	29239
810.45	29128
810.591	29227
810.733	29003
810.875	29090
811.016	28900
811.158	28942
811.299	29128
811.441	29162
811.582	29197
811.724	29010
811.865	28968
812.007	29079
812.148	29083
812.29	28968
812.431	29273
812.573	29421
812.714	29433
812.855	29463
812.997	29516
813.138	29805
813.279	29478
813.421	29554
813.562	29349
813.703	29299
813.845	29246
813.986	29140
814.127	28797
814.268	28740
814.41	28786
814.551	28694
814.692	28729
814.833	28637
814.974	28752
815.115	28710
815.256	28622
815.397	28557
815.539	28653
815.68	28363
815.821	28329
815.962	28519
816.103	28500
816.244	28261
816.385	28253
816.526	28329
816.666	28112
816.807	27926
816.948	28150
817.089	28105
817.23	28051
817.371	27972
817.512	28017
817.653	27991
817.793	27975
817.934	28029
818.075	27892
818.216	28029
818.356	27926
818.497	27850
818.638	27857
818.778	27728
818.919	27857
819.06	27827
819.2	27941
819.341	27907
819.481	27945
819.622	28284
819.762	28188
819.903	28097
820.043	28265
820.184	28177
820.324	28097
820.465	28299
820.605	28166
820.746	28090
820.886	27987
821.026	28105
821.167	28101
821.307	28006
821.447	28101
821.588	27926
821.728	27895
821.868	27701
822.008	27587
822.149	27580
822.289	27481
822.429	27249
822.569	27199
822.709	27233
822.849	26952
822.99	26940
823.13	26902
823.27	27024
823.41	26754
823.55	26697
823.69	26693
823.83	26758
823.97	26758
824.11	26549
824.25	26571
824.389	26632
824.529	26598
824.669	26651
824.809	26785
824.949	26842
825.089	26727
825.228	26678
825.368	26571
825.508	26453
825.648	26484
825.787	26476
825.927	26590
826.067	26629
826.206	26587
826.346	26476
826.485	26655
826.625	26530
826.765	26617
826.904	26442
827.044	26362
827.183	26275
827.323	26183
827.462	26218
827.601	26210
827.741	26149
827.88	26210
828.02	26119
828.159	26107
828.298	26233
828.437	26225
828.577	26073
828.716	26313
828.855	26046
828.994	25993
829.134	25860
829.273	25974
829.412	25875
829.551	25879
829.69	25913
829.829	25913
829.968	26084
830.107	25913
830.246	25860
830.385	25860
830.524	25731
830.663	25700
830.802	25597
830.941	25525
831.08	25499
831.219	25460
831.357	25575
831.496	25696
831.635	25521
831.774	25377
831.913	25419
832.051	25244
832.19	25293
832.329	25301
832.467	25247
832.606	25175
832.744	25107
832.883	25171
833.022	25110
833.16	25190
833.299	25118
833.437	25209
833.576	25274
833.714	25175
833.852	25263
833.991	25171
834.129	25209
834.267	25247
834.406	25213
834.544	25289
834.682	25266
834.821	25293
834.959	25468
835.097	25152
835.235	25308
835.373	25225
835.511	25221
835.65	25088
835.788	25194
835.926	25015
836.064	24817
836.202	24890
836.34	25012
836.478	25137
836.615	25088
836.753	25069
836.891	25164
837.029	25110
837.167	24935
837.305	24962
837.443	24844
837.58	24833
837.718	24886
837.856	24779
837.993	24806
838.131	24916
838.269	24692
838.406	24867
838.544	24601
838.681	24719
838.819	24517
838.956	24350
839.094	24418
839.231	24365
839.369	24414
839.506	24817
839.643	24593
839.781	24452
839.918	24247
840.055	24350
840.193	24338
840.33	24213
840.467	24304
840.604	24327
840.742	24536
840.879	24186
841.016	24110
841.153	24232
841.29	24277
841.427	24182
841.564	24106
841.701	24213
841.838	24258
841.975	24041
842.112	24155
842.249	24182
842.385	24072
842.522	24258
842.659	24022
842.796	24026
842.933	23859
843.069	23908
843.206	23954
843.343	24144
843.479	24015
843.616	24076
843.752	23824
843.889	23847
844.025	23920
844.162	23828
844.298	23821
844.435	23764
844.571	23764
844.708	23870
844.844	23939
844.98	23863
845.117	23863
845.253	23733
845.389	23543
845.525	23611
845.661	23657
845.798	23505
845.934	23516
846.07	23562
846.206	23440
846.342	23695
846.478	23402
846.614	23326
846.75	23250
846.886	23311
847.022	23273
847.158	23231
847.294	23364
847.429	23277
847.565	23208
847.701	23463
847.837	23037
847.972	22919
848.108	23048
848.244	23033
848.379	22892
848.515	22854
848.65	22862
848.786	22889
848.921	22740
849.057	22881
849.192	22938
849.328	22812
849.463	22847
849.598	22831
849.734	22713
849.869	22660
850.004	22554
850.14	22577
850.275	22649
850.41	22489
850.545	22497
850.68	22504
850.815	22607
850.95	22653
851.085	22809
851.22	22694
851.355	22580
851.49	22656
851.625	22500
851.76	22523
851.895	22531
852.03	22523
852.165	22611
852.299	22569
852.434	22645
852.569	22565
852.703	22516
852.838	22694
852.973	22721
853.107	22664
853.242	22459
853.376	22535
853.511	22379
853.645	22333
853.78	22504
853.914	22394
854.048	22348
854.183	22462
854.317	22577
854.451	22599
854.585	22478
854.72	22409
854.854	22508
854.988	22371
855.122	22474
855.256	22344
855.39	22268
855.524	22698
855.658	22546
855.792	22413
855.926	22512
856.06	22462
856.194	22565
856.327	22402
856.461	22455
856.595	22398
856.729	22398
856.862	22557
856.996	22474
857.13	22417
857.263	22504
857.397	22645
857.53	22497
857.664	22535
857.797	22523
857.931	22466
858.064	22466
858.197	22527
858.331	22398
858.464	22459
858.597	22367
858.731	22440
858.864	22394
858.997	22314
859.13	22424
859.263	22390
859.396	22573
859.529	22462
859.662	22447
859.795	22413
859.928	22417
860.061	22546
860.194	22710
860.327	22481
860.46	22462
860.592	22508
860.725	22611
860.858	22592
860.99	22500
861.123	22356
861.256	22371
861.388	22451
861.521	23296
861.653	22333
861.786	22166
861.918	22280
862.05	22185
862.183	22375
862.315	22409
862.447	22485
862.58	22310
862.712	22257
862.844	22101
862.976	22280
863.108	22215
863.24	22588
863.372	22082
863.504	22265
863.636	22166
863.768	22101
863.9	22226
864.032	21979
864.164	22139
864.296	22226
864.428	22177
864.559	22204
864.691	22166
864.823	22147
864.954	22299
865.086	22097
865.217	22032
865.349	21930
865.48	22120
865.612	22097
865.743	22226
865.875	22082
866.006	21953
866.137	22101
866.269	21994
866.4	21979
866.531	21903
866.662	21953
866.793	22013
866.924	21865
867.055	22017
867.186	22021
867.317	21979
867.448	21884
867.579	21937
867.71	21922
867.841	21808
867.972	21918
868.103	21926
868.233	21956
868.364	22059
868.495	22074
868.625	22131
868.756	22265
868.886	22055
869.017	22234
869.147	22337
869.278	22150
869.408	22295
869.539	22257
869.669	22188
869.799	22185
869.929	22337
870.06	22314
870.19	22440
870.32	22546
870.45	22504
870.58	22599
870.71	22736
870.84	22660
870.97	22531
871.1	22622
871.23	22683
871.36	22672
871.489	22626
871.619	22801
871.749	22771
871.879	22889
872.008	22911
872.138	22809
872.267	22843
872.397	22580
872.526	22698
872.656	22660
872.785	22706
872.915	22736
873.044	22869
873.173	22793
873.303	22892
873.432	22816
873.561	22904
873.69	22805
873.819	22904
873.948	22873
874.077	22858
874.206	22698
874.335	22793
874.464	22820
874.593	23044
874.722	23075
874.851	22930
874.979	22995
875.108	23079
875.237	22953
875.365	22908
875.494	22953
875.623	23132
875.751	22980
875.88	23098
876.008	23147
876.136	23136
876.265	23387
876.393	23429
876.521	23444
876.65	23463
876.778	23444
876.906	23353
877.034	23318
877.162	23467
877.29	23292
877.418	23349
877.546	23402
877.674	23318
877.802	23235
877.93	23356
878.058	23334
878.185	23208
878.313	23334
878.441	23345
878.568	23212
878.696	23299
878.824	23455
878.951	23406
879.079	23497
879.206	23684
879.333	23497
879.461	23330
879.588	23474
879.715	23497
879.842	23589
879.97	23482
880.097	23200
880.224	23174
880.351	23178
880.478	23090
880.605	23102
880.732	23162
880.859	23376
880.986	23288
881.112	23151
881.239	22965
881.366	22889
881.493	22885
881.619	22767
881.746	22767
881.872	22626
881.999	22744
882.125	22683
882.252	22831
882.378	22599
882.505	22797
882.631	22561
882.757	22550
882.883	22421
883.01	22402
883.136	22352
883.262	22139
883.388	22246
883.514	22398
883.64	22417
883.766	22344
883.892	22158
884.018	22246
884.143	22291
884.269	22402
884.395	22181
884.52	22051
884.646	22048
884.772	22048
884.897	21937
885.023	22048
885.148	22128
885.274	22230
885.399	22162
885.524	22048
885.65	22154
885.775	22006
885.9	22059
886.025	22249
886.15	22154
886.275	21953
886.4	21895
886.525	21895
886.65	21899
886.775	21907
886.9	22147
887.025	22162
887.149	21941
887.274	21838
887.399	21728
887.523	21804
887.648	21747
887.773	21644
887.897	21861
888.021	21766
888.146	21800
888.27	21800
888.395	21766
888.519	21759
888.643	21876
888.767	21911
888.891	21660
889.015	21625
889.139	21591
889.263	21656
889.387	21663
889.511	21793
889.635	21759
889.759	21690
889.883	21580
890.006	21568
890.13	21686
890.254	21481
890.377	21519
890.501	21313
890.624	21348
890.748	21325
890.871	21245
890.995	21127
891.118	21123
891.241	21176
891.364	21138
891.488	21268
891.611	21116
891.734	21085
891.857	21249
891.98	21275
892.103	21161
892.226	21218
892.349	21036
892.471	20880
892.594	21173
892.717	21001
892.839	21058
892.962	21058
893.085	21096
893.207	21123
893.33	20819
893.452	21043
893.575	21085
893.697	21039
893.819	21112
893.941	21226
894.064	21104
894.186	21028
894.308	20941
894.43	21005
894.552	21192
894.674	21070
894.796	20967
894.918	20937
895.04	20971
895.161	21157
895.283	20990
895.405	20975
895.526	20990
895.648	20834
895.769	21081
895.891	20986
896.012	21112
896.134	21017
896.255	21051
896.376	20952
896.498	20971
896.619	21074
896.74	21013
896.861	21138
896.982	21389
897.103	21428
897.224	21283
897.345	21283
897.466	21192
897.587	21222
897.708	21401
897.828	21233
897.949	21207
898.07	21150
898.19	21062
898.311	21355
898.431	21165
898.552	21108
898.672	21279
898.792	21256
898.913	21237
899.033	21192
899.153	20998
899.273	20883
899.393	20899
899.513	20891
899.633	21051
899.753	20910
899.873	20785
899.993	20952
900.113	20868
900.232	20876
900.352	20842
900.472	20895
900.591	20746
900.711	20667
900.83	20621
900.95	20777
901.069	20826
901.189	20537
901.308	20317
901.427	20183
901.546	20267
901.665	20343
901.784	20233
901.904	20225
902.023	20122
902.141	19879
902.26	19788
902.379	19822
902.498	19833
902.617	19685
902.735	19799
902.854	19757
902.973	19609
903.091	19457
903.21	19438
903.328	19354
903.446	19339
903.565	19198
903.683	19263
903.801	19046
903.919	19175
904.038	19084
904.156	19152
904.274	19213
904.392	19084
904.51	19053
904.627	19046
904.745	19019
904.863	18962
904.981	18848
905.098	18631
905.216	18661
905.334	18757
905.451	18817
905.569	18593
905.686	18715
905.803	18589
905.921	18365
906.038	18616
906.155	18445
906.272	18292
906.389	18376
906.506	18148
906.623	18213
906.74	18216
906.857	18155
906.974	18178
907.091	18205
907.208	18239
907.324	18232
907.441	18038
907.557	18057
907.674	18030
907.79	17824
907.907	17786
908.023	17939
908.139	17828
908.256	17722
908.372	17771
908.488	17764
908.604	17661
908.72	17672
908.836	17668
908.952	17691
909.068	17665
909.184	17722
909.3	17547
909.415	17684
909.531	17691
909.647	17273
909.762	17376
909.878	17204
909.993	17402
910.108	17296
910.224	17242
910.339	17307
910.454	17197
910.57	17204
910.685	17064
910.8	17330
910.915	17258
911.03	17071
911.145	16957
911.259	16889
911.374	16797
911.489	16885
911.604	16698
911.718	16565
911.833	16611
911.947	16519
912.062	16523
912.176	16675
912.291	16660
912.405	16561
912.519	16778
912.633	16824
912.748	16782
912.862	16630
912.976	16428
913.09	16413
913.204	16443
913.318	16440
913.431	16538
913.545	16470
913.659	16618
913.772	16318
913.886	16169
914	16257
914.113	16337
914.226	16363
914.34	16402
914.453	16204
914.566	16272
914.68	16166
914.793	16120
914.906	15873
915.019	15899
915.132	15800
915.245	15808
915.358	15743
915.47	15709
915.583	15831
915.696	15785
915.809	15899
915.921	15945
916.034	15759
916.146	15751
916.259	15606
916.371	15766
916.483	15736
916.595	15705
916.708	15690
916.82	15622
916.932	15576
917.044	15644
917.156	15557
917.268	15568
917.38	15370
917.491	15416
917.603	15469
917.715	15405
917.826	15538
917.938	15340
918.049	15291
918.161	15340
918.272	15408
918.384	15530
918.495	15363
918.606	15272
918.717	15173
918.828	15226
918.939	15222
919.05	15112
919.161	15097
919.272	15001
919.383	15062
919.494	15199
919.604	15477
919.715	15119
919.826	15020
919.936	15138
920.047	15131
920.157	15188
920.267	15405
920.378	15119
920.488	15028
920.598	15313
920.708	15450
920.818	15294
920.928	15272
921.038	15428
921.148	15477
921.258	15157
921.368	14998
921.477	14834
921.587	14830
921.697	14697
921.806	14849
921.916	14659
922.025	14594
922.134	14530
922.244	14495
922.353	14503
922.462	14381
922.571	14218
922.68	14195
922.789	14134
922.898	14138
923.007	14096
923.116	14164
923.224	14069
923.333	14161
923.442	13993
923.55	13906
923.659	13955
923.767	14073
923.876	13925
923.984	13989
924.092	13814
924.201	13826
924.309	13974
924.417	13917
924.525	13753
924.633	13780
924.741	14807
924.849	13597
924.956	13746
925.064	13594
925.172	13518
925.279	13464
925.387	13495
925.494	13537
925.602	13620
925.709	13609
925.816	13480
925.924	13464
926.031	13616
926.138	13476
926.245	13582
926.352	13403
926.459	13445
926.566	13578
926.673	13460
926.779	13301
926.886	13232
926.993	13171
927.099	13069
927.206	13057
927.312	13008
927.419	13175
927.525	13053
927.631	13103
927.737	12966
927.843	12985
927.95	12829
928.056	12993
928.162	12981
928.267	12916
928.373	13487
928.479	12993
928.585	12760
928.69	12890
928.796	12871
928.901	12798
929.007	12566
929.112	12688
929.218	12764
929.323	12715
929.428	12623
929.533	12833
929.638	12589
929.743	12547
929.848	12589
929.953	12551
930.058	12460
930.163	12235
930.267	12296
930.372	12433
930.477	12216
930.581	12479
930.685	12304
930.79	12068
930.894	12228
930.998	12220
931.103	12289
931.207	11851
931.311	11817
931.415	11752
931.519	11486
931.623	11543
