Data from test_V78500241_390.txt Node
Date: Fri Mar 25 15:44:30 CST 2022
User: usil
Spectrometer: V785-0024
Trigger mode: 0
Integration Time (sec): 4.000000E-1
Scans to average: 1
Nonlinearity correction enabled: false
Boxcar width: 0
Storing dark spectrum: false
XAxis mode: Wavelengths
Number of Pixels in Spectrum: 1024
>>>>>Begin Spectral Data<<<<<
801.071	29421
801.214	29368
801.356	29265
801.499	29056
801.641	29083
801.783	29102
801.926	29094
802.068	28991
802.211	28999
802.353	28805
802.496	28729
802.638	28519
802.78	28687
802.923	28649
803.065	28683
803.208	28721
803.35	28729
803.492	28771
803.635	28839
803.777	28831
803.919	28892
804.061	29117
804.204	28805
804.346	28919
804.488	28694
804.63	29014
804.773	28839
804.915	28991
805.057	28957
805.199	28873
805.341	28900
805.483	29052
805.626	28991
805.768	28930
805.91	28976
806.052	29029
806.194	28953
806.336	29128
806.478	29067
806.62	29022
806.762	28961
806.904	29395
807.046	29486
807.188	29528
807.33	29307
807.472	29478
807.614	29375
807.756	29402
807.898	29277
808.04	29105
808.182	29102
808.324	29356
808.465	29280
808.607	29322
808.749	29509
808.891	29779
809.033	29893
809.174	29680
809.316	29726
809.458	29661
809.6	29672
809.741	29802
809.883	29813
810.025	29901
810.166	29901
810.308	30091
810.45	29965
810.591	29954
810.733	29843
810.875	29703
811.016	29623
811.158	29482
811.299	29893
811.441	29699
811.582	29893
811.724	29604
811.865	29642
812.007	29707
812.148	29710
812.29	29707
812.431	29630
812.573	29874
812.714	30034
812.855	30228
812.997	30194
813.138	30547
813.279	30361
813.421	30053
813.562	30053
813.703	30098
813.845	29866
813.986	29623
814.127	29307
814.268	29303
814.41	29379
814.551	29200
814.692	29391
814.833	29174
814.974	29132
815.115	29417
815.256	29193
815.397	29086
815.539	29189
815.68	29121
815.821	28980
815.962	29178
816.103	29132
816.244	29022
816.385	28900
816.526	28957
816.666	28637
816.807	28577
816.948	28611
817.089	28603
817.23	28653
817.371	28611
817.512	28519
817.653	28466
817.793	28622
817.934	28462
818.075	28546
818.216	28584
818.356	28440
818.497	28417
818.638	28169
818.778	28268
818.919	28413
819.06	28322
819.2	28424
819.341	28531
819.481	28580
819.622	28607
819.762	28801
819.903	28793
820.043	28713
820.184	28683
820.324	28599
820.465	28649
820.605	28550
820.746	28493
820.886	28478
821.026	28656
821.167	28607
821.307	28763
821.447	28516
821.588	28398
821.728	28360
821.868	28013
822.008	27937
822.149	27937
822.289	27964
822.429	27804
822.569	27625
822.709	27682
822.849	27511
822.99	27401
823.13	27363
823.27	27439
823.41	27260
823.55	27188
823.69	27348
823.83	27275
823.97	27192
824.11	27203
824.25	26967
824.389	27024
824.529	27123
824.669	27150
824.809	27066
824.949	27222
825.089	27176
825.228	27112
825.368	26929
825.508	26842
825.648	26971
825.787	26944
825.927	27024
826.067	26819
826.206	26872
826.346	26914
826.485	26925
826.625	26891
826.765	26986
826.904	27013
827.044	26632
827.183	26659
827.323	26530
827.462	26727
827.601	26651
827.741	26788
827.88	26735
828.02	26522
828.159	26530
828.298	26648
828.437	26735
828.577	26450
828.716	26693
828.855	26473
828.994	26366
829.134	26282
829.273	26366
829.412	26313
829.551	26256
829.69	26244
829.829	26336
829.968	26408
830.107	26324
830.246	26339
830.385	26206
830.524	26214
830.663	26069
830.802	26005
830.941	25875
831.08	25860
831.219	25860
831.357	25845
831.496	26176
831.635	25894
831.774	25791
831.913	25731
832.051	25742
832.19	25693
832.329	25685
832.467	25491
832.606	25449
832.744	25601
832.883	25620
833.022	25624
833.16	25521
833.299	25438
833.437	25506
833.576	25635
833.714	25597
833.852	25670
833.991	25556
834.129	25647
834.267	25635
834.406	25552
834.544	25556
834.682	25613
834.821	25571
834.959	25723
835.097	25510
835.235	25742
835.373	25483
835.511	25521
835.65	25445
835.788	25396
835.926	25206
836.064	25023
836.202	25274
836.34	25316
836.478	25396
836.615	25293
836.753	25316
836.891	25373
837.029	25285
837.167	25270
837.305	25198
837.443	25114
837.58	25168
837.718	25232
837.856	25160
837.993	25103
838.131	25194
838.269	25038
838.406	25114
838.544	25012
838.681	24692
838.819	24722
838.956	24623
839.094	24639
839.231	24661
839.369	24749
839.506	24932
839.643	24863
839.781	24547
839.918	24479
840.055	24627
840.193	24536
840.33	24574
840.467	24631
840.604	24551
840.742	24692
840.879	24486
841.016	24452
841.153	24266
841.29	24593
841.427	24525
841.564	24456
841.701	24456
841.838	24422
841.975	24330
842.112	24407
842.249	24239
842.385	24114
842.522	24445
842.659	24266
842.796	24129
842.933	24330
843.069	24171
843.206	24064
843.343	24190
843.479	24174
843.616	24239
843.752	23954
843.889	24083
844.025	23992
844.162	23893
844.298	23954
844.435	23942
844.571	23988
844.708	23897
844.844	24133
844.98	24083
845.117	24045
845.253	23832
845.389	23866
845.525	23783
845.661	23710
845.798	23710
845.934	23642
846.07	23764
846.206	23589
846.342	23767
846.478	23604
846.614	23531
846.75	23368
846.886	23341
847.022	23433
847.158	23318
847.294	23353
847.429	23273
847.565	23315
847.701	23623
847.837	23014
847.972	23086
848.108	23079
848.244	23124
848.379	23003
848.515	22980
848.65	22984
848.786	22915
848.921	22957
849.057	23136
849.192	23018
849.328	22957
849.463	23033
849.598	22904
849.734	22991
849.869	22801
850.004	22660
850.14	22687
850.275	22660
850.41	22653
850.545	22656
850.68	22668
850.815	22615
850.95	22653
851.085	22839
851.22	22713
851.355	22729
851.49	22725
851.625	22611
851.76	22664
851.895	22656
852.03	22542
852.165	22672
852.299	22759
852.434	22668
852.569	22683
852.703	22759
852.838	22820
852.973	22801
853.107	22733
853.242	22634
853.376	22512
853.511	22367
853.645	22440
853.78	22535
853.914	22402
854.048	22584
854.183	22443
854.317	22497
854.451	22809
854.585	22519
854.72	22512
854.854	22546
854.988	22428
855.122	22508
855.256	22398
855.39	22348
855.524	22462
855.658	22592
855.792	22466
855.926	22493
856.06	22599
856.194	22615
856.327	22466
856.461	22485
856.595	22478
856.729	22436
856.862	22679
856.996	22478
857.13	22516
857.263	22592
857.397	22577
857.53	22481
857.664	22508
857.797	22474
857.931	22603
858.064	22519
858.197	22607
858.331	22451
858.464	22424
858.597	22341
858.731	22371
858.864	22405
858.997	22405
859.13	22432
859.263	22535
859.396	22462
859.529	22504
859.662	22386
859.795	22265
859.928	22405
860.061	22493
860.194	22592
860.327	22459
860.46	22481
860.592	22512
860.725	22561
860.858	22596
860.99	22451
861.123	22310
861.256	22382
861.388	22466
861.521	23083
861.653	22367
861.786	22459
861.918	22276
862.05	22303
862.183	22284
862.315	22402
862.447	22497
862.58	22402
862.712	22196
862.844	22105
862.976	22207
863.108	22253
863.24	22672
863.372	22021
863.504	22196
863.636	22078
863.768	22086
863.9	22112
864.032	22013
864.164	22086
864.296	22150
864.428	22265
864.559	22086
864.691	22185
864.823	22093
864.954	22101
865.086	22070
865.217	22074
865.349	21994
865.48	22086
865.612	22010
865.743	22158
865.875	21953
866.006	21953
866.137	22101
866.269	22021
866.4	21987
866.531	22051
866.662	21922
866.793	22006
866.924	21880
867.055	21983
867.186	21922
867.317	21937
867.448	21884
867.579	21899
867.71	21842
867.841	21766
867.972	21907
868.103	21918
868.233	21926
868.364	21861
868.495	22078
868.625	22032
868.756	22078
868.886	22101
869.017	22188
869.147	22150
869.278	22230
869.408	22154
869.539	22135
869.669	22211
869.799	22196
869.929	22234
870.06	22124
870.19	22440
870.32	22382
870.45	22409
870.58	22527
870.71	22691
870.84	22645
870.97	22428
871.1	22618
871.23	22668
871.36	22736
871.489	22584
871.619	22805
871.749	22672
871.879	22672
872.008	22847
872.138	22725
872.267	22839
872.397	22740
872.526	22668
872.656	22580
872.785	22584
872.915	22850
873.044	22748
873.173	22831
873.303	22839
873.432	22725
873.561	22919
873.69	22843
873.819	22717
873.948	22881
874.077	22717
874.206	22767
874.335	22809
874.464	22987
874.593	22991
874.722	22904
874.851	23037
874.979	22877
875.108	23037
875.237	22915
875.365	22862
875.494	23083
875.623	23014
875.751	22843
875.88	22987
876.008	22987
876.136	23025
876.265	23368
876.393	23516
876.521	23406
876.65	23376
876.778	23345
876.906	23360
877.034	23334
877.162	23265
877.29	23265
877.418	23277
877.546	23391
877.674	23353
877.802	23284
877.93	23337
878.058	23299
878.185	23128
878.313	23258
878.441	23227
878.568	23060
878.696	23277
878.824	23303
878.951	23421
879.079	23581
879.206	23558
879.333	23349
879.461	23395
879.588	23459
879.715	23524
879.842	23528
879.97	23493
880.097	23181
880.224	23166
880.351	23296
880.478	23155
880.605	23102
880.732	23094
880.859	23337
880.986	23170
881.112	23174
881.239	23140
881.366	22843
881.493	22831
881.619	22634
881.746	22748
881.872	22713
881.999	22812
882.125	22660
882.252	22809
882.378	22607
882.505	22725
882.631	22500
882.757	22474
882.883	22497
883.01	22375
883.136	22344
883.262	22306
883.388	22280
883.514	22295
883.64	22421
883.766	22303
883.892	22226
884.018	22272
884.143	22284
884.269	22318
884.395	21975
884.52	21926
884.646	22017
884.772	22067
884.897	21869
885.023	22086
885.148	22032
885.274	22211
885.399	22116
885.524	22036
885.65	21991
885.775	22059
885.9	21895
886.025	22143
886.15	22078
886.275	22002
886.4	21888
886.525	22025
886.65	22010
886.775	22002
886.9	21994
887.025	22185
887.149	22013
887.274	21785
887.399	21804
887.523	21835
887.648	21698
887.773	21660
887.897	21800
888.021	21800
888.146	21694
888.27	21739
888.395	22006
888.519	21937
888.643	21838
888.767	21789
888.891	21736
889.015	21656
889.139	21660
889.263	21435
889.387	21622
889.511	21701
889.635	21580
889.759	21587
889.883	21481
890.006	21450
890.13	21625
890.254	21412
890.377	21462
890.501	21317
890.624	21378
890.748	21420
890.871	21260
890.995	21116
891.118	21131
891.241	21165
891.364	21108
891.488	21310
891.611	21093
891.734	21070
891.857	21199
891.98	21135
892.103	21085
892.226	21112
892.349	21039
892.471	20963
892.594	20963
892.717	21062
892.839	21085
892.962	21020
893.085	21043
893.207	20975
893.33	21013
893.452	20971
893.575	20971
893.697	20937
893.819	21066
893.941	21138
894.064	21100
894.186	21036
894.308	20941
894.43	21093
894.552	21123
894.674	21058
894.796	20849
894.918	21032
895.04	21055
895.161	21112
895.283	20910
895.405	20967
895.526	20925
895.648	20910
895.769	20967
895.891	21058
896.012	20990
896.134	21001
896.255	20990
896.376	21081
896.498	20956
896.619	21028
896.74	21032
896.861	21077
896.982	21389
897.103	21378
897.224	21226
897.345	21241
897.466	21104
897.587	21173
897.708	21382
897.828	21294
897.949	21157
898.07	21089
898.19	21108
898.311	21294
898.431	21135
898.552	21100
898.672	21378
898.792	21279
898.913	21233
899.033	21089
899.153	21093
899.273	20948
899.393	20925
899.513	20902
899.633	20891
899.753	20937
899.873	20849
899.993	20986
900.113	20876
900.232	21039
900.352	21032
900.472	20792
900.591	20739
900.711	20781
900.83	20640
900.95	20826
901.069	20758
901.189	20640
901.308	20370
901.427	20271
901.546	20278
901.665	20233
901.784	20389
901.904	20233
902.023	19963
902.141	19841
902.26	19772
902.379	19803
902.498	19791
902.617	19693
902.735	19753
902.854	19761
902.973	19738
903.091	19514
903.21	19491
903.328	19415
903.446	19285
903.565	19270
903.683	19266
903.801	19202
903.919	19187
904.038	19099
904.156	18935
904.274	19031
904.392	18859
904.51	19038
904.627	18970
904.745	19057
904.863	19042
904.981	18753
905.098	18578
905.216	18631
905.334	18604
905.451	18585
905.569	18661
905.686	18673
905.803	18593
905.921	18475
906.038	18601
906.155	18433
906.272	18323
906.389	18334
906.506	18182
906.623	18201
906.74	18232
906.857	18076
906.974	17999
907.091	18232
907.208	18304
907.324	18209
907.441	18049
907.557	17882
907.674	17897
907.79	17771
907.907	17878
908.023	17874
908.139	17817
908.256	17737
908.372	17737
908.488	17703
908.604	17577
908.72	17581
908.836	17608
908.952	17596
909.068	17562
909.184	17756
909.3	17611
909.415	17482
909.531	17516
909.647	17330
909.762	17250
909.878	17193
909.993	17349
910.108	17235
910.224	17140
910.339	17178
910.454	17090
910.57	17064
910.685	16980
910.8	17197
910.915	17159
911.03	16991
911.145	16797
911.259	16805
911.374	16869
911.489	16812
911.604	16713
911.718	16531
911.833	16588
911.947	16470
912.062	16348
912.176	16577
912.291	16569
912.405	16531
912.519	16694
912.633	16679
912.748	16599
912.862	16390
912.976	16318
913.09	16261
913.204	16318
913.318	16436
913.431	16470
913.545	16409
913.659	16462
913.772	16318
913.886	16295
914	16166
914.113	16268
914.226	16246
914.34	16131
914.453	16059
914.566	16078
914.68	16074
914.793	15998
914.906	15797
915.019	15705
915.132	15667
915.245	15701
915.358	15747
915.47	15762
915.583	15781
915.696	15823
915.809	15903
915.921	15816
916.034	15717
916.146	15682
916.259	15504
916.371	15667
916.483	15656
916.595	15576
916.708	15595
916.82	15553
916.932	15500
917.044	15504
917.156	15454
917.268	15302
917.38	15393
917.491	15397
917.603	15363
917.715	15393
917.826	15507
917.938	15348
918.049	15195
918.161	15279
918.272	15473
918.384	15405
918.495	15351
918.606	15218
918.717	15058
918.828	15104
918.939	15081
919.05	15131
919.161	15100
919.272	14853
919.383	14990
919.494	15070
919.604	15329
919.715	15062
919.826	15123
919.936	15051
920.047	15127
920.157	15043
920.267	15226
920.378	15039
920.488	14990
920.598	15180
920.708	15336
920.818	15188
920.928	15180
921.038	15329
921.148	15294
921.258	15039
921.368	14864
921.477	14746
921.587	14746
921.697	14629
921.806	14697
921.916	14560
922.025	14533
922.134	14488
922.244	14366
922.353	14408
922.462	14233
922.571	14149
922.68	14119
922.789	14054
922.898	14096
923.007	13967
923.116	14062
923.224	14043
923.333	14005
923.442	13871
923.55	13856
923.659	13928
923.767	13898
923.876	13860
923.984	13860
924.092	13693
924.201	13788
924.309	13795
924.417	13670
924.525	13624
924.633	13677
924.741	14621
924.849	13502
924.956	13597
925.064	13499
925.172	13529
925.279	13362
925.387	13502
925.494	13464
925.602	13426
925.709	13491
925.816	13343
925.924	13312
926.031	13453
926.138	13278
926.245	13426
926.352	13244
926.459	13480
926.566	13445
926.673	13316
926.779	13293
926.886	13137
926.993	12954
927.099	13000
927.206	12886
927.312	12882
927.419	13038
927.525	12970
927.631	12958
927.737	12795
927.843	12749
927.95	12696
928.056	12734
928.162	12844
928.267	12840
928.373	13480
928.479	12856
928.585	12589
928.69	12745
928.796	12726
928.901	12585
929.007	12464
929.112	12681
929.218	12517
929.323	12528
929.428	12490
929.533	12654
929.638	12426
929.743	12388
929.848	12513
929.953	12426
930.058	12308
930.163	12171
930.267	12186
930.372	12304
930.477	12159
930.581	12426
930.685	12228
930.79	12049
930.894	12045
930.998	11999
931.103	12186
931.207	11866
931.311	11726
931.415	11558
931.519	11490
931.623	11387
