Data from test_V78500241_2771.txt Node
Date: Fri Mar 25 16:00:59 CST 2022
User: usil
Spectrometer: V785-0024
Trigger mode: 0
Integration Time (sec): 4.000000E-1
Scans to average: 1
Nonlinearity correction enabled: false
Boxcar width: 0
Storing dark spectrum: false
XAxis mode: Wavelengths
Number of Pixels in Spectrum: 1024
>>>>>Begin Spectral Data<<<<<
801.071	29124
801.214	29151
801.356	28774
801.499	28850
801.641	28759
801.783	28702
801.926	28755
802.068	28679
802.211	28592
802.353	28675
802.496	28405
802.638	28333
802.78	28356
802.923	28261
803.065	28363
803.208	28318
803.35	28329
803.492	28523
803.635	28687
803.777	28542
803.919	28565
804.061	28991
804.204	28725
804.346	28660
804.488	28531
804.63	28694
804.773	28538
804.915	28675
805.057	28805
805.199	28504
805.341	28649
805.483	28702
805.626	28782
805.768	28691
805.91	28744
806.052	28968
806.194	28649
806.336	28965
806.478	28972
806.62	28797
806.762	28934
806.904	29132
807.046	29315
807.188	29140
807.33	29315
807.472	29303
807.614	29299
807.756	29261
807.898	29094
808.04	29086
808.182	29056
808.324	29239
808.465	29185
808.607	29417
808.749	29440
808.891	29611
809.033	29764
809.174	29478
809.316	29547
809.458	29524
809.6	29566
809.741	29608
809.883	29748
810.025	29821
810.166	29786
810.308	29824
810.45	29802
810.591	29786
810.733	29646
810.875	29554
811.016	29478
811.158	29364
811.299	29646
811.441	29592
811.582	29699
811.724	29581
811.865	29554
812.007	29623
812.148	29577
812.29	29718
812.431	29737
812.573	29889
812.714	29988
812.855	30057
812.997	30235
813.138	30174
813.279	30155
813.421	30148
813.562	29851
813.703	29851
813.845	29676
813.986	29589
814.127	29383
814.268	29151
814.41	29440
814.551	29235
814.692	29318
814.833	29254
814.974	29220
815.115	29349
815.256	29162
815.397	29223
815.539	29197
815.68	29155
815.821	29064
815.962	29151
816.103	29250
816.244	29037
816.385	29075
816.526	28763
816.666	28702
816.807	28538
816.948	28622
817.089	28679
817.23	28740
817.371	28596
817.512	28626
817.653	28618
817.793	28409
817.934	28523
818.075	28664
818.216	28694
818.356	28523
818.497	28538
818.638	28261
818.778	28318
818.919	28489
819.06	28409
819.2	28493
819.341	28451
819.481	28721
819.622	28740
819.762	28930
819.903	28942
820.043	28759
820.184	28790
820.324	28767
820.465	28733
820.605	28725
820.746	28626
820.886	28615
821.026	28596
821.167	28664
821.307	28748
821.447	28679
821.588	28615
821.728	28386
821.868	28234
822.008	28173
822.149	28013
822.289	28105
822.429	27911
822.569	27842
822.709	27778
822.849	27572
822.99	27591
823.13	27538
823.27	27534
823.41	27447
823.55	27351
823.69	27416
823.83	27469
823.97	27492
824.11	27207
824.25	27207
824.389	27218
824.529	27203
824.669	27222
824.809	27473
824.949	27313
825.089	27291
825.228	27241
825.368	27051
825.508	27058
825.648	27116
825.787	27237
825.927	27283
826.067	27161
826.206	27089
826.346	27192
826.485	27146
826.625	27256
826.765	27214
826.904	27268
827.044	26876
827.183	26864
827.323	26785
827.462	27081
827.601	27100
827.741	26830
827.88	26940
828.02	26731
828.159	26811
828.298	26815
828.437	26880
828.577	26788
828.716	26887
828.855	26872
828.994	26526
829.134	26556
829.273	26587
829.412	26659
829.551	26621
829.69	26594
829.829	26541
829.968	26575
830.107	26579
830.246	26549
830.385	26537
830.524	26484
830.663	26393
830.802	26191
830.941	26073
831.08	26096
831.219	26180
831.357	26374
831.496	26438
831.635	26096
831.774	25986
831.913	26008
832.051	25921
832.19	26001
832.329	25993
832.467	25947
832.606	25643
832.744	25761
832.883	25658
833.022	25723
833.16	25719
833.299	25837
833.437	25795
833.576	25989
833.714	25871
833.852	25951
833.991	26046
834.129	25951
834.267	25879
834.406	25925
834.544	25944
834.682	25879
834.821	25814
834.959	26077
835.097	25693
835.235	25906
835.373	26024
835.511	25795
835.65	25693
835.788	25635
835.926	25506
836.064	25533
836.202	25563
836.34	25712
836.478	25852
836.615	25655
836.753	25814
836.891	25685
837.029	25780
837.167	25727
837.305	25567
837.443	25586
837.58	25491
837.718	25605
837.856	25693
837.993	25441
838.131	25510
838.269	25350
838.406	25422
838.544	25324
838.681	25152
838.819	25175
838.956	25053
839.094	24989
839.231	24973
839.369	25152
839.506	25419
839.643	25213
839.781	25008
839.918	24947
840.055	24966
840.193	24905
840.33	24985
840.467	24901
840.604	24886
840.742	25156
840.879	24856
841.016	24768
841.153	24814
841.29	24951
841.427	24954
841.564	24757
841.701	24848
841.838	24757
841.975	24825
842.112	24802
842.249	24635
842.385	24616
842.522	24787
842.659	24669
842.796	24631
842.933	24604
843.069	24612
843.206	24639
843.343	24795
843.479	24589
843.616	24631
843.752	24464
843.889	24528
844.025	24563
844.162	24517
844.298	24429
844.435	24388
844.571	24429
844.708	24452
844.844	24635
844.98	24574
845.117	24646
845.253	24418
845.389	24410
845.525	24247
845.661	24239
845.798	24228
845.934	24369
846.07	24133
846.206	24110
846.342	24273
846.478	24178
846.614	23836
846.75	23832
846.886	23908
847.022	23946
847.158	23885
847.294	23904
847.429	23836
847.565	23851
847.701	24117
847.837	23722
847.972	23604
848.108	23687
848.244	23630
848.379	23520
848.515	23299
848.65	23349
848.786	23448
848.921	23554
849.057	23589
849.192	23573
849.328	23490
849.463	23322
849.598	23364
849.734	23337
849.869	23242
850.004	23155
850.14	23299
850.275	23296
850.41	23102
850.545	23239
850.68	23235
850.815	23356
850.95	23090
851.085	23425
851.22	23284
851.355	23223
851.49	23185
851.625	23109
851.76	23189
851.895	23200
852.03	23147
852.165	23216
852.299	23193
852.434	23296
852.569	23212
852.703	23151
852.838	23239
852.973	23258
853.107	23353
853.242	23113
853.376	23105
853.511	23022
853.645	23086
853.78	23235
853.914	23006
854.048	23048
854.183	22953
854.317	23056
854.451	23261
854.585	23098
854.72	23098
854.854	23261
854.988	22953
855.122	23083
855.256	23067
855.39	22862
855.524	22980
855.658	23121
855.792	23025
855.926	22999
856.06	23102
856.194	23185
856.327	22995
856.461	22831
856.595	23041
856.729	23060
856.862	23200
856.996	23025
857.13	23109
857.263	23121
857.397	23193
857.53	23014
857.664	23075
857.797	23079
857.931	23151
858.064	22984
858.197	23147
858.331	22904
858.464	23025
858.597	23052
858.731	23048
858.864	22984
858.997	23006
859.13	23018
859.263	23006
859.396	23022
859.529	23064
859.662	23044
859.795	22900
859.928	23109
860.061	23162
860.194	23197
860.327	23003
860.46	23124
860.592	23185
860.725	23105
860.858	23155
860.99	23102
861.123	22995
861.256	22987
861.388	22938
861.521	23764
861.653	22957
861.786	22771
861.918	22908
862.05	23064
862.183	22949
862.315	22984
862.447	23022
862.58	22911
862.712	22881
862.844	22706
862.976	22869
863.108	22843
863.24	23094
863.372	22675
863.504	22683
863.636	22649
863.768	22801
863.9	22675
864.032	22820
864.164	22725
864.296	22733
864.428	22820
864.559	22744
864.691	22881
864.823	22653
864.954	22691
865.086	22675
865.217	22717
865.349	22462
865.48	22626
865.612	22675
865.743	22885
865.875	22683
866.006	22637
866.137	22626
866.269	22618
866.4	22577
866.531	22512
866.662	22508
866.793	22592
866.924	22565
867.055	22618
867.186	22630
867.317	22573
867.448	22504
867.579	22504
867.71	22542
867.841	22512
867.972	22512
868.103	22577
868.233	22512
868.364	22481
868.495	22641
868.625	22778
868.756	22805
868.886	22710
869.017	22721
869.147	22877
869.278	22953
869.408	22717
869.539	22809
869.669	22885
869.799	22820
869.929	22892
870.06	22972
870.19	23094
870.32	23086
870.45	23143
870.58	23155
870.71	23155
870.84	23200
870.97	23140
871.1	23239
871.23	23410
871.36	23280
871.489	23322
871.619	23349
871.749	23402
871.879	23486
872.008	23524
872.138	23459
872.267	23421
872.397	23269
872.526	23227
872.656	23155
872.785	23231
872.915	23395
873.044	23448
873.173	23414
873.303	23360
873.432	23444
873.561	23512
873.69	23459
873.819	23368
873.948	23452
874.077	23417
874.206	23307
874.335	23330
874.464	23509
874.593	23570
874.722	23535
874.851	23547
874.979	23729
875.108	23646
875.237	23474
875.365	23558
875.494	23516
875.623	23627
875.751	23604
875.88	23589
876.008	23687
876.136	23748
876.265	24079
876.393	24178
876.521	24003
876.65	24163
876.778	23946
876.906	23961
877.034	23920
877.162	23965
877.29	23874
877.418	23942
877.546	23942
877.674	23916
877.802	23912
877.93	24003
878.058	23961
878.185	23882
878.313	23851
878.441	24018
878.568	23775
878.696	23935
878.824	23775
878.951	24057
879.079	24148
879.206	24353
879.333	24057
879.461	24064
879.588	23912
879.715	24117
879.842	24296
879.97	24053
880.097	23646
880.224	23798
880.351	23798
880.478	23828
880.605	23611
880.732	23657
880.859	24026
880.986	23756
881.112	23805
881.239	23672
881.366	23554
881.493	23360
881.619	23349
881.746	23326
881.872	23372
881.999	23318
882.125	23258
882.252	23322
882.378	23269
882.505	23258
882.631	23048
882.757	23044
882.883	23128
883.01	22942
883.136	22911
883.262	22885
883.388	22801
883.514	22991
883.64	23079
883.766	22885
883.892	22767
884.018	22630
884.143	22927
884.269	22816
884.395	22748
884.52	22634
884.646	22641
884.772	22561
884.897	22504
885.023	22508
885.148	22580
885.274	22733
885.399	22649
885.524	22675
885.65	22584
885.775	22580
885.9	22523
886.025	22603
886.15	22584
886.275	22603
886.4	22550
886.525	22500
886.65	22535
886.775	22497
886.9	22630
887.025	22801
887.149	22516
887.274	22303
887.399	22177
887.523	22363
887.648	22261
887.773	22268
887.897	22481
888.021	22299
888.146	22295
888.27	22417
888.395	22432
888.519	22440
888.643	22287
888.767	22348
888.891	22246
889.015	22090
889.139	22139
889.263	22128
889.387	22333
889.511	22432
889.635	22246
889.759	22101
889.883	21983
890.006	22185
890.13	22207
890.254	22109
890.377	22032
890.501	21831
890.624	21934
890.748	21793
890.871	21819
890.995	21781
891.118	21675
891.241	21606
891.364	21603
891.488	21762
891.611	21644
891.734	21755
891.857	21835
891.98	21686
892.103	21667
892.226	21663
892.349	21671
892.471	21420
892.594	21675
892.717	21572
892.839	21519
892.962	21667
893.085	21682
893.207	21469
893.33	21363
893.452	21603
893.575	21458
893.697	21580
893.819	21686
893.941	21819
894.064	21724
894.186	21637
894.308	21557
894.43	21622
894.552	21660
894.674	21637
894.796	21450
894.918	21481
895.04	21545
895.161	21576
895.283	21568
895.405	21416
895.526	21633
895.648	21606
895.769	21652
895.891	21538
896.012	21473
896.134	21561
896.255	21507
896.376	21462
896.498	21519
896.619	21545
896.74	21511
896.861	21534
896.982	21816
897.103	21956
897.224	21808
897.345	21686
897.466	21591
897.587	21679
897.708	21922
897.828	21694
897.949	21652
898.07	21606
898.19	21717
898.311	21778
898.431	21698
898.552	21694
898.672	21648
898.792	21835
898.913	21713
899.033	21660
899.153	21568
899.273	21340
899.393	21416
899.513	21481
899.633	21466
899.753	21416
899.873	21344
899.993	21462
900.113	21348
900.232	21492
900.352	21283
900.472	21329
900.591	21165
900.711	21207
900.83	21017
900.95	21275
901.069	21283
901.189	21108
901.308	20845
901.427	20762
901.546	20785
901.665	20830
901.784	20663
901.904	20629
902.023	20438
902.141	20305
902.26	20191
902.379	20332
902.498	20225
902.617	20183
902.735	20301
902.854	20164
902.973	20214
903.091	19951
903.21	19936
903.328	19947
903.446	19940
903.565	19575
903.683	19757
903.801	19647
903.919	19655
904.038	19685
904.156	19502
904.274	19613
904.392	19434
904.51	19308
904.627	19495
904.745	19533
904.863	19502
904.981	19339
905.098	19057
905.216	19088
905.334	19228
905.451	19266
905.569	19095
905.686	19240
905.803	19095
905.921	18913
906.038	19057
906.155	18954
906.272	18837
906.389	18795
906.506	18597
906.623	18711
906.74	18646
906.857	18456
906.974	18498
907.091	18753
907.208	18734
907.324	18631
907.441	18540
907.557	18433
907.674	18330
907.79	18220
907.907	18334
908.023	18464
908.139	18456
908.256	18285
908.372	18353
908.488	18251
908.604	18155
908.72	18186
908.836	18057
908.952	18022
909.068	18064
909.184	18247
909.3	18087
909.415	18114
909.531	17973
909.647	17790
909.762	17775
909.878	17649
909.993	17752
910.108	17764
910.224	17707
910.339	17737
910.454	17589
910.57	17524
910.685	17505
910.8	17707
910.915	17767
911.03	17562
911.145	17406
911.259	17372
911.374	17414
911.489	17227
911.604	17261
911.718	17041
911.833	16968
911.947	16968
912.062	16881
912.176	17075
912.291	17105
912.405	17010
912.519	17174
912.633	17212
912.748	17178
912.862	17029
912.976	16835
913.09	16733
913.204	16812
913.318	16911
913.431	16930
913.545	16957
913.659	17014
913.772	16797
913.886	16607
914	16687
914.113	16645
914.226	16710
914.34	16755
914.453	16565
914.566	16615
914.68	16485
914.793	16485
914.906	16344
915.019	16276
915.132	16238
915.245	16147
915.358	16215
915.47	16166
915.583	16303
915.696	16177
915.809	16402
915.921	16303
916.034	16268
916.146	16097
916.259	16063
916.371	16177
916.483	16261
916.595	16097
916.708	16063
916.82	16090
916.932	16071
917.044	16101
917.156	16013
917.268	15835
917.38	15762
917.491	15835
917.603	15857
917.715	15926
917.826	15903
917.938	15720
918.049	15682
918.161	15736
918.272	15937
918.384	15884
918.495	15739
918.606	15671
918.717	15447
918.828	15523
918.939	15545
919.05	15492
919.161	15553
919.272	15367
919.383	15302
919.494	15698
919.604	15774
919.715	15564
919.826	15393
919.936	15458
920.047	15671
920.157	15526
920.267	15644
920.378	15367
920.488	15542
920.598	15671
920.708	15781
920.818	15675
920.928	15637
921.038	15785
921.148	15724
921.258	15507
921.368	15538
921.477	15275
921.587	15249
921.697	15131
921.806	15169
921.916	15028
922.025	14986
922.134	14823
922.244	14678
922.353	14804
922.462	14693
922.571	14651
922.68	14499
922.789	14480
922.898	14594
923.007	14415
923.116	14499
923.224	14389
923.333	14507
923.442	14454
923.55	14343
923.659	14419
923.767	14389
923.876	14210
923.984	14290
924.092	14176
924.201	14149
924.309	14225
924.417	14126
924.525	14221
924.633	14073
924.741	15055
924.849	13955
924.956	14092
925.064	13925
925.172	13780
925.279	13860
925.387	13902
925.494	13890
925.602	13909
925.709	14024
925.816	13704
925.924	13818
926.031	13822
926.138	13712
926.245	13788
926.352	13647
926.459	13738
926.566	13757
926.673	13723
926.779	13594
926.886	13597
926.993	13445
927.099	13365
927.206	13331
927.312	13327
927.419	13403
927.525	13354
927.631	13381
927.737	13232
927.843	13236
927.95	13076
928.056	13141
928.162	13247
928.267	13194
928.373	13772
928.479	13270
928.585	12954
928.69	13122
928.796	13160
928.901	13080
929.007	12875
929.112	13072
929.218	12905
929.323	12890
929.428	12924
929.533	12973
929.638	12840
929.743	12837
929.848	12890
929.953	12810
930.058	12734
930.163	12593
930.267	12601
930.372	12696
930.477	12563
930.581	12722
930.685	12631
930.79	12456
930.894	12589
930.998	12437
931.103	12479
931.207	12144
931.311	12152
931.415	12057
931.519	11866
931.623	11843
