Data from test_V78500241_1201.txt Node
Date: Fri Mar 25 15:50:07 CST 2022
User: usil
Spectrometer: V785-0024
Trigger mode: 0
Integration Time (sec): 4.000000E-1
Scans to average: 1
Nonlinearity correction enabled: false
Boxcar width: 0
Storing dark spectrum: false
XAxis mode: Wavelengths
Number of Pixels in Spectrum: 1024
>>>>>Begin Spectral Data<<<<<
801.071	28569
801.214	28611
801.356	28310
801.499	28299
801.641	28314
801.783	28306
801.926	28303
802.068	28238
802.211	28226
802.353	28162
802.496	28128
802.638	27926
802.78	27892
802.923	27831
803.065	27945
803.208	27766
803.35	27960
803.492	28029
803.635	28147
803.777	28036
803.919	28143
804.061	28405
804.204	28253
804.346	28150
804.488	28158
804.63	28143
804.773	28055
804.915	28055
805.057	28185
805.199	28169
805.341	28181
805.483	28367
805.626	28310
805.768	28196
805.91	28314
806.052	28390
806.194	28265
806.336	28485
806.478	28443
806.62	28421
806.762	28554
806.904	28664
807.046	28816
807.188	28759
807.33	28790
807.472	28805
807.614	28577
807.756	28763
807.898	28641
808.04	28607
808.182	28672
808.324	28668
808.465	28759
808.607	28900
808.749	29098
808.891	29284
809.033	29231
809.174	29056
809.316	29056
809.458	29071
809.6	28999
809.741	29147
809.883	29318
810.025	29372
810.166	29383
810.308	29341
810.45	29303
810.591	29337
810.733	28995
810.875	29022
811.016	28908
811.158	28984
811.299	29071
811.441	29147
811.582	29375
811.724	28991
811.865	29022
812.007	28976
812.148	29117
812.29	29155
812.431	29121
812.573	29296
812.714	29349
812.855	29562
812.997	29767
813.138	29870
813.279	29764
813.421	29482
813.562	29402
813.703	29520
813.845	29345
813.986	29102
814.127	28881
814.268	28691
814.41	28835
814.551	28824
814.692	28805
814.833	28736
814.974	28649
815.115	28801
815.256	28645
815.397	28664
815.539	28675
815.68	28550
815.821	28645
815.962	28485
816.103	28618
816.244	28497
816.385	28303
816.526	28390
816.666	28261
816.807	28093
816.948	28177
817.089	28082
817.23	28211
817.371	28090
817.512	28181
817.653	27975
817.793	28120
817.934	28032
818.075	28116
818.216	28223
818.356	28021
818.497	27972
818.638	27880
818.778	27667
818.919	27892
819.06	27911
819.2	27983
819.341	28173
819.481	28158
819.622	28280
819.762	28493
819.903	28318
820.043	28337
820.184	28128
820.324	28207
820.465	28226
820.605	28082
820.746	28181
820.886	28082
821.026	28253
821.167	28246
821.307	28268
821.447	27994
821.588	27945
821.728	28051
821.868	27789
822.008	27610
822.149	27545
822.289	27755
822.429	27332
822.569	27222
822.709	27420
822.849	27039
822.99	27123
823.13	27089
823.27	27131
823.41	26895
823.55	26686
823.69	26800
823.83	26804
823.97	26807
824.11	26792
824.25	26777
824.389	26670
824.529	26739
824.669	26693
824.809	26773
824.949	26960
825.089	26853
825.228	26861
825.368	26556
825.508	26541
825.648	26587
825.787	26674
825.927	26735
826.067	26552
826.206	26602
826.346	26598
826.485	26659
826.625	26655
826.765	26769
826.904	26686
827.044	26320
827.183	26396
827.323	26298
827.462	26313
827.601	26336
827.741	26324
827.88	26282
828.02	26100
828.159	26332
828.298	26438
828.437	26377
828.577	26225
828.716	26389
828.855	26313
828.994	26046
829.134	26081
829.273	25997
829.412	26039
829.551	26046
829.69	26031
829.829	26081
829.968	26191
830.107	25951
830.246	26073
830.385	25925
830.524	25997
830.663	25784
830.802	25628
830.941	25624
831.08	25571
831.219	25734
831.357	25647
831.496	25845
831.635	25518
831.774	25559
831.913	25445
832.051	25457
832.19	25518
832.329	25411
832.467	25198
832.606	25251
832.744	25129
832.883	25320
833.022	25255
833.16	25175
833.299	25396
833.437	25301
833.576	25297
833.714	25335
833.852	25438
833.991	25567
834.129	25396
834.267	25392
834.406	25392
834.544	25377
834.682	25320
834.821	25247
834.959	25483
835.097	25244
835.235	25297
835.373	25282
835.511	25213
835.65	25244
835.788	25209
835.926	25027
836.064	24878
836.202	24939
836.34	25175
836.478	25247
836.615	25145
836.753	25152
836.891	25259
837.029	25110
837.167	25103
837.305	24992
837.443	25015
837.58	24966
837.718	24970
837.856	25133
837.993	24989
838.131	24977
838.269	24905
838.406	24806
838.544	24943
838.681	24631
838.819	24593
838.956	24418
839.094	24612
839.231	24593
839.369	24673
839.506	24871
839.643	24734
839.781	24467
839.918	24327
840.055	24464
840.193	24505
840.33	24315
840.467	24361
840.604	24346
840.742	24829
840.879	24159
841.016	24296
841.153	24224
841.29	24334
841.427	24300
841.564	24346
841.701	24403
841.838	24330
841.975	24422
842.112	24182
842.249	24182
842.385	24197
842.522	24292
842.659	24353
842.796	23954
842.933	24205
843.069	24121
843.206	24064
843.343	24125
843.479	24057
843.616	24038
843.752	23950
843.889	23901
844.025	24091
844.162	23942
844.298	24030
844.435	23760
844.571	23904
844.708	23847
844.844	23946
844.98	23973
845.117	24038
845.253	23790
845.389	23802
845.525	23794
845.661	23813
845.798	23577
845.934	23623
846.07	23623
846.206	23630
846.342	23863
846.478	23570
846.614	23471
846.75	23265
846.886	23296
847.022	23455
847.158	23410
847.294	23360
847.429	23398
847.565	23246
847.701	23471
847.837	23147
847.972	23083
848.108	23277
848.244	23090
848.379	22923
848.515	22908
848.65	22828
848.786	22965
848.921	22930
849.057	22915
849.192	22976
849.328	22881
849.463	23006
849.598	22953
849.734	22820
849.869	22767
850.004	22675
850.14	22675
850.275	22771
850.41	22687
850.545	22706
850.68	22645
850.815	22622
850.95	22622
851.085	22866
851.22	22889
851.355	22774
851.49	22694
851.625	22679
851.76	22641
851.895	22538
852.03	22687
852.165	22759
852.299	22812
852.434	22645
852.569	22835
852.703	22649
852.838	22824
852.973	22869
853.107	22835
853.242	22748
853.376	22451
853.511	22447
853.645	22451
853.78	22561
853.914	22554
854.048	22542
854.183	22474
854.317	22550
854.451	22748
854.585	22516
854.72	22535
854.854	22523
854.988	22481
855.122	22447
855.256	22405
855.39	22489
855.524	22687
855.658	22577
855.792	22485
855.926	22459
856.06	22569
856.194	22421
856.327	22440
856.461	22474
856.595	22322
856.729	22527
856.862	22729
856.996	22588
857.13	22508
857.263	22675
857.397	22691
857.53	22523
857.664	22561
857.797	22538
857.931	22656
858.064	22557
858.197	22603
858.331	22554
858.464	22569
858.597	22474
858.731	22455
858.864	22535
858.997	22466
859.13	22363
859.263	22538
859.396	22497
859.529	22462
859.662	22500
859.795	22284
859.928	22462
860.061	22793
860.194	22771
860.327	22459
860.46	22557
860.592	22607
860.725	22637
860.858	22634
860.99	22531
861.123	22462
861.256	22337
861.388	22569
861.521	23239
861.653	22344
861.786	22417
861.918	22447
862.05	22314
862.183	22470
862.315	22394
862.447	22527
862.58	22375
862.712	22173
862.844	22128
862.976	22226
863.108	22318
863.24	22710
863.372	22032
863.504	22230
863.636	22207
863.768	22242
863.9	22249
864.032	22143
864.164	22207
864.296	22143
864.428	22402
864.559	22246
864.691	22295
864.823	22177
864.954	22090
865.086	22067
865.217	22074
865.349	21998
865.48	22265
865.612	22128
865.743	22188
865.875	22120
866.006	22063
866.137	22131
866.269	22029
866.4	21972
866.531	22017
866.662	22021
866.793	21987
866.924	22055
867.055	22063
867.186	21987
867.317	22063
867.448	21975
867.579	22010
867.71	21945
867.841	21808
867.972	22021
868.103	21968
868.233	21975
868.364	21991
868.495	22082
868.625	22223
868.756	22375
868.886	22154
869.017	22093
869.147	22318
869.278	22348
869.408	22234
869.539	22246
869.669	22249
869.799	22284
869.929	22402
870.06	22306
870.19	22687
870.32	22481
870.45	22573
870.58	22542
870.71	22725
870.84	22710
870.97	22763
871.1	22763
871.23	22607
871.36	22835
871.489	22622
871.619	22793
871.749	22767
871.879	22828
872.008	22949
872.138	22816
872.267	22911
872.397	22649
872.526	22542
872.656	22733
872.785	22755
872.915	23003
873.044	22961
873.173	22908
873.303	22824
873.432	22862
873.561	22908
873.69	22873
873.819	22767
873.948	22904
874.077	22850
874.206	22942
874.335	22748
874.464	23018
874.593	23124
874.722	23109
874.851	23181
874.979	23102
875.108	23105
875.237	22938
875.365	23022
875.494	23025
875.623	23181
875.751	23014
875.88	23090
876.008	23239
876.136	23140
876.265	23360
876.393	23547
876.521	23547
876.65	23596
876.778	23486
876.906	23395
877.034	23376
877.162	23440
877.29	23444
877.418	23459
877.546	23345
877.674	23376
877.802	23410
877.93	23383
878.058	23254
878.185	23379
878.313	23330
878.441	23322
878.568	23212
878.696	23406
878.824	23398
878.951	23516
879.079	23493
879.206	23729
879.333	23604
879.461	23440
879.588	23551
879.715	23608
879.842	23745
879.97	23417
880.097	23258
880.224	23261
880.351	23265
880.478	23166
880.605	23151
880.732	23067
880.859	23493
880.986	23178
881.112	23273
881.239	23128
881.366	22984
881.493	22938
881.619	22816
881.746	22927
881.872	22675
881.999	22767
882.125	22656
882.252	22793
882.378	22725
882.505	22961
882.631	22683
882.757	22493
882.883	22542
883.01	22481
883.136	22485
883.262	22405
883.388	22223
883.514	22386
883.64	22527
883.766	22367
883.892	22223
884.018	22295
884.143	22466
884.269	22535
884.395	22291
884.52	22135
884.646	22074
884.772	22021
884.897	22086
885.023	22086
885.148	22200
885.274	22268
885.399	22265
885.524	22131
885.65	22067
885.775	22181
885.9	22070
886.025	22249
886.15	22147
886.275	21956
886.4	22067
886.525	22082
886.65	22059
886.775	22006
886.9	22257
887.025	22341
887.149	22067
887.274	21789
887.399	21873
887.523	21987
887.648	21846
887.773	21755
887.897	22044
888.021	21838
888.146	21915
888.27	21918
888.395	21854
888.519	21880
888.643	21808
888.767	21774
888.891	21785
889.015	21762
889.139	21713
889.263	21568
889.387	21789
889.511	21816
889.635	21694
889.759	21504
889.883	21618
890.006	21603
890.13	21686
890.254	21542
890.377	21603
890.501	21549
890.624	21317
890.748	21447
890.871	21233
890.995	21157
891.118	21116
891.241	21146
891.364	21146
891.488	21237
891.611	21184
891.734	21192
891.857	21264
891.98	21268
892.103	21199
892.226	21230
892.349	21066
892.471	20925
892.594	21066
892.717	21127
892.839	21009
892.962	21100
893.085	21192
893.207	21028
893.33	20982
893.452	21081
893.575	21241
893.697	21123
893.819	21214
893.941	21287
894.064	21272
894.186	21005
894.308	21116
894.43	21176
894.552	21176
894.674	21195
894.796	20899
894.918	21077
895.04	20944
895.161	21112
895.283	21017
895.405	20982
895.526	21142
895.648	21020
895.769	21093
895.891	21131
896.012	21173
896.134	21032
896.255	21051
896.376	21047
896.498	21039
896.619	21070
896.74	20960
896.861	21062
896.982	21420
897.103	21553
897.224	21298
897.345	21252
897.466	21192
897.587	21169
897.708	21405
897.828	21230
897.949	21203
898.07	21150
898.19	21131
898.311	21306
898.431	21252
898.552	21226
898.672	21450
898.792	21420
898.913	21298
899.033	21100
899.153	21070
899.273	20948
899.393	20967
899.513	21142
899.633	21081
899.753	21028
899.873	20899
899.993	21036
900.113	20998
900.232	20982
900.352	20872
900.472	20861
900.591	20644
900.711	20830
900.83	20815
900.95	20861
901.069	20864
901.189	20537
901.308	20488
901.427	20320
901.546	20301
901.665	20339
901.784	20374
901.904	20259
902.023	20138
902.141	19864
902.26	19883
902.379	19947
902.498	19807
902.617	19883
902.735	19868
902.854	19826
902.973	19769
903.091	19567
903.21	19476
903.328	19430
903.446	19457
903.565	19354
903.683	19301
903.801	19145
903.919	19282
904.038	19160
904.156	19031
904.274	19080
904.392	19057
904.51	19050
904.627	18993
904.745	19103
904.863	19168
904.981	18806
905.098	18665
905.216	18719
905.334	18722
905.451	18745
905.569	18582
905.686	18741
905.803	18650
905.921	18437
906.038	18635
906.155	18525
906.272	18437
906.389	18445
906.506	18262
906.623	18239
906.74	18186
906.857	18102
906.974	18125
907.091	18365
907.208	18388
907.324	18342
907.441	18155
907.557	17969
907.674	17954
907.79	17908
907.907	17878
908.023	17977
908.139	18022
908.256	17878
908.372	17832
908.488	17836
908.604	17611
908.72	17581
908.836	17786
908.952	17684
909.068	17741
909.184	17817
909.3	17726
909.415	17767
909.531	17577
909.647	17376
909.762	17402
909.878	17341
909.993	17383
910.108	17356
910.224	17349
910.339	17417
910.454	17185
910.57	17090
910.685	17022
910.8	17376
910.915	17280
911.03	17166
911.145	16991
911.259	16869
911.374	16938
911.489	16801
911.604	16858
911.718	16668
911.833	16687
911.947	16569
912.062	16508
912.176	16558
912.291	16630
912.405	16649
912.519	16847
912.633	16850
912.748	16656
912.862	16531
912.976	16500
913.09	16341
913.204	16432
913.318	16565
913.431	16535
913.545	16546
913.659	16599
913.772	16451
913.886	16375
914	16166
914.113	16386
914.226	16303
914.34	16417
914.453	16158
914.566	16306
914.68	16071
914.793	16097
914.906	16021
915.019	15869
915.132	15778
915.245	15854
915.358	15922
915.47	15774
915.583	15838
915.696	15812
915.809	16078
915.921	16044
916.034	15751
916.146	15751
916.259	15701
916.371	15842
916.483	15873
916.595	15713
916.708	15690
916.82	15694
916.932	15618
917.044	15538
917.156	15629
917.268	15450
917.38	15443
917.491	15466
917.603	15545
917.715	15519
917.826	15610
917.938	15351
918.049	15344
918.161	15462
918.272	15587
918.384	15564
918.495	15367
918.606	15245
918.717	15188
918.828	15298
918.939	15279
919.05	15188
919.161	15176
919.272	15005
919.383	15108
919.494	15313
919.604	15458
919.715	15192
919.826	15112
919.936	15146
920.047	15214
920.157	15131
920.267	15336
920.378	15169
920.488	15123
920.598	15279
920.708	15473
920.818	15317
920.928	15264
921.038	15557
921.148	15447
921.258	15055
921.368	14979
921.477	14914
921.587	14910
921.697	14712
921.806	14944
921.916	14758
922.025	14701
922.134	14587
922.244	14549
922.353	14545
922.462	14450
922.571	14423
922.68	14134
922.789	14149
922.898	14336
923.007	14107
923.116	14183
923.224	14142
923.333	14142
923.442	14020
923.55	13951
923.659	13963
923.767	13989
923.876	14027
923.984	13993
924.092	13856
924.201	13913
924.309	13811
924.417	13753
924.525	13803
924.633	13818
924.741	14613
924.849	13616
924.956	13677
925.064	13487
925.172	13426
925.279	13491
925.387	13567
925.494	13601
925.602	13704
925.709	13559
925.816	13453
925.924	13502
926.031	13480
926.138	13449
926.245	13438
926.352	13415
926.459	13567
926.566	13544
926.673	13331
926.779	13221
926.886	13293
926.993	13183
927.099	13145
927.206	13046
927.312	13072
927.419	13160
927.525	13110
927.631	13065
927.737	13038
927.843	12970
927.95	12753
928.056	12871
928.162	12905
928.267	12993
928.373	13567
928.479	12920
928.585	12760
928.69	12791
928.796	12817
928.901	12798
929.007	12658
929.112	12726
929.218	12795
929.323	12639
929.428	12616
929.533	12711
929.638	12536
929.743	12627
929.848	12650
929.953	12490
930.058	12467
930.163	12251
930.267	12277
930.372	12418
930.477	12300
930.581	12441
930.685	12388
930.79	12163
930.894	12190
930.998	12163
931.103	12296
931.207	11863
931.311	11950
931.415	11786
931.519	11436
931.623	11482
