Data from test_V78500241_721.txt Node
Date: Fri Mar 25 15:46:47 CST 2022
User: usil
Spectrometer: V785-0024
Trigger mode: 0
Integration Time (sec): 4.000000E-1
Scans to average: 1
Nonlinearity correction enabled: false
Boxcar width: 0
Storing dark spectrum: false
XAxis mode: Wavelengths
Number of Pixels in Spectrum: 1024
>>>>>Begin Spectral Data<<<<<
801.071	27701
801.214	27587
801.356	27374
801.499	27340
801.641	27081
801.783	27291
801.926	27154
802.068	27306
802.211	27062
802.353	27055
802.496	26804
802.638	26902
802.78	26777
802.923	26842
803.065	26826
803.208	26716
803.35	26777
803.492	26937
803.635	27070
803.777	26773
803.919	26902
804.061	27370
804.204	27089
804.346	27062
804.488	27081
804.63	26914
804.773	26872
804.915	27005
805.057	27180
805.199	27058
805.341	27009
805.483	27272
805.626	27112
805.768	27119
805.91	27142
806.052	27066
806.194	27138
806.336	27180
806.478	26986
806.62	27123
806.762	27222
806.904	27241
807.046	27739
807.188	27530
807.33	27500
807.472	27671
807.614	27458
807.756	27553
807.898	27458
808.04	27241
808.182	27359
808.324	27504
808.465	27256
808.607	27618
808.749	27663
808.891	27869
809.033	27956
809.174	27899
809.316	27899
809.458	27876
809.6	27694
809.741	27888
809.883	27926
810.025	28112
810.166	28070
810.308	27994
810.45	28036
810.591	27994
810.733	27865
810.875	27720
811.016	27663
811.158	27660
811.299	27873
811.441	27998
811.582	28010
811.724	27785
811.865	27842
812.007	27861
812.148	27747
812.29	27709
812.431	27926
812.573	28169
812.714	28238
812.855	28196
812.997	28459
813.138	28466
813.279	28394
813.421	28295
813.562	28150
813.703	28055
813.845	27949
813.986	27656
814.127	27591
814.268	27378
814.41	27488
814.551	27427
814.692	27542
814.833	27294
814.974	27523
815.115	27450
815.256	27374
815.397	27230
815.539	27310
815.68	27104
815.821	27081
815.962	27272
816.103	27161
816.244	27077
816.385	27001
816.526	27005
816.666	26876
816.807	26674
816.948	26868
817.089	26868
817.23	26788
817.371	26689
817.512	26743
817.653	26758
817.793	26678
817.934	26689
818.075	26735
818.216	26697
818.356	26670
818.497	26655
818.638	26446
818.778	26434
818.919	26412
819.06	26484
819.2	26678
819.341	26686
819.481	26663
819.622	26815
819.762	27074
819.903	26963
820.043	26994
820.184	26659
820.324	26807
820.465	26933
820.605	26861
820.746	26781
820.886	26754
821.026	26788
821.167	26541
821.307	26826
821.447	26693
821.588	26693
821.728	26625
821.868	26415
822.008	26244
822.149	26168
822.289	26092
822.429	25928
822.569	25845
822.709	25860
822.849	25715
822.99	25746
823.13	25776
823.27	25662
823.41	25453
823.55	25449
823.69	25594
823.83	25499
823.97	25476
824.11	25270
824.25	25293
824.389	25422
824.529	25460
824.669	25396
824.809	25468
824.949	25392
825.089	25533
825.228	25479
825.368	25206
825.508	25145
825.648	25263
825.787	25179
825.927	25217
826.067	25221
826.206	25213
826.346	25228
826.485	25232
826.625	25251
826.765	25320
826.904	25297
827.044	24890
827.183	24992
827.323	24856
827.462	24897
827.601	24806
827.741	24935
827.88	24825
828.02	24791
828.159	24856
828.298	24962
828.437	24966
828.577	24795
828.716	24939
828.855	24688
828.994	24612
829.134	24840
829.273	24852
829.412	24574
829.551	24498
829.69	24703
829.829	24658
829.968	24665
830.107	24734
830.246	24604
830.385	24589
830.524	24479
830.663	24410
830.802	24350
830.941	24110
831.08	24182
831.219	24369
831.357	24262
831.496	24460
831.635	24254
831.774	24209
831.913	24125
832.051	24022
832.19	23954
832.329	24110
832.467	23961
832.606	23809
832.744	23874
832.883	23851
833.022	23752
833.16	23790
833.299	23893
833.437	23866
833.576	23874
833.714	24049
833.852	23961
833.991	23958
834.129	24106
834.267	23942
834.406	23999
834.544	23901
834.682	23992
834.821	23965
834.959	24125
835.097	23939
835.235	23969
835.373	23817
835.511	23973
835.65	23798
835.788	23939
835.926	23649
836.064	23623
836.202	23634
836.34	23847
836.478	23847
836.615	23775
836.753	23771
836.891	23904
837.029	23863
837.167	23733
837.305	23608
837.443	23684
837.58	23486
837.718	23733
837.856	23665
837.993	23558
838.131	23539
838.269	23425
838.406	23512
838.544	23471
838.681	23284
838.819	23261
838.956	23029
839.094	23128
839.231	23162
839.369	23239
839.506	23604
839.643	23376
839.781	23147
839.918	22999
840.055	23128
840.193	23143
840.33	23052
840.467	23090
840.604	23105
840.742	23292
840.879	22866
841.016	22927
841.153	22934
841.29	23056
841.427	22908
841.564	23025
841.701	23044
841.838	22862
841.975	22797
842.112	22881
842.249	22911
842.385	22752
842.522	22938
842.659	22938
842.796	22763
842.933	22706
843.069	22691
843.206	22618
843.343	22786
843.479	22797
843.616	22774
843.752	22504
843.889	22550
844.025	22782
844.162	22405
844.298	22660
844.435	22565
844.571	22462
844.708	22592
844.844	22561
844.98	22660
845.117	22645
845.253	22493
845.389	22580
845.525	22402
845.661	22299
845.798	22177
845.934	22379
846.07	22280
846.206	22390
846.342	22489
846.478	22348
846.614	21983
846.75	21892
846.886	22036
847.022	22169
847.158	22044
847.294	22002
847.429	22131
847.565	21972
847.701	22325
847.837	21682
847.972	21637
848.108	21660
848.244	21785
848.379	21682
848.515	21526
848.65	21572
848.786	21610
848.921	21675
849.057	21759
849.192	21698
849.328	21625
849.463	21568
849.598	21523
849.734	21348
849.869	21462
850.004	21272
850.14	21511
850.275	21447
850.41	21272
850.545	21275
850.68	21169
850.815	21325
850.95	21367
851.085	21538
851.22	21481
851.355	21313
851.49	21443
851.625	21389
851.76	21351
851.895	21340
852.03	21287
852.165	21355
852.299	21329
852.434	21424
852.569	21397
852.703	21424
852.838	21332
852.973	21405
853.107	21310
853.242	21317
853.376	21176
853.511	21154
853.645	21058
853.78	21302
853.914	21264
854.048	21096
854.183	21100
854.317	21199
854.451	21321
854.585	21150
854.72	21173
854.854	21264
854.988	21032
855.122	21199
855.256	20963
855.39	21188
855.524	21096
855.658	21233
855.792	21275
855.926	21207
856.06	21241
856.194	21287
856.327	21188
856.461	21104
856.595	21024
856.729	21108
856.862	21211
856.996	21214
857.13	21207
857.263	21279
857.397	21233
857.53	21173
857.664	21199
857.797	21237
857.931	21260
858.064	21192
858.197	21279
858.331	21146
858.464	21104
858.597	21077
858.731	21226
858.864	21066
858.997	21100
859.13	21222
859.263	21203
859.396	21230
859.529	21135
859.662	21192
859.795	21138
859.928	21184
860.061	21287
860.194	21431
860.327	21146
860.46	21245
860.592	21291
860.725	21458
860.858	21245
860.99	21058
861.123	21081
861.256	21047
861.388	21104
861.521	21751
861.653	21062
861.786	20960
861.918	21062
862.05	21009
862.183	21195
862.315	21123
862.447	21119
862.58	20986
862.712	20868
862.844	20750
862.976	20960
863.108	20986
863.24	21401
863.372	20815
863.504	20994
863.636	20838
863.768	20956
863.9	20918
864.032	20834
864.164	20868
864.296	20876
864.428	21047
864.559	20910
864.691	20929
864.823	20952
864.954	20853
865.086	20872
865.217	20811
865.349	20739
865.48	20659
865.612	20834
865.743	20845
865.875	20876
866.006	20826
866.137	20743
866.269	20735
866.4	20659
866.531	20807
866.662	20613
866.793	20697
866.924	20762
867.055	20724
867.186	20727
867.317	20678
867.448	20575
867.579	20670
867.71	20609
867.841	20602
867.972	20792
868.103	20792
868.233	20773
868.364	20682
868.495	20861
868.625	21081
868.756	21066
868.886	20975
869.017	21070
869.147	21066
869.278	21066
869.408	20925
869.539	21047
869.669	21096
869.799	20960
869.929	21150
870.06	21009
870.19	21393
870.32	21150
870.45	21256
870.58	21351
870.71	21317
870.84	21473
870.97	21473
871.1	21443
871.23	21595
871.36	21500
871.489	21511
871.619	21469
871.749	21694
871.879	21572
872.008	21652
872.138	21511
872.267	21526
872.397	21416
872.526	21363
872.656	21477
872.785	21313
872.915	21572
873.044	21660
873.173	21583
873.303	21458
873.432	21667
873.561	21751
873.69	21583
873.819	21534
873.948	21526
874.077	21625
874.206	21564
874.335	21587
874.464	21705
874.593	21835
874.722	21705
874.851	21838
874.979	21770
875.108	21812
875.237	21732
875.365	21713
875.494	21797
875.623	21865
875.751	21903
875.88	21876
876.008	21838
876.136	22029
876.265	22234
876.393	22386
876.521	22310
876.65	22280
876.778	22234
876.906	22116
877.034	22154
877.162	22219
877.29	22059
877.418	22154
877.546	22207
877.674	22143
877.802	22101
877.93	22067
878.058	22078
878.185	22048
878.313	22139
878.441	22211
878.568	22036
878.696	22059
878.824	22139
878.951	22162
879.079	22306
879.206	22557
879.333	22459
879.461	22295
879.588	22272
879.715	22268
879.842	22432
879.97	22367
880.097	21922
880.224	22006
880.351	21972
880.478	22070
880.605	21956
880.732	21884
880.859	22318
880.986	21922
881.112	21968
881.239	21888
881.366	21671
881.493	21667
881.619	21568
881.746	21576
881.872	21663
881.999	21595
882.125	21557
882.252	21553
882.378	21568
882.505	21671
882.631	21370
882.757	21291
882.883	21306
883.01	21138
883.136	21351
883.262	21268
883.388	21047
883.514	21211
883.64	21321
883.766	21272
883.892	21119
884.018	21104
884.143	21146
884.269	21279
884.395	20880
884.52	20872
884.646	20963
884.772	20823
884.897	20724
885.023	20921
885.148	20990
885.274	21093
885.399	20941
885.524	20815
885.65	20853
885.775	20838
885.9	20872
886.025	21138
886.15	20971
886.275	20918
886.4	20651
886.525	20796
886.65	20823
886.775	20731
886.9	20902
887.025	21123
887.149	20902
887.274	20701
887.399	20682
887.523	20773
887.648	20659
887.773	20556
887.897	20727
888.021	20678
888.146	20549
888.27	20792
888.395	20781
888.519	20686
888.643	20731
888.767	20678
888.891	20640
889.015	20617
889.139	20465
889.263	20419
889.387	20552
889.511	20556
889.635	20625
889.759	20446
889.883	20461
890.006	20427
890.13	20587
890.254	20469
890.377	20271
890.501	20237
890.624	20237
890.748	20092
890.871	20107
890.995	20134
891.118	19986
891.241	20054
891.364	20012
891.488	20111
891.611	20149
891.734	20103
891.857	20119
891.98	20069
892.103	20069
892.226	19963
892.349	20001
892.471	19932
892.594	19955
892.717	19997
892.839	20012
892.962	19928
893.085	19967
893.207	20035
893.33	19837
893.452	20016
893.575	20088
893.697	19890
893.819	20115
893.941	20130
894.064	20005
894.186	19909
894.308	19906
894.43	19982
894.552	20157
894.674	20024
894.796	19761
894.918	19868
895.04	19849
895.161	20035
895.283	19993
895.405	19871
895.526	20069
895.648	19932
895.769	19989
895.891	19913
896.012	20153
896.134	20081
896.255	19967
896.376	19944
896.498	20001
896.619	20065
896.74	20024
896.861	20043
896.982	20412
897.103	20358
897.224	20294
897.345	20157
897.466	20107
897.587	20161
897.708	20339
897.828	20187
897.949	20191
898.07	20008
898.19	20138
898.311	20275
898.431	20115
898.552	20290
898.672	20336
898.792	20214
898.913	20244
899.033	20126
899.153	20005
899.273	20054
899.393	20024
899.513	20073
899.633	20058
899.753	19989
899.873	19856
899.993	19925
900.113	19864
900.232	19944
900.352	19921
900.472	19662
900.591	19803
900.711	19757
900.83	19753
900.95	19750
901.069	19742
901.189	19681
901.308	19339
901.427	19255
901.546	19282
901.665	19369
901.784	19301
901.904	19190
902.023	19088
902.141	18943
902.26	18821
902.379	19000
902.498	18886
902.617	18772
902.735	18806
902.854	18726
902.973	18764
903.091	18627
903.21	18452
903.328	18395
903.446	18365
903.565	18262
903.683	18213
903.801	18220
903.919	18205
904.038	18087
904.156	18155
904.274	18163
904.392	18125
904.51	18011
904.627	17946
904.745	18026
904.863	18083
904.981	17942
905.098	17714
905.216	17866
905.334	17790
905.451	17779
905.569	17676
905.686	17882
905.803	17695
905.921	17436
906.038	17592
906.155	17532
906.272	17360
906.389	17455
906.506	17299
906.623	17204
906.74	17280
906.857	17159
906.974	17140
907.091	17299
907.208	17189
907.324	17250
907.441	17060
907.557	16999
907.674	17048
907.79	16946
907.907	16847
908.023	16953
908.139	16889
908.256	16862
908.372	16911
908.488	16862
908.604	16782
908.72	16645
908.836	16752
908.952	16596
909.068	16790
909.184	16885
909.3	16485
909.415	16763
909.531	16668
909.647	16455
909.762	16493
909.878	16363
909.993	16447
910.108	16375
910.224	16253
910.339	16382
910.454	16295
910.57	16226
910.685	16177
910.8	16478
910.915	16405
911.03	16211
911.145	16086
911.259	16055
911.374	15972
911.489	15960
911.604	15972
911.718	15766
911.833	15823
911.947	15641
912.062	15648
912.176	15854
912.291	15789
912.405	15778
912.519	15994
912.633	15960
912.748	15823
912.862	15682
912.976	15572
913.09	15431
913.204	15496
913.318	15564
913.431	15713
913.545	15656
913.659	15690
913.772	15526
913.886	15348
914	15435
914.113	15443
914.226	15431
914.34	15469
914.453	15268
914.566	15359
914.68	15310
914.793	15214
914.906	15108
915.019	15020
915.132	14906
915.245	15001
915.358	14990
915.47	14971
915.583	15066
915.696	15074
915.809	15070
915.921	15218
916.034	14967
916.146	14937
916.259	14899
916.371	14921
916.483	14914
916.595	14689
916.708	14933
916.82	14868
916.932	14811
917.044	14758
917.156	14750
917.268	14564
917.38	14636
917.491	14590
917.603	14682
917.715	14712
917.826	14686
917.938	14545
918.049	14518
918.161	14507
918.272	14796
918.384	14796
918.495	14518
918.606	14461
918.717	14419
918.828	14385
918.939	14389
919.05	14381
919.161	14442
919.272	14328
919.383	14313
919.494	14419
919.604	14613
919.715	14351
919.826	14305
919.936	14366
920.047	14511
920.157	14499
920.267	14492
920.378	14336
920.488	14419
920.598	14583
920.708	14663
920.818	14476
920.928	14454
921.038	14629
921.148	14663
921.258	14362
921.368	14187
921.477	14267
921.587	14134
921.697	13993
921.806	14195
921.916	13875
922.025	13894
922.134	13750
922.244	13799
922.353	13780
922.462	13647
922.571	13616
922.68	13441
922.789	13358
922.898	13464
923.007	13316
923.116	13460
923.224	13331
923.333	13384
923.442	13240
923.55	13152
923.659	13255
923.767	13236
923.876	13190
923.984	13335
924.092	13133
924.201	13179
924.309	13206
924.417	13232
924.525	13072
924.633	13129
924.741	14020
924.849	12943
924.956	13149
925.064	12875
925.172	12829
925.279	12791
925.387	12886
925.494	12825
925.602	12966
925.709	12833
925.816	12749
925.924	12783
926.031	12825
926.138	12768
926.245	12825
926.352	12665
926.459	12875
926.566	12821
926.673	12665
926.779	12559
926.886	12521
926.993	12502
927.099	12441
927.206	12403
927.312	12433
927.419	12467
927.525	12509
927.631	12437
927.737	12315
927.843	12201
927.95	12148
928.056	12155
928.162	12273
928.267	12285
928.373	12935
928.479	12258
928.585	12072
928.69	12186
928.796	12228
928.901	12022
929.007	11961
929.112	12068
929.218	12057
929.323	11901
929.428	11912
929.533	12064
929.638	11931
929.743	11939
929.848	11961
929.953	11912
930.058	11737
930.163	11676
930.267	11684
930.372	11790
930.477	11512
930.581	11821
930.685	11786
930.79	11573
930.894	11520
930.998	11467
931.103	11615
931.207	11303
931.311	11181
931.415	11117
931.519	10892
931.623	10908
