Data from test_V78500241_1757.txt Node
Date: Fri Mar 25 15:53:58 CST 2022
User: usil
Spectrometer: V785-0024
Trigger mode: 0
Integration Time (sec): 4.000000E-1
Scans to average: 1
Nonlinearity correction enabled: false
Boxcar width: 0
Storing dark spectrum: false
XAxis mode: Wavelengths
Number of Pixels in Spectrum: 1024
>>>>>Begin Spectral Data<<<<<
801.071	28645
801.214	28675
801.356	28508
801.499	28291
801.641	28177
801.783	28150
801.926	28348
802.068	28318
802.211	28124
802.353	28257
802.496	27892
802.638	27903
802.78	27953
802.923	27884
803.065	27827
803.208	27888
803.35	27888
803.492	28135
803.635	28082
803.777	28048
803.919	28173
804.061	28421
804.204	28086
804.346	28093
804.488	28067
804.63	28249
804.773	28082
804.915	28090
805.057	28169
805.199	28192
805.341	28341
805.483	28386
805.626	28287
805.768	28295
805.91	28356
806.052	28382
806.194	28261
806.336	28489
806.478	28360
806.62	28299
806.762	28409
806.904	28447
807.046	28774
807.188	28820
807.33	28854
807.472	28816
807.614	28550
807.756	28736
807.898	28538
808.04	28580
808.182	28538
808.324	28546
808.465	28710
808.607	28854
808.749	28965
808.891	29044
809.033	29223
809.174	29105
809.316	28919
809.458	29159
809.6	29014
809.741	28984
809.883	29143
810.025	29296
810.166	29223
810.308	29265
810.45	29193
810.591	29223
810.733	29185
810.875	29056
811.016	28847
811.158	28919
811.299	29200
811.441	29307
811.582	29235
811.724	28934
811.865	29102
812.007	29037
812.148	29086
812.29	29079
812.431	29200
812.573	29444
812.714	29459
812.855	29634
812.997	29680
813.138	29729
813.279	29630
813.421	29691
813.562	29551
813.703	29345
813.845	29212
813.986	28976
814.127	28786
814.268	28573
814.41	28706
814.551	28611
814.692	28839
814.833	28691
814.974	28729
815.115	28729
815.256	28637
815.397	28531
815.539	28611
815.68	28489
815.821	28474
815.962	28508
816.103	28500
816.244	28306
816.385	28272
816.526	28284
816.666	28086
816.807	27983
816.948	28139
817.089	28253
817.23	27983
817.371	28101
817.512	27960
817.653	28044
817.793	27922
817.934	28036
818.075	27914
818.216	28150
818.356	27949
818.497	27956
818.638	27755
818.778	27694
818.919	27842
819.06	27899
819.2	28029
819.341	28048
819.481	27926
819.622	28169
819.762	28356
819.903	28249
820.043	28314
820.184	28280
820.324	28139
820.465	28185
820.605	28177
820.746	28169
820.886	28074
821.026	28188
821.167	28143
821.307	28109
821.447	28059
821.588	27960
821.728	27846
821.868	27641
822.008	27511
822.149	27561
822.289	27553
822.429	27275
822.569	27192
822.709	27161
822.849	26914
822.99	26883
823.13	27188
823.27	26998
823.41	26868
823.55	26785
823.69	26937
823.83	26861
823.97	26838
824.11	26636
824.25	26640
824.389	26602
824.529	26629
824.669	26693
824.809	26712
824.949	26697
825.089	26925
825.228	26769
825.368	26514
825.508	26552
825.648	26571
825.787	26651
825.927	26674
826.067	26549
826.206	26522
826.346	26575
826.485	26788
826.625	26571
826.765	26746
826.904	26575
827.044	26313
827.183	26282
827.323	26355
827.462	26442
827.601	26313
827.741	26267
827.88	26244
828.02	26172
828.159	26309
828.298	26290
828.437	26465
828.577	26237
828.716	26309
828.855	26145
828.994	26035
829.134	26008
829.273	26008
829.412	25978
829.551	25890
829.69	25879
829.829	25997
829.968	26100
830.107	26031
830.246	25955
830.385	25879
830.524	25845
830.663	25658
830.802	25681
830.941	25559
831.08	25658
831.219	25780
831.357	25571
831.496	25830
831.635	25396
831.774	25548
831.913	25343
832.051	25304
832.19	25297
832.329	25240
832.467	25369
832.606	25129
832.744	25179
832.883	25244
833.022	25175
833.16	25202
833.299	25350
833.437	25350
833.576	25285
833.714	25343
833.852	25320
833.991	25381
834.129	25365
834.267	25282
834.406	25324
834.544	25324
834.682	25289
834.821	25324
834.959	25457
835.097	25285
835.235	25392
835.373	25183
835.511	25232
835.65	25236
835.788	25164
835.926	24985
836.064	25031
836.202	24977
836.34	25046
836.478	25194
836.615	25091
836.753	25072
836.891	25240
837.029	25076
837.167	25015
837.305	25031
837.443	25050
837.58	24916
837.718	25023
837.856	24970
837.993	25015
838.131	24875
838.269	24795
838.406	24764
838.544	24795
838.681	24566
838.819	24479
838.956	24460
839.094	24357
839.231	24467
839.369	24563
839.506	24623
839.643	24627
839.781	24323
839.918	24346
840.055	24471
840.193	24452
840.33	24289
840.467	24437
840.604	24369
840.742	24456
840.879	24178
841.016	24251
841.153	24076
841.29	24327
841.427	24289
841.564	24311
841.701	24201
841.838	24270
841.975	24068
842.112	24224
842.249	24174
842.385	23965
842.522	24296
842.659	24072
842.796	24083
842.933	24102
843.069	24053
843.206	24076
843.343	24049
843.479	24038
843.616	24003
843.752	23920
843.889	23832
844.025	23923
844.162	23901
844.298	23950
844.435	23847
844.571	23817
844.708	23847
844.844	24007
844.98	23973
845.117	23942
845.253	23790
845.389	23710
845.525	23809
845.661	23661
845.798	23661
845.934	23619
846.07	23646
846.206	23562
846.342	23798
846.478	23543
846.614	23277
846.75	23280
846.886	23284
847.022	23303
847.158	23288
847.294	23277
847.429	23269
847.565	23181
847.701	23520
847.837	23075
847.972	23029
848.108	23052
848.244	23140
848.379	22934
848.515	22949
848.65	22930
848.786	23025
848.921	22900
849.057	23003
849.192	22919
849.328	22847
849.463	22767
849.598	22862
849.734	22869
849.869	22862
850.004	22713
850.14	22729
850.275	22672
850.41	22512
850.545	22607
850.68	22573
850.815	22706
850.95	22550
851.085	22782
851.22	22850
851.355	22694
851.49	22653
851.625	22573
851.76	22641
851.895	22588
852.03	22443
852.165	22675
852.299	22599
852.434	22713
852.569	22626
852.703	22626
852.838	22645
852.973	22748
853.107	22843
853.242	22550
853.376	22538
853.511	22272
853.645	22398
853.78	22584
853.914	22459
854.048	22436
854.183	22386
854.317	22554
854.451	22512
854.585	22398
854.72	22478
854.854	22417
854.988	22470
855.122	22447
855.256	22459
855.39	22367
855.524	22436
855.658	22538
855.792	22497
855.926	22516
856.06	22489
856.194	22436
856.327	22310
856.461	22371
856.595	22360
856.729	22424
856.862	22527
856.996	22413
857.13	22557
857.263	22573
857.397	22519
857.53	22413
857.664	22424
857.797	22626
857.931	22561
858.064	22523
858.197	22607
858.331	22519
858.464	22440
858.597	22246
858.731	22318
858.864	22394
858.997	22367
859.13	22504
859.263	22390
859.396	22615
859.529	22405
859.662	22436
859.795	22394
859.928	22379
860.061	22683
860.194	22668
860.327	22557
860.46	22459
860.592	22489
860.725	22653
860.858	22527
860.99	22455
861.123	22409
861.256	22341
861.388	22474
861.521	23178
861.653	22295
861.786	22116
861.918	22348
862.05	22417
862.183	22287
862.315	22238
862.447	22344
862.58	22432
862.712	22169
862.844	22032
862.976	22325
863.108	22249
863.24	22474
863.372	22154
863.504	22013
863.636	22154
863.768	22219
863.9	22051
864.032	22105
864.164	22181
864.296	22162
864.428	22276
864.559	22242
864.691	22268
864.823	22238
864.954	22063
865.086	22086
865.217	21972
865.349	21956
865.48	21956
865.612	22017
865.743	22135
865.875	22044
866.006	22040
866.137	22067
866.269	21934
866.4	22051
866.531	22112
866.662	21975
866.793	21903
866.924	21972
867.055	21956
867.186	22112
867.317	21861
867.448	21918
867.579	21945
867.71	21850
867.841	21987
867.972	21991
868.103	21835
868.233	21987
868.364	22032
868.495	22006
868.625	22128
868.756	22360
868.886	22246
869.017	22200
869.147	22272
869.278	22261
869.408	22207
869.539	22162
869.669	22303
869.799	22196
869.929	22207
870.06	22310
870.19	22287
870.32	22394
870.45	22542
870.58	22675
870.71	22687
870.84	22740
870.97	22493
871.1	22542
871.23	22824
871.36	22820
871.489	22660
871.619	22694
871.749	22755
871.879	22824
872.008	22869
872.138	22847
872.267	22858
872.397	22679
872.526	22618
872.656	22717
872.785	22672
872.915	22744
873.044	22778
873.173	22786
873.303	22744
873.432	22892
873.561	22987
873.69	22774
873.819	22733
873.948	22908
874.077	22790
874.206	22767
874.335	22831
874.464	22908
874.593	23067
874.722	23006
874.851	23060
874.979	23075
875.108	23220
875.237	22869
875.365	22915
875.494	22984
875.623	23124
875.751	22919
875.88	23174
876.008	23090
876.136	23174
876.265	23459
876.393	23509
876.521	23577
876.65	23478
876.778	23414
876.906	23372
877.034	23280
877.162	23277
877.29	23269
877.418	23315
877.546	23349
877.674	23372
877.802	23227
877.93	23337
878.058	23334
878.185	23105
878.313	23372
878.441	23356
878.568	23174
878.696	23322
878.824	23436
878.951	23474
879.079	23642
879.206	23623
879.333	23600
879.461	23383
879.588	23459
879.715	23551
879.842	23642
879.97	23493
880.097	23098
880.224	23269
880.351	23151
880.478	23284
880.605	23136
880.732	23136
880.859	23417
880.986	23220
881.112	23170
881.239	23086
881.366	22854
881.493	22984
881.619	22812
881.746	22782
881.872	22805
881.999	22736
882.125	22679
882.252	22767
882.378	22733
882.505	22904
882.631	22596
882.757	22432
882.883	22588
883.01	22424
883.136	22306
883.262	22341
883.388	22238
883.514	22443
883.64	22352
883.766	22287
883.892	22086
884.018	22287
884.143	22246
884.269	22329
884.395	22078
884.52	22029
884.646	22150
884.772	21972
884.897	21994
885.023	22150
885.148	22162
885.274	22169
885.399	22169
885.524	22082
885.65	22070
885.775	22116
885.9	22002
886.025	22173
886.15	22074
886.275	21994
886.4	21956
886.525	21972
886.65	21911
886.775	22006
886.9	22128
887.025	22230
887.149	21979
887.274	21937
887.399	21762
887.523	21922
887.648	21751
887.773	21724
887.897	21949
888.021	21884
888.146	21599
888.27	21903
888.395	21922
888.519	21808
888.643	21808
888.767	21816
888.891	21808
889.015	21534
889.139	21789
889.263	21500
889.387	21720
889.511	21846
889.635	21743
889.759	21690
889.883	21781
890.006	21561
890.13	21644
890.254	21504
890.377	21591
890.501	21336
890.624	21302
890.748	21469
890.871	21195
890.995	21184
891.118	21161
891.241	21176
891.364	21192
891.488	21443
891.611	21233
891.734	21283
891.857	21192
891.98	21142
892.103	21180
892.226	21123
892.349	21100
892.471	20982
892.594	21032
892.717	21119
892.839	21089
892.962	21051
893.085	21123
893.207	21055
893.33	20918
893.452	21013
893.575	21218
893.697	21032
893.819	21283
893.941	21184
894.064	21161
894.186	21062
894.308	20982
894.43	21116
894.552	21249
894.674	21093
894.796	20921
894.918	20975
895.04	20982
895.161	21203
895.283	21024
895.405	21085
895.526	21017
895.648	21062
895.769	21081
895.891	21032
896.012	21066
896.134	21036
896.255	21138
896.376	20998
896.498	21104
896.619	21096
896.74	21142
896.861	21089
896.982	21283
897.103	21519
897.224	21340
897.345	21313
897.466	21207
897.587	21321
897.708	21473
897.828	21256
897.949	21226
898.07	21131
898.19	21192
898.311	21291
898.431	21241
898.552	21233
898.672	21485
898.792	21431
898.913	21214
899.033	21058
899.153	21127
899.273	20948
899.393	21142
899.513	21081
899.633	21001
899.753	20963
899.873	20925
899.993	21131
900.113	20925
900.232	20979
900.352	20849
900.472	20876
900.591	20743
900.711	20773
900.83	20697
900.95	20834
901.069	20868
901.189	20655
901.308	20617
901.427	20305
901.546	20301
901.665	20351
901.784	20450
901.904	20164
902.023	20100
902.141	19925
902.26	19871
902.379	19951
902.498	19826
902.617	19708
902.735	19818
902.854	19784
902.973	19704
903.091	19529
903.21	19491
903.328	19476
903.446	19339
903.565	19354
903.683	19274
903.801	19259
903.919	19168
904.038	19202
904.156	19031
904.274	19141
904.392	19061
904.51	19046
904.627	19042
904.745	19129
904.863	19118
904.981	18844
905.098	18760
905.216	18696
905.334	18760
905.451	18658
905.569	18620
905.686	18749
905.803	18582
905.921	18475
906.038	18570
906.155	18483
906.272	18422
906.389	18361
906.506	18281
906.623	18361
906.74	18289
906.857	18136
906.974	18041
907.091	18251
907.208	18384
907.324	18285
907.441	18095
907.557	18007
907.674	17980
907.79	17999
907.907	17843
908.023	18049
908.139	17939
908.256	17786
908.372	17790
908.488	17783
908.604	17733
908.72	17596
908.836	17733
908.952	17532
909.068	17592
909.184	17722
909.3	17604
909.415	17729
909.531	17577
909.647	17398
909.762	17387
909.878	17311
909.993	17334
910.108	17356
910.224	17311
910.339	17372
910.454	17269
910.57	17166
910.685	17083
910.8	17402
910.915	17326
911.03	17200
911.145	16862
911.259	16927
911.374	16942
911.489	16934
911.604	16877
911.718	16744
911.833	16786
911.947	16622
912.062	16535
912.176	16683
912.291	16641
912.405	16672
912.519	16949
912.633	16858
912.748	16752
912.862	16580
912.976	16538
913.09	16413
913.204	16363
913.318	16489
913.431	16599
913.545	16554
913.659	16588
913.772	16421
913.886	16322
914	16200
914.113	16379
914.226	16367
914.34	16382
914.453	16124
914.566	16303
914.68	16120
914.793	16071
914.906	15972
915.019	15827
915.132	15869
915.245	15884
915.358	15732
915.47	15823
915.583	15827
915.696	15880
915.809	15956
915.921	16036
916.034	15793
916.146	15869
916.259	15751
916.371	15812
916.483	15713
916.595	15610
916.708	15694
916.82	15808
916.932	15698
917.044	15568
917.156	15603
917.268	15500
917.38	15561
917.491	15344
917.603	15412
917.715	15545
917.826	15576
917.938	15405
918.049	15264
918.161	15454
918.272	15591
918.384	15466
918.495	15294
918.606	15302
918.717	15207
918.828	15207
918.939	15169
919.05	15188
919.161	15241
919.272	15058
919.383	15066
919.494	15226
919.604	15420
919.715	15214
919.826	15058
919.936	15074
920.047	15199
920.157	15150
920.267	15336
920.378	15211
920.488	15135
920.598	15359
920.708	15462
920.818	15245
920.928	15321
921.038	15443
921.148	15458
921.258	15157
921.368	15032
921.477	14963
921.587	14918
921.697	14777
921.806	14921
921.916	14765
922.025	14537
922.134	14587
922.244	14469
922.353	14522
922.462	14412
922.571	14301
922.68	14252
922.789	14252
922.898	14191
923.007	14096
923.116	14157
923.224	14164
923.333	14126
923.442	13986
923.55	14065
923.659	13967
923.767	14012
923.876	13932
923.984	14062
924.092	13868
924.201	13986
924.309	13890
924.417	13875
924.525	13837
924.633	13811
924.741	14602
924.849	13567
924.956	13753
925.064	13559
925.172	13582
925.279	13438
925.387	13685
925.494	13495
925.602	13689
925.709	13636
925.816	13464
925.924	13537
926.031	13575
926.138	13369
926.245	13483
926.352	13445
926.459	13476
926.566	13575
926.673	13438
926.779	13377
926.886	13297
926.993	13114
927.099	13122
927.206	13061
927.312	13015
927.419	13110
927.525	13061
927.631	13072
927.737	12935
927.843	12894
927.95	12840
928.056	12867
928.162	12909
928.267	12916
928.373	13571
928.479	12973
928.585	12707
928.69	12897
928.796	12924
928.901	12604
929.007	12669
929.112	12798
929.218	12669
929.323	12623
929.428	12673
929.533	12730
929.638	12521
929.743	12483
929.848	12582
929.953	12525
930.058	12513
930.163	12327
930.267	12426
930.372	12429
930.477	12239
930.581	12418
930.685	12308
930.79	12182
930.894	12159
930.998	12159
931.103	12262
931.207	11973
931.311	11790
931.415	11767
931.519	11509
931.623	11421
