Data from test_V78500241_2551.txt Node
Date: Fri Mar 25 15:59:28 CST 2022
User: usil
Spectrometer: V785-0024
Trigger mode: 0
Integration Time (sec): 4.000000E-1
Scans to average: 1
Nonlinearity correction enabled: false
Boxcar width: 0
Storing dark spectrum: false
XAxis mode: Wavelengths
Number of Pixels in Spectrum: 1024
>>>>>Begin Spectral Data<<<<<
801.071	28740
801.214	28744
801.356	28455
801.499	28272
801.641	28265
801.783	28287
801.926	28306
802.068	28291
802.211	28204
802.353	28093
802.496	28078
802.638	27857
802.78	27949
802.923	27918
803.065	27880
803.208	27930
803.35	27991
803.492	28131
803.635	28135
803.777	28040
803.919	28211
804.061	28641
804.204	28226
804.346	28215
804.488	28036
804.63	28147
804.773	27991
804.915	28322
805.057	28451
805.199	28230
805.341	28257
805.483	28394
805.626	28348
805.768	28204
805.91	28478
806.052	28481
806.194	28162
806.336	28519
806.478	28325
806.62	28363
806.762	28413
806.904	28733
807.046	28934
807.188	28847
807.33	28831
807.472	28831
807.614	28835
807.756	28862
807.898	28774
808.04	28580
808.182	28637
808.324	28664
808.465	28774
808.607	28957
808.749	29094
808.891	29159
809.033	29136
809.174	29166
809.316	28873
809.458	29033
809.6	28847
809.741	29258
809.883	29200
810.025	29318
810.166	29273
810.308	29280
810.45	29277
810.591	29174
810.733	29052
810.875	29010
811.016	28911
811.158	28965
811.299	29044
811.441	29330
811.582	29239
811.724	29018
811.865	29006
812.007	29086
812.148	29197
812.29	29041
812.431	29280
812.573	29539
812.714	29391
812.855	29668
812.997	29722
813.138	29741
813.279	29680
813.421	29821
813.562	29539
813.703	29433
813.845	29353
813.986	29124
814.127	28915
814.268	28809
814.41	28839
814.551	28820
814.692	28812
814.833	28725
814.974	28771
815.115	28854
815.256	28622
815.397	28702
815.539	28641
815.68	28569
815.821	28649
815.962	28493
816.103	28580
816.244	28363
816.385	28382
816.526	28363
816.666	28067
816.807	28059
816.948	28196
817.089	28238
817.23	28158
817.371	28051
817.512	28032
817.653	28048
817.793	27991
817.934	28048
818.075	28051
818.216	28120
818.356	28093
818.497	28074
818.638	27797
818.778	27747
818.919	27869
819.06	28036
819.2	27922
819.341	28021
819.481	27956
819.622	28135
819.762	28405
819.903	28401
820.043	28268
820.184	28234
820.324	28112
820.465	28360
820.605	28143
820.746	28154
820.886	28128
821.026	28303
821.167	28150
821.307	28242
821.447	28154
821.588	28025
821.728	28002
821.868	27793
822.008	27599
822.149	27587
822.289	27701
822.429	27348
822.569	27211
822.709	27268
822.849	27150
822.99	27077
823.13	26967
823.27	27039
823.41	27028
823.55	26819
823.69	27001
823.83	26910
823.97	27013
824.11	26712
824.25	26579
824.389	26667
824.529	26834
824.669	26651
824.809	26918
824.949	26899
825.089	26826
825.228	26845
825.368	26644
825.508	26773
825.648	26701
825.787	26583
825.927	26727
826.067	26632
826.206	26552
826.346	26758
826.485	26606
826.625	26617
826.765	26743
826.904	26629
827.044	26476
827.183	26415
827.323	26366
827.462	26408
827.601	26381
827.741	26522
827.88	26453
828.02	26271
828.159	26324
828.298	26446
828.437	26453
828.577	26362
828.716	26503
828.855	26225
828.994	26130
829.134	26161
829.273	26035
829.412	26012
829.551	26035
829.69	26035
829.829	26115
829.968	26103
830.107	26005
830.246	25928
830.385	26012
830.524	25868
830.663	25875
830.802	25693
830.941	25616
831.08	25731
831.219	25700
831.357	25772
831.496	25822
831.635	25670
831.774	25590
831.913	25544
832.051	25381
832.19	25533
832.329	25377
832.467	25457
832.606	25331
832.744	25251
832.883	25384
833.022	25304
833.16	25403
833.299	25479
833.437	25411
833.576	25365
833.714	25464
833.852	25384
833.991	25411
834.129	25575
834.267	25540
834.406	25472
834.544	25426
834.682	25388
834.821	25400
834.959	25552
835.097	25202
835.235	25373
835.373	25293
835.511	25487
835.65	25194
835.788	25251
835.926	25046
836.064	25004
836.202	24939
836.34	25179
836.478	25266
836.615	25175
836.753	25160
836.891	25285
837.029	25209
837.167	25110
837.305	25099
837.443	25137
837.58	24932
837.718	25137
837.856	25126
837.993	25008
838.131	24962
838.269	24939
838.406	25008
838.544	24848
838.681	24745
838.819	24753
838.956	24490
839.094	24418
839.231	24532
839.369	24635
839.506	24947
839.643	24791
839.781	24422
839.918	24479
840.055	24544
840.193	24513
840.33	24452
840.467	24475
840.604	24467
840.742	24669
840.879	24266
841.016	24311
841.153	24277
841.29	24525
841.427	24380
841.564	24384
841.701	24353
841.838	24346
841.975	24315
842.112	24407
842.249	24171
842.385	24235
842.522	24350
842.659	24216
842.796	24136
842.933	24186
843.069	24079
843.206	24018
843.343	24243
843.479	24216
843.616	24270
843.752	23821
843.889	23980
844.025	24083
844.162	23798
844.298	23980
844.435	23939
844.571	23961
844.708	23992
844.844	24163
844.98	24026
845.117	23977
845.253	23912
845.389	23878
845.525	23904
845.661	23824
845.798	23687
845.934	23703
846.07	23566
846.206	23691
846.342	23832
846.478	23638
846.614	23322
846.75	23277
846.886	23334
847.022	23493
847.158	23398
847.294	23478
847.429	23353
847.565	23376
847.701	23718
847.837	23197
847.972	23022
848.108	23170
848.244	23143
848.379	22942
848.515	22968
848.65	22930
848.786	23033
848.921	22942
849.057	23102
849.192	23014
849.328	22930
849.463	23086
849.598	22904
849.734	22923
849.869	22850
850.004	22797
850.14	22702
850.275	22736
850.41	22645
850.545	22752
850.68	22679
850.815	22805
850.95	22736
851.085	22873
851.22	22793
851.355	22809
851.49	22702
851.625	22630
851.76	22630
851.895	22645
852.03	22812
852.165	22889
852.299	22748
852.434	22843
852.569	22866
852.703	22645
852.838	22717
852.973	22923
853.107	22847
853.242	22706
853.376	22573
853.511	22554
853.645	22493
853.78	22755
853.914	22508
854.048	22592
854.183	22519
854.317	22577
854.451	22759
854.585	22542
854.72	22573
854.854	22512
854.988	22485
855.122	22371
855.256	22386
855.39	22443
855.524	22596
855.658	22569
855.792	22508
855.926	22527
856.06	22626
856.194	22580
856.327	22485
856.461	22421
856.595	22447
856.729	22516
856.862	22660
856.996	22550
857.13	22656
857.263	22725
857.397	22634
857.53	22569
857.664	22683
857.797	22596
857.931	22557
858.064	22466
858.197	22698
858.331	22512
858.464	22409
858.597	22360
858.731	22577
858.864	22603
858.997	22459
859.13	22379
859.263	22569
859.396	22679
859.529	22550
859.662	22577
859.795	22485
859.928	22481
860.061	22744
860.194	22740
860.327	22649
860.46	22626
860.592	22550
860.725	22698
860.858	22782
860.99	22675
861.123	22459
861.256	22436
861.388	22622
861.521	23204
861.653	22394
861.786	22390
861.918	22352
862.05	22489
862.183	22474
862.315	22451
862.447	22641
862.58	22310
862.712	22337
862.844	22295
862.976	22303
863.108	22443
863.24	22881
863.372	22272
863.504	22352
863.636	22230
863.768	22204
863.9	22211
864.032	22200
864.164	22116
864.296	22261
864.428	22200
864.559	22238
864.691	22303
864.823	22287
864.954	22219
865.086	22310
865.217	22124
865.349	22063
865.48	22234
865.612	22059
865.743	22337
865.875	22188
866.006	22074
866.137	22177
866.269	22040
866.4	22055
866.531	22040
866.662	21968
866.793	22048
866.924	22090
867.055	22044
867.186	22021
867.317	22120
867.448	21869
867.579	22044
867.71	21846
867.841	21876
867.972	22097
868.103	22070
868.233	21979
868.364	22051
868.495	22188
868.625	22310
868.756	22386
868.886	22284
869.017	22230
869.147	22363
869.278	22341
869.408	22333
869.539	22329
869.669	22287
869.799	22363
869.929	22382
870.06	22337
870.19	22569
870.32	22641
870.45	22653
870.58	22592
870.71	22843
870.84	22828
870.97	22759
871.1	22596
871.23	22953
871.36	22930
871.489	22778
871.619	22850
871.749	22938
871.879	22961
872.008	22961
872.138	22854
872.267	22896
872.397	22778
872.526	22729
872.656	22615
872.785	22782
872.915	22934
873.044	23029
873.173	22854
873.303	22915
873.432	22965
873.561	23037
873.69	22923
873.819	22968
873.948	22911
874.077	22957
874.206	22820
874.335	23003
874.464	22972
874.593	23124
874.722	23155
874.851	23075
874.979	23124
875.108	23056
875.237	23113
875.365	23025
875.494	22976
875.623	23166
875.751	23090
875.88	23094
876.008	23162
876.136	23258
876.265	23467
876.393	23653
876.521	23562
876.65	23630
876.778	23539
876.906	23459
877.034	23345
877.162	23467
877.29	23360
877.418	23573
877.546	23642
877.674	23505
877.802	23497
877.93	23463
878.058	23368
878.185	23372
878.313	23360
878.441	23448
878.568	23353
878.696	23433
878.824	23436
878.951	23539
879.079	23512
879.206	23741
879.333	23543
879.461	23482
879.588	23558
879.715	23585
879.842	23733
879.97	23577
880.097	23345
880.224	23166
880.351	23376
880.478	23242
880.605	23216
880.732	23258
880.859	23566
880.986	23261
881.112	23364
881.239	23083
881.366	22984
881.493	22942
881.619	22843
881.746	22919
881.872	22908
881.999	22793
882.125	22774
882.252	22896
882.378	22942
882.505	22866
882.631	22603
882.757	22557
882.883	22592
883.01	22538
883.136	22554
883.262	22375
883.388	22512
883.514	22546
883.64	22500
883.766	22428
883.892	22333
884.018	22291
884.143	22478
884.269	22592
884.395	22261
884.52	22109
884.646	22158
884.772	22093
884.897	22154
885.023	22154
885.148	22295
885.274	22177
885.399	22230
885.524	22109
885.65	22207
885.775	22246
885.9	22055
886.025	22230
886.15	22192
886.275	22040
886.4	22029
886.525	22105
886.65	22013
886.775	21972
886.9	22116
887.025	22280
887.149	22059
887.274	22017
887.399	21945
887.523	21918
887.648	21865
887.773	21778
887.897	21899
888.021	21949
888.146	21846
888.27	22017
888.395	22021
888.519	21907
888.643	21934
888.767	21903
888.891	21778
889.015	21759
889.139	21743
889.263	21713
889.387	21698
889.511	21934
889.635	21907
889.759	21606
889.883	21656
890.006	21759
890.13	21778
890.254	21675
890.377	21633
890.501	21428
890.624	21329
890.748	21485
890.871	21325
890.995	21150
891.118	21226
891.241	21135
891.364	21298
891.488	21336
891.611	21268
891.734	21260
891.857	21226
891.98	21192
892.103	21256
892.226	21127
892.349	21249
892.471	21017
892.594	21104
892.717	21218
892.839	21161
892.962	21150
893.085	21222
893.207	21173
893.33	21138
893.452	21047
893.575	21165
893.697	21123
893.819	21336
893.941	21363
894.064	21214
894.186	21039
894.308	20982
894.43	21245
894.552	21291
894.674	21150
894.796	21036
894.918	21233
895.04	21005
895.161	21218
895.283	21169
895.405	20982
895.526	21207
895.648	21077
895.769	21192
895.891	21188
896.012	21180
896.134	21100
896.255	21051
896.376	21047
896.498	21116
896.619	21055
896.74	21077
896.861	21146
896.982	21462
897.103	21572
897.224	21359
897.345	21294
897.466	21184
897.587	21275
897.708	21389
897.828	21279
897.949	21351
898.07	21154
898.19	21412
898.311	21256
898.431	21317
898.552	21332
898.672	21275
898.792	21355
898.913	21260
899.033	21233
899.153	20967
899.273	20902
899.393	20982
899.513	21077
899.633	21085
899.753	21001
899.873	21055
899.993	21093
900.113	20982
900.232	20914
900.352	20872
900.472	20845
900.591	20758
900.711	20902
900.83	20826
900.95	20872
901.069	20948
901.189	20788
901.308	20465
901.427	20495
901.546	20533
901.665	20339
901.784	20381
901.904	20252
902.023	20157
902.141	19997
902.26	19947
902.379	19894
902.498	19906
902.617	19814
902.735	19837
902.854	19772
902.973	19750
903.091	19533
903.21	19563
903.328	19510
903.446	19411
903.565	19358
903.683	19369
903.801	19225
903.919	19206
904.038	19202
904.156	19148
904.274	19225
904.392	19118
904.51	19038
904.627	19114
904.745	19080
904.863	19118
904.981	18897
905.098	18749
905.216	18589
905.334	18829
905.451	18798
905.569	18726
905.686	18684
905.803	18696
905.921	18494
906.038	18711
906.155	18559
906.272	18437
906.389	18490
906.506	18296
906.623	18361
906.74	18277
906.857	18178
906.974	18197
907.091	18300
907.208	18311
907.324	18186
907.441	18186
907.557	18007
907.674	18034
907.79	17923
907.907	17870
908.023	18083
908.139	18003
908.256	17882
908.372	17722
908.488	17851
908.604	17752
908.72	17657
908.836	17764
908.952	17684
909.068	17760
909.184	17893
909.3	17653
909.415	17726
909.531	17699
909.647	17440
909.762	17493
909.878	17372
909.993	17463
910.108	17372
910.224	17372
910.339	17349
910.454	17166
910.57	17208
910.685	17121
910.8	17246
910.915	17315
911.03	17185
911.145	17075
911.259	16904
911.374	16999
911.489	16900
911.604	16908
911.718	16721
911.833	16725
911.947	16683
912.062	16481
912.176	16702
912.291	16679
912.405	16717
912.519	16847
912.633	16877
912.748	16771
912.862	16641
912.976	16580
913.09	16459
913.204	16485
913.318	16527
913.431	16592
913.545	16554
913.659	16550
913.772	16497
913.886	16352
914	16226
914.113	16405
914.226	16428
914.34	16306
914.453	16162
914.566	16306
914.68	16200
914.793	16207
914.906	16032
915.019	15846
915.132	15895
915.245	15842
915.358	15915
915.47	15911
915.583	15918
915.696	15926
915.809	15994
915.921	15956
916.034	15804
916.146	15835
916.259	15857
916.371	15793
916.483	15819
916.595	15747
916.708	15641
916.82	15766
916.932	15625
917.044	15641
917.156	15591
917.268	15542
917.38	15549
917.491	15473
917.603	15523
917.715	15557
917.826	15637
917.938	15450
918.049	15405
918.161	15355
918.272	15576
918.384	15523
918.495	15447
918.606	15435
918.717	15306
918.828	15325
918.939	15222
919.05	15146
919.161	15195
919.272	14975
919.383	15058
919.494	15279
919.604	15542
919.715	15275
919.826	15192
919.936	15173
920.047	15302
920.157	15173
920.267	15370
920.378	15112
920.488	15150
920.598	15374
920.708	15439
920.818	15283
920.928	15272
921.038	15416
921.148	15428
921.258	15192
921.368	15039
921.477	14979
921.587	15032
921.697	14785
921.806	14986
921.916	14792
922.025	14655
922.134	14617
922.244	14568
922.353	14636
922.462	14457
922.571	14259
922.68	14180
922.789	14176
922.898	14298
923.007	14157
923.116	14210
923.224	14149
923.333	14123
923.442	14111
923.55	13928
923.659	14031
923.767	14134
923.876	14069
923.984	14035
924.092	13852
924.201	13875
924.309	14035
924.417	13925
924.525	13883
924.633	13879
924.741	14682
924.849	13643
924.956	13788
925.064	13597
925.172	13518
925.279	13594
925.387	13643
925.494	13597
925.602	13727
925.709	13655
925.816	13483
925.924	13472
926.031	13609
926.138	13575
926.245	13575
926.352	13457
926.459	13476
926.566	13540
926.673	13445
926.779	13324
926.886	13346
926.993	13118
927.099	13141
927.206	13114
927.312	13069
927.419	13152
927.525	13110
927.631	13110
927.737	13031
927.843	12951
927.95	12829
928.056	12966
928.162	12901
928.267	13012
928.373	13616
928.479	13015
928.585	12802
928.69	12951
928.796	12920
928.901	12749
929.007	12658
929.112	12726
929.218	12669
929.323	12639
929.428	12627
929.533	12802
929.638	12547
929.743	12570
929.848	12684
929.953	12608
930.058	12456
930.163	12391
930.267	12323
930.372	12467
930.477	12285
930.581	12506
930.685	12395
930.79	12266
930.894	12273
930.998	12182
931.103	12327
931.207	11961
931.311	11889
931.415	11824
931.519	11493
931.623	11524
