Data from test_V78500241_854.txt Node
Date: Fri Mar 25 15:47:43 CST 2022
User: usil
Spectrometer: V785-0024
Trigger mode: 0
Integration Time (sec): 4.000000E-1
Scans to average: 1
Nonlinearity correction enabled: false
Boxcar width: 0
Storing dark spectrum: false
XAxis mode: Wavelengths
Number of Pixels in Spectrum: 1024
>>>>>Begin Spectral Data<<<<<
801.071	27610
801.214	27466
801.356	27294
801.499	27287
801.641	27226
801.783	27230
801.926	27310
802.068	27062
802.211	27058
802.353	27024
802.496	26800
802.638	26853
802.78	26872
802.923	26815
803.065	26826
803.208	26807
803.35	26880
803.492	27051
803.635	27058
803.777	26921
803.919	26994
804.061	27294
804.204	27085
804.346	26937
804.488	26925
804.63	26948
804.773	26960
804.915	27020
805.057	27173
805.199	27070
805.341	27074
805.483	27233
805.626	27165
805.768	27077
805.91	27142
806.052	27176
806.194	27081
806.336	27294
806.478	27214
806.62	27207
806.762	27275
806.904	27458
807.046	27690
807.188	27614
807.33	27587
807.472	27534
807.614	27701
807.756	27549
807.898	27336
808.04	27443
808.182	27397
808.324	27424
808.465	27538
808.607	27743
808.749	27648
808.891	27876
809.033	27888
809.174	27914
809.316	27751
809.458	27857
809.6	27720
809.741	27838
809.883	27914
810.025	28295
810.166	28070
810.308	28150
810.45	28029
810.591	28021
810.733	27907
810.875	27770
811.016	27625
811.158	27816
811.299	27785
811.441	28025
811.582	28055
811.724	27789
811.865	27842
812.007	27766
812.148	27774
812.29	27945
812.431	27911
812.573	28086
812.714	28211
812.855	28261
812.997	28401
813.138	28497
813.279	28386
813.421	28436
813.562	28303
813.703	28166
813.845	28002
813.986	27690
814.127	27656
814.268	27500
814.41	27591
814.551	27591
814.692	27580
814.833	27538
814.974	27332
815.115	27507
815.256	27481
815.397	27393
815.539	27325
815.68	27256
815.821	27142
815.962	27317
816.103	27169
816.244	27340
816.385	27173
816.526	27074
816.666	26975
816.807	26697
816.948	26940
817.089	27020
817.23	26845
817.371	26773
817.512	26792
817.653	26727
817.793	26773
817.934	26800
818.075	26842
818.216	26727
818.356	26773
818.497	26644
818.638	26507
818.778	26587
818.919	26568
819.06	26568
819.2	26769
819.341	26807
819.481	26849
819.622	26876
819.762	27062
819.903	27013
820.043	26921
820.184	26868
820.324	26891
820.465	26918
820.605	26853
820.746	26925
820.886	26823
821.026	26861
821.167	26857
821.307	26960
821.447	26773
821.588	26697
821.728	26484
821.868	26457
822.008	26145
822.149	26225
822.289	26164
822.429	26020
822.569	25997
822.709	25932
822.849	25780
822.99	25807
823.13	25738
823.27	25734
823.41	25594
823.55	25487
823.69	25518
823.83	25537
823.97	25426
824.11	25472
824.25	25304
824.389	25460
824.529	25563
824.669	25358
824.809	25457
824.949	25373
825.089	25457
825.228	25369
825.368	25183
825.508	25247
825.648	25362
825.787	25419
825.927	25411
826.067	25312
826.206	25263
826.346	25434
826.485	25320
826.625	25190
826.765	25266
826.904	25403
827.044	25080
827.183	25019
827.323	24985
827.462	25038
827.601	24810
827.741	24947
827.88	25015
828.02	24859
828.159	24958
828.298	25023
828.437	25084
828.577	24833
828.716	24958
828.855	24966
828.994	24650
829.134	24616
829.273	24760
829.412	24658
829.551	24658
829.69	24688
829.829	24650
829.968	24722
830.107	24749
830.246	24566
830.385	24631
830.524	24521
830.663	24490
830.802	24338
830.941	24327
831.08	24308
831.219	24315
831.357	24429
831.496	24433
831.635	24304
831.774	24285
831.913	24133
832.051	24072
832.19	24121
832.329	24095
832.467	23958
832.606	23832
832.744	23859
832.883	24049
833.022	23882
833.16	24018
833.299	23916
833.437	23950
833.576	24140
833.714	24129
833.852	24045
833.991	24098
834.129	24140
834.267	24007
834.406	24011
834.544	23958
834.682	24034
834.821	23999
834.959	24136
835.097	23996
835.235	23992
835.373	24038
835.511	24140
835.65	23935
835.788	23805
835.926	23714
836.064	23657
836.202	23649
836.34	23927
836.478	23889
836.615	23802
836.753	23904
836.891	23996
837.029	23863
837.167	23661
837.305	23722
837.443	23691
837.58	23589
837.718	23722
837.856	23737
837.993	23703
838.131	23642
838.269	23516
838.406	23604
838.544	23520
838.681	23360
838.819	23296
838.956	23105
839.094	23162
839.231	23113
839.369	23303
839.506	23581
839.643	23592
839.781	23147
839.918	23121
840.055	23083
840.193	23216
840.33	23132
840.467	23166
840.604	23235
840.742	23311
840.879	23064
841.016	22927
841.153	22980
841.29	23208
841.427	23041
841.564	23044
841.701	23056
841.838	23071
841.975	22885
842.112	22999
842.249	22869
842.385	22889
842.522	23052
842.659	22812
842.796	22675
842.933	22763
843.069	22752
843.206	22733
843.343	22896
843.479	22786
843.616	22771
843.752	22569
843.889	22580
844.025	22752
844.162	22462
844.298	22729
844.435	22592
844.571	22538
844.708	22645
844.844	22691
844.98	22755
845.117	22755
845.253	22508
845.389	22424
845.525	22519
845.661	22394
845.798	22375
845.934	22318
846.07	22257
846.206	22325
846.342	22523
846.478	22310
846.614	22223
846.75	22006
846.886	22196
847.022	21991
847.158	21930
847.294	22131
847.429	22112
847.565	21987
847.701	22333
847.837	21835
847.972	21717
848.108	21884
848.244	21835
848.379	21603
848.515	21652
848.65	21660
848.786	21747
848.921	21648
849.057	21762
849.192	21789
849.328	21644
849.463	21709
849.598	21682
849.734	21637
849.869	21568
850.004	21359
850.14	21462
850.275	21466
850.41	21408
850.545	21351
850.68	21332
850.815	21431
850.95	21424
851.085	21614
851.22	21545
851.355	21443
851.49	21534
851.625	21363
851.76	21439
851.895	21363
852.03	21348
852.165	21466
852.299	21496
852.434	21538
852.569	21370
852.703	21363
852.838	21496
852.973	21561
853.107	21511
853.242	21310
853.376	21230
853.511	21112
853.645	21199
853.78	21291
853.914	21310
854.048	21332
854.183	21279
854.317	21233
854.451	21443
854.585	21264
854.72	21268
854.854	21370
854.988	21214
855.122	21291
855.256	21146
855.39	21275
855.524	21393
855.658	21306
855.792	21252
855.926	21279
856.06	21355
856.194	21195
856.327	21268
856.461	21256
856.595	21169
856.729	21180
856.862	21317
856.996	21298
857.13	21298
857.263	21336
857.397	21386
857.53	21268
857.664	21313
857.797	21336
857.931	21329
858.064	21211
858.197	21325
858.331	21287
858.464	21237
858.597	21207
858.731	21039
858.864	21176
858.997	21222
859.13	21203
859.263	21237
859.396	21336
859.529	21146
859.662	21161
859.795	21146
859.928	21317
860.061	21397
860.194	21542
860.327	21340
860.46	21321
860.592	21408
860.725	21344
860.858	21450
860.99	21260
861.123	21104
861.256	21207
861.388	21321
861.521	21854
861.653	21154
861.786	21013
861.918	21009
862.05	21195
862.183	21249
862.315	21230
862.447	21138
862.58	21142
862.712	21074
862.844	20979
862.976	21081
863.108	20941
863.24	21332
863.372	20921
863.504	20887
863.636	20952
863.768	20948
863.9	21017
864.032	20815
864.164	20944
864.296	20868
864.428	21081
864.559	21112
864.691	21036
864.823	21055
864.954	20925
865.086	20914
865.217	20895
865.349	20872
865.48	20815
865.612	20727
865.743	20952
865.875	20861
866.006	20769
866.137	20796
866.269	20845
866.4	20857
866.531	20826
866.662	20724
866.793	20758
866.924	20921
867.055	20864
867.186	20811
867.317	20712
867.448	20632
867.579	20781
867.71	20701
867.841	20651
867.972	20746
868.103	20735
868.233	20853
868.364	20800
868.495	20925
868.625	21055
868.756	21131
868.886	21028
869.017	21058
869.147	21123
869.278	21085
869.408	21096
869.539	20998
869.669	21180
869.799	20982
869.929	21176
870.06	21070
870.19	21332
870.32	21241
870.45	21294
870.58	21485
870.71	21553
870.84	21519
870.97	21443
871.1	21378
871.23	21530
871.36	21564
871.489	21603
871.619	21633
871.749	21739
871.879	21595
872.008	21804
872.138	21633
872.267	21641
872.397	21641
872.526	21405
872.656	21443
872.785	21519
872.915	21595
873.044	21743
873.173	21538
873.303	21610
873.432	21808
873.561	21781
873.69	21663
873.819	21675
873.948	21682
874.077	21663
874.206	21663
874.335	21557
874.464	21728
874.593	21876
874.722	21884
874.851	21983
874.979	21926
875.108	21953
875.237	21778
875.365	21629
875.494	21835
875.623	21892
875.751	21835
875.88	21934
876.008	22021
876.136	22044
876.265	22207
876.393	22382
876.521	22299
876.65	22367
876.778	22325
876.906	22192
877.034	22173
877.162	22295
877.29	22196
877.418	22295
877.546	22067
877.674	22124
877.802	22413
877.93	22219
878.058	22188
878.185	22169
878.313	22154
878.441	22048
878.568	22067
878.696	22139
878.824	22253
878.951	22394
879.079	22417
879.206	22542
879.333	22409
879.461	22238
879.588	22272
879.715	22440
879.842	22447
879.97	22360
880.097	22181
880.224	22006
880.351	21941
880.478	21972
880.605	21937
880.732	22048
880.859	22303
880.986	22093
881.112	22032
881.239	21945
881.366	21747
881.493	21747
881.619	21572
881.746	21553
881.872	21629
881.999	21572
882.125	21523
882.252	21667
882.378	21595
882.505	21587
882.631	21359
882.757	21370
882.883	21492
883.01	21321
883.136	21150
883.262	21260
883.388	21222
883.514	21222
883.64	21298
883.766	21382
883.892	21173
884.018	21070
884.143	21306
884.269	21405
884.395	21135
884.52	20941
884.646	20979
884.772	20826
884.897	20849
885.023	20933
885.148	20998
885.274	21100
885.399	21058
885.524	21005
885.65	20933
885.775	20990
885.9	20982
886.025	21070
886.15	21020
886.275	20941
886.4	20952
886.525	20891
886.65	20906
886.775	20925
886.9	21043
887.025	21131
887.149	20998
887.274	20754
887.399	20838
887.523	20644
887.648	20674
887.773	20644
887.897	20807
888.021	20842
888.146	20705
888.27	20838
888.395	20800
888.519	20796
888.643	20815
888.767	20800
888.891	20670
889.015	20499
889.139	20598
889.263	20499
889.387	20644
889.511	20781
889.635	20769
889.759	20655
889.883	20629
890.006	20488
890.13	20613
890.254	20488
890.377	20488
890.501	20305
890.624	20176
890.748	20427
890.871	20134
890.995	20111
891.118	19788
891.241	20168
891.364	20145
891.488	20214
891.611	20149
891.734	20050
891.857	20103
891.98	20081
892.103	20218
892.226	20237
892.349	20069
892.471	20020
892.594	19959
892.717	20016
892.839	19936
892.962	20081
893.085	20168
893.207	19997
893.33	19902
893.452	19746
893.575	20088
893.697	20039
893.819	20111
893.941	20267
894.064	20153
894.186	20001
894.308	19932
894.43	20027
894.552	20298
894.674	20054
894.796	20016
894.918	20027
895.04	20050
895.161	20107
895.283	20100
895.405	19974
895.526	20119
895.648	19978
895.769	20122
895.891	20039
896.012	20183
896.134	20122
896.255	20043
896.376	19993
896.498	20035
896.619	19967
896.74	19944
896.861	20062
896.982	20389
897.103	20461
897.224	20385
897.345	20229
897.466	20149
897.587	20172
897.708	20286
897.828	20290
897.949	20069
898.07	20111
898.19	20237
898.311	20290
898.431	20119
898.552	20328
898.672	20339
898.792	20248
898.913	20187
899.033	20126
899.153	20016
899.273	20001
899.393	19944
899.513	19898
899.633	20111
899.753	20050
899.873	19963
899.993	20035
900.113	20024
900.232	19917
900.352	19940
900.472	19791
900.591	19772
900.711	19761
900.83	19738
900.95	19868
901.069	19871
901.189	19738
901.308	19453
901.427	19274
901.546	19266
901.665	19441
901.784	19293
901.904	19190
902.023	19091
902.141	18928
902.26	18947
902.379	18947
902.498	18932
902.617	18867
902.735	18886
902.854	18852
902.973	18700
903.091	18741
903.21	18490
903.328	18460
903.446	18509
903.565	18346
903.683	18266
903.801	18270
903.919	18334
904.038	18319
904.156	18133
904.274	18148
904.392	18178
904.51	18178
904.627	18117
904.745	18213
904.863	18155
904.981	17901
905.098	17821
905.216	17703
905.334	17920
905.451	17760
905.569	17752
905.686	17851
905.803	17817
905.921	17684
906.038	17684
906.155	17596
906.272	17539
906.389	17421
906.506	17311
906.623	17307
906.74	17337
906.857	17242
906.974	17265
907.091	17486
907.208	17455
907.324	17288
907.441	17109
907.557	17060
907.674	17010
907.79	17022
907.907	17067
908.023	16995
908.139	17048
908.256	16873
908.372	16908
908.488	16953
908.604	16771
908.72	16653
908.836	16797
908.952	16645
909.068	16824
909.184	16744
909.3	16637
909.415	16797
909.531	16786
909.647	16546
909.762	16508
909.878	16382
909.993	16550
910.108	16402
910.224	16462
910.339	16337
910.454	16265
910.57	16253
910.685	16223
910.8	16481
910.915	16440
911.03	16249
911.145	16143
911.259	16120
911.374	16032
911.489	15934
911.604	15873
911.718	15857
911.833	15865
911.947	15701
912.062	15762
912.176	15880
912.291	15671
912.405	15846
912.519	15949
912.633	16040
912.748	15907
912.862	15819
912.976	15591
913.09	15534
913.204	15671
913.318	15603
913.431	15797
913.545	15629
913.659	15770
913.772	15580
913.886	15454
914	15412
914.113	15545
914.226	15584
914.34	15561
914.453	15287
914.566	15393
914.68	15291
914.793	15310
914.906	15176
915.019	15074
915.132	14902
915.245	15001
915.358	15161
915.47	15077
915.583	15047
915.696	15009
915.809	15135
915.921	15173
916.034	14891
916.146	14990
916.259	14902
916.371	15131
916.483	14994
916.595	14918
916.708	14876
916.82	14899
916.932	14891
917.044	14868
917.156	14773
917.268	14735
917.38	14777
917.491	14727
917.603	14655
917.715	14727
917.826	14785
917.938	14712
918.049	14541
918.161	14644
918.272	14788
918.384	14811
918.495	14678
918.606	14473
918.717	14389
918.828	14499
918.939	14530
919.05	14328
919.161	14507
919.272	14290
919.383	14385
919.494	14518
919.604	14648
919.715	14423
919.826	14358
919.936	14473
920.047	14522
920.157	14381
920.267	14545
920.378	14522
920.488	14484
920.598	14511
920.708	14610
920.818	14644
920.928	14530
921.038	14781
921.148	14750
921.258	14362
921.368	14240
921.477	14180
921.587	14229
921.697	14119
921.806	14221
921.916	14096
922.025	13864
922.134	13776
922.244	13765
922.353	13894
922.462	13651
922.571	13590
922.68	13434
922.789	13419
922.898	13449
923.007	13491
923.116	13525
923.224	13419
923.333	13373
923.442	13312
923.55	13266
923.659	13369
923.767	13331
923.876	13266
923.984	13225
924.092	13141
924.201	13240
924.309	13126
924.417	13266
924.525	13076
924.633	13145
924.741	13982
924.849	12924
924.956	13118
925.064	12852
925.172	12878
925.279	12779
925.387	12958
925.494	12829
925.602	12913
925.709	12996
925.816	12745
925.924	12760
926.031	12859
926.138	12852
926.245	12920
926.352	12764
926.459	12951
926.566	12920
926.673	12741
926.779	12662
926.886	12597
926.993	12528
927.099	12551
927.206	12388
927.312	12399
927.419	12486
927.525	12479
927.631	12471
927.737	12308
927.843	12239
927.95	12266
928.056	12224
928.162	12296
928.267	12308
928.373	12897
928.479	12384
928.585	12098
928.69	12194
928.796	12327
928.901	12136
929.007	12072
929.112	12125
929.218	12087
929.323	12076
929.428	11927
929.533	12159
929.638	11958
929.743	11946
929.848	12019
929.953	11973
930.058	11866
930.163	11703
930.267	11710
930.372	11927
930.477	11729
930.581	11920
930.685	11794
930.79	11649
930.894	11558
930.998	11551
931.103	11760
931.207	11360
931.311	11318
931.415	11162
931.519	11029
931.623	10949
