Data from test_V78500241_2460.txt Node
Date: Fri Mar 25 15:58:50 CST 2022
User: usil
Spectrometer: V785-0024
Trigger mode: 0
Integration Time (sec): 4.000000E-1
Scans to average: 1
Nonlinearity correction enabled: false
Boxcar width: 0
Storing dark spectrum: false
XAxis mode: Wavelengths
Number of Pixels in Spectrum: 1024
>>>>>Begin Spectral Data<<<<<
801.071	29128
801.214	29102
801.356	28835
801.499	28786
801.641	28698
801.783	28755
801.926	28793
802.068	28786
802.211	28592
802.353	28683
802.496	28504
802.638	28436
802.78	28348
802.923	28401
803.065	28287
803.208	28257
803.35	28447
803.492	28508
803.635	28615
803.777	28683
803.919	28725
804.061	29037
804.204	28706
804.346	28596
804.488	28443
804.63	28656
804.773	28607
804.915	28713
805.057	28866
805.199	28744
805.341	28767
805.483	28843
805.626	28847
805.768	28740
805.91	28957
806.052	28888
806.194	28721
806.336	29090
806.478	28763
806.62	28888
806.762	29029
806.904	29193
807.046	29364
807.188	29273
807.33	29402
807.472	29372
807.614	29227
807.756	29364
807.898	29094
808.04	29132
808.182	29018
808.324	29261
808.465	29181
808.607	29174
808.749	29611
808.891	29596
809.033	29779
809.174	29600
809.316	29619
809.458	29509
809.6	29524
809.741	29684
809.883	29802
810.025	29927
810.166	29847
810.308	29878
810.45	29859
810.591	29840
810.733	29577
810.875	29581
811.016	29478
811.158	29539
811.299	29627
811.441	29710
811.582	29707
811.724	29520
811.865	29608
812.007	29539
812.148	29539
812.29	29729
812.431	29775
812.573	29885
812.714	29958
812.855	30159
812.997	30213
813.138	30391
813.279	30289
813.421	30110
813.562	30003
813.703	29988
813.845	29942
813.986	29589
814.127	29482
814.268	29326
814.41	29296
814.551	29170
814.692	29216
814.833	29315
814.974	29003
815.115	29341
815.256	29140
815.397	29140
815.539	29185
815.68	29204
815.821	29113
815.962	29105
816.103	29178
816.244	28965
816.385	29056
816.526	28858
816.666	28740
816.807	28481
816.948	28626
817.089	28660
817.23	28683
817.371	28626
817.512	28603
817.653	28649
817.793	28550
817.934	28672
818.075	28580
818.216	28626
818.356	28580
818.497	28584
818.638	28421
818.778	28398
818.919	28523
819.06	28508
819.2	28538
819.341	28565
819.481	28641
819.622	28805
819.762	29083
819.903	28957
820.043	28942
820.184	28873
820.324	28774
820.465	28957
820.605	28767
820.746	28771
820.886	28565
821.026	28767
821.167	28752
821.307	28911
821.447	28630
821.588	28596
821.728	28459
821.868	28219
822.008	28280
822.149	28173
822.289	28013
822.429	27869
822.569	27816
822.709	27785
822.849	27800
822.99	27774
823.13	27644
823.27	27606
823.41	27462
823.55	27291
823.69	27401
823.83	27530
823.97	27370
824.11	27359
824.25	27249
824.389	27252
824.529	27389
824.669	27131
824.809	27534
824.949	27310
825.089	27405
825.228	27287
825.368	27207
825.508	27203
825.648	27119
825.787	27089
825.927	27207
826.067	27245
826.206	27093
826.346	27260
826.485	27268
826.625	27161
826.765	27199
826.904	27351
827.044	26876
827.183	26940
827.323	26857
827.462	27043
827.601	26864
827.741	26849
827.88	26891
828.02	26804
828.159	26754
828.298	26998
828.437	26937
828.577	26777
828.716	26910
828.855	26899
828.994	26587
829.134	26461
829.273	26552
829.412	26499
829.551	26552
829.69	26583
829.829	26590
829.968	26602
830.107	26629
830.246	26492
830.385	26484
830.524	26495
830.663	26393
830.802	26317
830.941	26313
831.08	26096
831.219	26343
831.357	26195
831.496	26404
831.635	25997
831.774	26240
831.913	26039
832.051	25993
832.19	25921
832.329	26039
832.467	25887
832.606	25841
832.744	25757
832.883	25822
833.022	25791
833.16	25731
833.299	25868
833.437	25951
833.576	25951
833.714	25845
833.852	26031
833.991	25993
834.129	25913
834.267	26084
834.406	25833
834.544	25989
834.682	25974
834.821	25921
834.959	26031
835.097	25898
835.235	25841
835.373	25879
835.511	25822
835.65	25750
835.788	25670
835.926	25605
836.064	25613
836.202	25514
836.34	25811
836.478	25841
836.615	25632
836.753	25715
836.891	25898
837.029	25662
837.167	25689
837.305	25594
837.443	25533
837.58	25605
837.718	25769
837.856	25594
837.993	25529
838.131	25655
838.269	25403
838.406	25384
838.544	25343
838.681	25107
838.819	25251
838.956	25000
839.094	25019
839.231	24985
839.369	25187
839.506	25381
839.643	25285
839.781	25065
839.918	24943
840.055	24992
840.193	24928
840.33	24966
840.467	24833
840.604	24848
840.742	25152
840.879	24760
841.016	24772
841.153	24806
841.29	24909
841.427	24867
841.564	24890
841.701	25027
841.838	24768
841.975	24715
842.112	24760
842.249	24738
842.385	24707
842.522	24920
842.659	24806
842.796	24700
842.933	24681
843.069	24673
843.206	24623
843.343	24620
843.479	24612
843.616	24494
843.752	24407
843.889	24289
844.025	24475
844.162	24365
844.298	24486
844.435	24433
844.571	24388
844.708	24437
844.844	24730
844.98	24555
845.117	24464
845.253	24395
845.389	24334
845.525	24235
845.661	24235
845.798	24159
845.934	24194
846.07	24106
846.206	24174
846.342	24327
846.478	24167
846.614	23942
846.75	23805
846.886	23889
847.022	23942
847.158	23870
847.294	23843
847.429	23866
847.565	23760
847.701	24159
847.837	23676
847.972	23566
848.108	23585
848.244	23649
848.379	23516
848.515	23543
848.65	23372
848.786	23497
848.921	23383
849.057	23554
849.192	23581
849.328	23459
849.463	23341
849.598	23414
849.734	23417
849.869	23246
850.004	23337
850.14	23208
850.275	23284
850.41	23098
850.545	23261
850.68	23239
850.815	23235
850.95	23235
851.085	23315
851.22	23398
851.355	23337
851.49	23166
851.625	23258
851.76	23178
851.895	23269
852.03	23052
852.165	23231
852.299	23235
852.434	23299
852.569	23136
852.703	23178
852.838	23307
852.973	23349
853.107	23379
853.242	23166
853.376	23098
853.511	23003
853.645	22980
853.78	23067
853.914	23143
854.048	23261
854.183	22927
854.317	23113
854.451	23162
854.585	23037
854.72	23094
854.854	23105
854.988	23018
855.122	23022
855.256	22862
855.39	23006
855.524	23147
855.658	23105
855.792	23018
855.926	23060
856.06	23086
856.194	23025
856.327	22946
856.461	23094
856.595	22991
856.729	23048
856.862	23147
856.996	23079
857.13	23151
857.263	23208
857.397	23193
857.53	23014
857.664	23143
857.797	23113
857.931	23159
858.064	23121
858.197	23132
858.331	23003
858.464	23098
858.597	22904
858.731	22984
858.864	22938
858.997	23029
859.13	22957
859.263	23060
859.396	23098
859.529	23056
859.662	23067
859.795	22927
859.928	23124
860.061	23231
860.194	23280
860.327	23105
860.46	23037
860.592	23159
860.725	23239
860.858	23189
860.99	23090
861.123	22930
861.256	23033
861.388	22965
861.521	23783
861.653	22877
861.786	22809
861.918	22835
862.05	22938
862.183	22877
862.315	22976
862.447	23006
862.58	23022
862.712	22793
862.844	22675
862.976	22767
863.108	22717
863.24	23185
863.372	22557
863.504	22752
863.636	22782
863.768	22831
863.9	22615
864.032	22774
864.164	22615
864.296	22744
864.428	22812
864.559	22828
864.691	22843
864.823	22721
864.954	22733
865.086	22763
865.217	22561
865.349	22580
865.48	22634
865.612	22584
865.743	22774
865.875	22687
866.006	22546
866.137	22542
866.269	22588
866.4	22592
866.531	22607
866.662	22462
866.793	22546
866.924	22470
867.055	22531
867.186	22637
867.317	22504
867.448	22508
867.579	22542
867.71	22325
867.841	22382
867.972	22478
868.103	22516
868.233	22584
868.364	22497
868.495	22664
868.625	22801
868.756	22744
868.886	22839
869.017	22790
869.147	22892
869.278	22892
869.408	22839
869.539	22854
869.669	22843
869.799	22881
869.929	22915
870.06	22835
870.19	23041
870.32	23025
870.45	23117
870.58	23170
870.71	23288
870.84	23368
870.97	23159
871.1	23178
871.23	23440
871.36	23421
871.489	23326
871.619	23273
871.749	23364
871.879	23395
872.008	23558
872.138	23307
872.267	23398
872.397	23265
872.526	23181
872.656	23242
872.785	23189
872.915	23421
873.044	23364
873.173	23398
873.303	23551
873.432	23493
873.561	23528
873.69	23360
873.819	23334
873.948	23406
874.077	23471
874.206	23436
874.335	23330
874.464	23562
874.593	23638
874.722	23512
874.851	23684
874.979	23615
875.108	23600
875.237	23524
875.365	23547
875.494	23551
875.623	23665
875.751	23573
875.88	23710
876.008	23752
876.136	23745
876.265	24018
876.393	24098
876.521	24030
876.65	24110
876.778	23973
876.906	23908
877.034	23939
877.162	24022
877.29	23874
877.418	23859
877.546	23855
877.674	23920
877.802	23866
877.93	23901
878.058	23897
878.185	23824
878.313	23843
878.441	23908
878.568	23855
878.696	23828
878.824	23878
878.951	24015
879.079	24121
879.206	24136
879.333	24007
879.461	23992
879.588	24087
879.715	24144
879.842	24243
879.97	23999
880.097	23771
880.224	23699
880.351	23710
880.478	23817
880.605	23630
880.732	23737
880.859	23958
880.986	23745
881.112	23847
881.239	23611
881.366	23391
881.493	23436
881.619	23410
881.746	23337
881.872	23353
881.999	23265
882.125	23345
882.252	23429
882.378	23200
882.505	23372
882.631	23105
882.757	23003
882.883	23094
883.01	22957
883.136	22953
883.262	22881
883.388	22805
883.514	23010
883.64	23022
883.766	22942
883.892	22740
884.018	22778
884.143	22801
884.269	22927
884.395	22771
884.52	22626
884.646	22687
884.772	22637
884.897	22615
885.023	22603
885.148	22603
885.274	22812
885.399	22683
885.524	22550
885.65	22637
885.775	22611
885.9	22542
886.025	22679
886.15	22618
886.275	22577
886.4	22481
886.525	22645
886.65	22516
886.775	22500
886.9	22736
887.025	22744
887.149	22573
887.274	22329
887.399	22322
887.523	22421
887.648	22333
887.773	22226
887.897	22394
888.021	22360
888.146	22143
888.27	22546
888.395	22462
888.519	22322
888.643	22443
888.767	22489
888.891	22268
889.015	22044
889.139	22188
889.263	22196
889.387	22188
889.511	22337
889.635	22249
889.759	22059
889.883	22082
890.006	22181
890.13	22185
890.254	22017
890.377	21930
890.501	21895
890.624	21895
890.748	22013
890.871	21705
890.995	21648
891.118	21549
891.241	21675
891.364	21686
891.488	21774
891.611	21667
891.734	21625
891.857	21766
891.98	21663
892.103	21778
892.226	21648
892.349	21671
892.471	21416
892.594	21603
892.717	21679
892.839	21583
892.962	21583
893.085	21614
893.207	21481
893.33	21568
893.452	21393
893.575	21580
893.697	21530
893.819	21622
893.941	21751
894.064	21564
894.186	21492
894.308	21526
894.43	21656
894.552	21732
894.674	21587
894.796	21454
894.918	21485
895.04	21492
895.161	21652
895.283	21629
895.405	21405
895.526	21610
895.648	21393
895.769	21618
895.891	21583
896.012	21561
896.134	21583
896.255	21507
896.376	21526
896.498	21500
896.619	21526
896.74	21477
896.861	21576
896.982	21793
897.103	21884
897.224	21762
897.345	21660
897.466	21679
897.587	21705
897.708	21751
897.828	21766
897.949	21660
898.07	21637
898.19	21675
898.311	21812
898.431	21633
898.552	21762
898.672	21816
898.792	21736
898.913	21614
899.033	21633
899.153	21534
899.273	21416
899.393	21397
899.513	21500
899.633	21454
899.753	21435
899.873	21511
899.993	21507
900.113	21435
900.232	21481
900.352	21351
900.472	21184
900.591	21127
900.711	21199
900.83	21108
900.95	21211
901.069	21195
901.189	21077
901.308	20796
901.427	20705
901.546	20777
901.665	20796
901.784	20785
901.904	20609
902.023	20640
902.141	20396
902.26	20278
902.379	20298
902.498	20290
902.617	20180
902.735	20183
902.854	20309
902.973	20221
903.091	20027
903.21	19986
903.328	19951
903.446	19913
903.565	19818
903.683	19685
903.801	19658
903.919	19609
904.038	19605
904.156	19510
904.274	19696
904.392	19487
904.51	19514
904.627	19453
904.745	19426
904.863	19590
904.981	19270
905.098	19110
905.216	19072
905.334	19183
905.451	19168
905.569	19084
905.686	19171
905.803	19076
905.921	18798
906.038	18970
906.155	18905
906.272	18817
906.389	18806
906.506	18703
906.623	18684
906.74	18631
906.857	18574
906.974	18589
907.091	18749
907.208	18757
907.324	18620
907.441	18582
907.557	18407
907.674	18452
907.79	18273
907.907	18372
908.023	18380
908.139	18380
908.256	18296
908.372	18209
908.488	18174
908.604	18129
908.72	18049
908.836	18087
908.952	17942
909.068	18064
909.184	18095
909.3	18022
909.415	18003
909.531	18026
909.647	17687
909.762	17745
909.878	17676
909.993	17855
910.108	17832
910.224	17661
910.339	17642
910.454	17642
910.57	17611
910.685	17509
910.8	17760
910.915	17745
911.03	17490
911.145	17379
911.259	17311
911.374	17292
911.489	17265
911.604	17197
911.718	17128
911.833	17113
911.947	17045
912.062	16892
912.176	17018
912.291	17056
912.405	17094
912.519	17246
912.633	17250
912.748	17109
912.862	17033
912.976	16862
913.09	16763
913.204	16850
913.318	16812
913.431	17006
913.545	16919
913.659	16949
913.772	16847
913.886	16656
914	16569
914.113	16721
914.226	16771
914.34	16729
914.453	16615
914.566	16618
914.68	16519
914.793	16428
914.906	16242
915.019	16219
915.132	16265
915.245	16280
915.358	16268
915.47	16230
915.583	16280
915.696	16257
915.809	16276
915.921	16322
916.034	16181
916.146	16086
916.259	16086
916.371	16101
916.483	16135
916.595	16040
916.708	16017
916.82	16109
916.932	15975
917.044	15937
917.156	15983
917.268	15759
917.38	15831
917.491	15797
917.603	15804
917.715	15888
917.826	16017
917.938	15827
918.049	15759
918.161	15797
918.272	16002
918.384	15819
918.495	15762
918.606	15595
918.717	15469
918.828	15534
918.939	15595
919.05	15526
919.161	15526
919.272	15275
919.383	15462
919.494	15500
919.604	15701
919.715	15515
919.826	15481
919.936	15458
920.047	15542
920.157	15473
920.267	15663
920.378	15561
920.488	15492
920.598	15686
920.708	15854
920.818	15614
920.928	15648
921.038	15766
921.148	15705
921.258	15534
921.368	15348
921.477	15245
921.587	15214
921.697	15062
921.806	15241
921.916	15062
922.025	14918
922.134	14857
922.244	14838
922.353	14891
922.462	14796
922.571	14598
922.68	14632
922.789	14522
922.898	14530
923.007	14434
923.116	14541
923.224	14446
923.333	14385
923.442	14385
923.55	14320
923.659	14309
923.767	14377
923.876	14313
923.984	14290
924.092	14092
924.201	14233
924.309	14252
924.417	14237
924.525	14161
924.633	14206
924.741	14963
924.849	13837
924.956	14035
925.064	13932
925.172	13860
925.279	13753
925.387	13883
925.494	13890
925.602	13894
925.709	13928
925.816	13761
925.924	13780
926.031	13864
926.138	13750
926.245	13826
926.352	13662
926.459	13814
926.566	13818
926.673	13795
926.779	13590
926.886	13590
926.993	13468
927.099	13392
927.206	13350
927.312	13270
927.419	13339
927.525	13392
927.631	13369
927.737	13320
927.843	13232
927.95	13084
928.056	13160
928.162	13225
928.267	13263
928.373	13883
928.479	13225
928.585	13034
928.69	13099
928.796	13110
928.901	13004
929.007	12871
929.112	13053
929.218	12970
929.323	12916
929.428	12909
929.533	13027
929.638	12901
929.743	12825
929.848	12825
929.953	12726
930.058	12726
930.163	12555
930.267	12566
930.372	12734
930.477	12525
930.581	12760
930.685	12585
930.79	12448
930.894	12506
930.998	12471
931.103	12578
931.207	12171
931.311	12057
931.415	11992
931.519	11824
931.623	11813
