Data from test_V78500241_3521.txt Node
Date: Fri Mar 25 16:06:11 CST 2022
User: usil
Spectrometer: V785-0024
Trigger mode: 0
Integration Time (sec): 4.000000E-1
Scans to average: 1
Nonlinearity correction enabled: false
Boxcar width: 0
Storing dark spectrum: false
XAxis mode: Wavelengths
Number of Pixels in Spectrum: 1024
>>>>>Begin Spectral Data<<<<<
801.071	28911
801.214	28755
801.356	28580
801.499	28516
801.641	28474
801.783	28455
801.926	28287
802.068	28440
802.211	28424
802.353	28363
802.496	28295
802.638	28097
802.78	28185
802.923	28067
803.065	28059
803.208	27968
803.35	28143
803.492	28249
803.635	28329
803.777	28169
803.919	28371
804.061	28733
804.204	28379
804.346	28329
804.488	28295
804.63	28440
804.773	28382
804.915	28303
805.057	28554
805.199	28417
805.341	28417
805.483	28542
805.626	28569
805.768	28489
805.91	28668
806.052	28710
806.194	28580
806.336	28668
806.478	28478
806.62	28565
806.762	28630
806.904	28934
807.046	29113
807.188	28919
807.33	28980
807.472	28980
807.614	29014
807.756	28995
807.898	28858
808.04	28866
808.182	28854
808.324	28854
808.465	28896
808.607	29166
808.749	29185
808.891	29265
809.033	29337
809.174	29372
809.316	29227
809.458	29235
809.6	29067
809.741	29387
809.883	29406
810.025	29581
810.166	29425
810.308	29585
810.45	29516
810.591	29463
810.733	29334
810.875	29387
811.016	29303
811.158	29128
811.299	29543
811.441	29585
811.582	29497
811.724	29231
811.865	29216
812.007	29223
812.148	29345
812.29	29353
812.431	29463
812.573	29623
812.714	29642
812.855	29855
812.997	29935
813.138	30026
813.279	29931
813.421	29828
813.562	29783
813.703	29608
813.845	29478
813.986	29174
814.127	29052
814.268	29124
814.41	29029
814.551	28984
814.692	29170
814.833	29090
814.974	29071
815.115	29064
815.256	28904
815.397	28915
815.539	28866
815.68	28778
815.821	28790
815.962	28858
816.103	28968
816.244	28694
816.385	28504
816.526	28588
816.666	28207
816.807	28177
816.948	28386
817.089	28485
817.23	28379
817.371	28192
817.512	28246
817.653	28291
817.793	28291
817.934	28325
818.075	28386
818.216	28333
818.356	28352
818.497	28280
818.638	28120
818.778	28109
818.919	28063
819.06	28200
819.2	28181
819.341	28356
819.481	28322
819.622	28440
819.762	28755
819.903	28493
820.043	28557
820.184	28459
820.324	28580
820.465	28242
820.605	28462
820.746	28459
820.886	28424
821.026	28386
821.167	28394
821.307	28485
821.447	28478
821.588	28284
821.728	28211
821.868	27930
822.008	28002
822.149	27804
822.289	27728
822.429	27545
822.569	27431
822.709	27469
822.849	27222
822.99	27370
823.13	27313
823.27	27420
823.41	27100
823.55	27085
823.69	27218
823.83	26986
823.97	27081
824.11	26940
824.25	27119
824.389	26883
824.529	27116
824.669	26906
824.809	27131
824.949	26994
825.089	27055
825.228	26967
825.368	26853
825.508	26819
825.648	26838
825.787	26929
825.927	26899
826.067	26883
826.206	26842
826.346	26906
826.485	26971
826.625	26937
826.765	26952
826.904	26963
827.044	26583
827.183	26674
827.323	26461
827.462	26712
827.601	26674
827.741	26587
827.88	26625
828.02	26377
828.159	26549
828.298	26488
828.437	26625
828.577	26533
828.716	26670
828.855	26488
828.994	26294
829.134	26389
829.273	26358
829.412	26320
829.551	26298
829.69	26214
829.829	26256
829.968	26415
830.107	26263
830.246	26347
830.385	26221
830.524	26107
830.663	26035
830.802	25909
830.941	25856
831.08	25738
831.219	25955
831.357	25944
831.496	26035
831.635	25894
831.774	25814
831.913	25674
832.051	25753
832.19	25567
832.329	25666
832.467	25613
832.606	25537
832.744	25327
832.883	25597
833.022	25499
833.16	25502
833.299	25605
833.437	25552
833.576	25575
833.714	25609
833.852	25613
833.991	25487
834.129	25761
834.267	25635
834.406	25620
834.544	25689
834.682	25609
834.821	25502
834.959	25738
835.097	25582
835.235	25495
835.373	25594
835.511	25514
835.65	25419
835.788	25472
835.926	25388
836.064	25255
836.202	25350
836.34	25354
836.478	25499
836.615	25445
836.753	25479
836.891	25499
837.029	25327
837.167	25316
837.305	25411
837.443	25107
837.58	25266
837.718	25240
837.856	25289
837.993	25251
838.131	25133
838.269	24909
838.406	25103
838.544	24977
838.681	24772
838.819	24859
838.956	24745
839.094	24833
839.231	24749
839.369	24951
839.506	25084
839.643	24992
839.781	24776
839.918	24547
840.055	24673
840.193	24726
840.33	24646
840.467	24677
840.604	24681
840.742	24947
840.879	24460
841.016	24498
841.153	24403
841.29	24589
841.427	24589
841.564	24639
841.701	24452
841.838	24585
841.975	24479
842.112	24505
842.249	24300
842.385	24311
842.522	24540
842.659	24464
842.796	24327
842.933	24296
843.069	24334
843.206	24315
843.343	24479
843.479	24353
843.616	24441
843.752	24117
843.889	24140
844.025	24205
844.162	24273
844.298	24167
844.435	24213
844.571	23999
844.708	24209
844.844	24258
844.98	24213
845.117	24117
845.253	24045
845.389	24053
845.525	23916
845.661	23977
845.798	23874
845.934	23912
846.07	23942
846.206	23821
846.342	23969
846.478	23920
846.614	23646
846.75	23615
846.886	23623
847.022	23741
847.158	23676
847.294	23657
847.429	23699
847.565	23619
847.701	23901
847.837	23376
847.972	23296
848.108	23349
848.244	23406
848.379	23128
848.515	23102
848.65	23170
848.786	23216
848.921	23113
849.057	23208
849.192	23326
849.328	23181
849.463	23242
849.598	23197
849.734	23159
849.869	23128
850.004	22923
850.14	23018
850.275	22961
850.41	22740
850.545	22991
850.68	22805
850.815	22915
850.95	22850
851.085	23010
851.22	23037
851.355	22957
851.49	22942
851.625	23022
851.76	22980
851.895	22854
852.03	22904
852.165	22934
852.299	23090
852.434	22919
852.569	22995
852.703	22972
852.838	22999
852.973	23098
853.107	23041
853.242	22850
853.376	22767
853.511	22557
853.645	22691
853.78	22923
853.914	22755
854.048	22824
854.183	22831
854.317	22866
854.451	22987
854.585	22892
854.72	22786
854.854	22915
854.988	22656
855.122	22866
855.256	22599
855.39	22820
855.524	22774
855.658	22919
855.792	22683
855.926	22736
856.06	22733
856.194	22900
856.327	22839
856.461	22748
856.595	22713
856.729	22763
856.862	22911
856.996	22843
857.13	22892
857.263	22793
857.397	22831
857.53	22828
857.664	22835
857.797	22774
857.931	22881
858.064	22790
858.197	22759
858.331	22801
858.464	22634
858.597	22713
858.731	22755
858.864	22725
858.997	22588
859.13	22862
859.263	22759
859.396	22873
859.529	22634
859.662	22706
859.795	22786
859.928	22725
860.061	22976
860.194	23052
860.327	22835
860.46	22748
860.592	22949
860.725	22930
860.858	22793
860.99	22725
861.123	22668
861.256	22759
861.388	22828
861.521	23433
861.653	22656
861.786	22557
861.918	22592
862.05	22801
862.183	22637
862.315	22694
862.447	22740
862.58	22694
862.712	22542
862.844	22325
862.976	22637
863.108	22599
863.24	22839
863.372	22462
863.504	22565
863.636	22565
863.768	22577
863.9	22455
864.032	22417
864.164	22390
864.296	22428
864.428	22497
864.559	22523
864.691	22485
864.823	22413
864.954	22367
865.086	22440
865.217	22348
865.349	22371
865.48	22356
865.612	22493
865.743	22478
865.875	22386
866.006	22223
866.137	22402
866.269	22405
866.4	22284
866.531	22261
866.662	22299
866.793	22185
866.924	22219
867.055	22299
867.186	22261
867.317	22299
867.448	22211
867.579	22287
867.71	22314
867.841	22204
867.972	22333
868.103	22196
868.233	22291
868.364	22272
868.495	22310
868.625	22417
868.756	22664
868.886	22478
869.017	22440
869.147	22668
869.278	22660
869.408	22478
869.539	22500
869.669	22611
869.799	22573
869.929	22752
870.06	22607
870.19	22782
870.32	22862
870.45	22904
870.58	22850
870.71	22938
870.84	23056
870.97	22824
871.1	23014
871.23	23048
871.36	23094
871.489	22911
871.619	23086
871.749	23044
871.879	23124
872.008	23159
872.138	23155
872.267	23117
872.397	23067
872.526	22812
872.656	22927
872.785	22968
872.915	23242
873.044	23235
873.173	23098
873.303	23311
873.432	23105
873.561	23185
873.69	23117
873.819	23094
873.948	23303
874.077	23246
874.206	23052
874.335	23151
874.464	23242
874.593	23318
874.722	23227
874.851	23402
874.979	23296
875.108	23406
875.237	23368
875.365	23269
875.494	23410
875.623	23524
875.751	23258
875.88	23414
876.008	23474
876.136	23543
876.265	23794
876.393	23805
876.521	23783
876.65	23786
876.778	23687
876.906	23577
877.034	23634
877.162	23661
877.29	23653
877.418	23809
877.546	23756
877.674	23680
877.802	23703
877.93	23611
878.058	23707
878.185	23486
878.313	23676
878.441	23668
878.568	23501
878.696	23543
878.824	23630
878.951	23767
879.079	23920
879.206	23916
879.333	23916
879.461	23566
879.588	23809
879.715	23908
879.842	23923
879.97	23832
880.097	23615
880.224	23497
880.351	23570
880.478	23516
880.605	23471
880.732	23512
880.859	23707
880.986	23444
881.112	23505
881.239	23372
881.366	23220
881.493	23124
881.619	23029
881.746	23075
881.872	23071
881.999	23006
882.125	23003
882.252	23121
882.378	23067
882.505	23071
882.631	22889
882.757	22698
882.883	22763
883.01	22687
883.136	22649
883.262	22596
883.388	22577
883.514	22767
883.64	22778
883.766	22668
883.892	22485
884.018	22432
884.143	22668
884.269	22790
884.395	22531
884.52	22363
884.646	22394
884.772	22219
884.897	22386
885.023	22462
885.148	22398
885.274	22440
885.399	22367
885.524	22398
885.65	22348
885.775	22333
885.9	22310
886.025	22466
886.15	22402
886.275	22447
886.4	22181
886.525	22249
886.65	22356
886.775	22276
886.9	22352
887.025	22519
887.149	22367
887.274	22234
887.399	22246
887.523	22112
887.648	21899
887.773	21907
887.897	22158
888.021	22147
888.146	22101
888.27	22177
888.395	22272
888.519	22177
888.643	22082
888.767	22177
888.891	22048
889.015	21987
889.139	21987
889.263	21911
889.387	22143
889.511	22078
889.635	22055
889.759	22067
889.883	21968
890.006	21816
890.13	21991
890.254	21751
890.377	21781
890.501	21633
890.624	21564
890.748	21717
890.871	21553
890.995	21447
891.118	21367
891.241	21359
891.364	21450
891.488	21519
891.611	21500
891.734	21393
891.857	21473
891.98	21378
892.103	21401
892.226	21363
892.349	21500
892.471	21306
892.594	21450
892.717	21412
892.839	21233
892.962	21302
893.085	21435
893.207	21332
893.33	21146
893.452	21359
893.575	21496
893.697	21340
893.819	21370
893.941	21504
894.064	21542
894.186	21317
894.308	21237
894.43	21416
894.552	21443
894.674	21572
894.796	21173
894.918	21230
895.04	21245
895.161	21488
895.283	21359
895.405	21294
895.526	21454
895.648	21340
895.769	21397
895.891	21485
896.012	21443
896.134	21412
896.255	21325
896.376	21203
896.498	21291
896.619	21401
896.74	21256
896.861	21275
896.982	21614
897.103	21785
897.224	21477
897.345	21477
897.466	21439
897.587	21466
897.708	21564
897.828	21633
897.949	21443
898.07	21367
898.19	21473
898.311	21450
898.431	21405
898.552	21561
898.672	21458
898.792	21625
898.913	21507
899.033	21424
899.153	21268
899.273	21131
899.393	21165
899.513	21252
899.633	21268
899.753	21199
899.873	21127
899.993	21310
900.113	21096
900.232	21173
900.352	21058
900.472	21074
900.591	20960
900.711	21077
900.83	20982
900.95	21104
901.069	20975
901.189	20982
901.308	20724
901.427	20663
901.546	20579
901.665	20564
901.784	20606
901.904	20385
902.023	20415
902.141	20180
902.26	20069
902.379	20153
902.498	20027
902.617	19993
902.735	20016
902.854	20054
902.973	19917
903.091	19708
903.21	19753
903.328	19750
903.446	19567
903.565	19548
903.683	19559
903.801	19358
903.919	19476
904.038	19430
904.156	19259
904.274	19320
904.392	19236
904.51	19221
904.627	19244
904.745	19266
904.863	19282
904.981	19122
905.098	18981
905.216	18996
905.334	19000
905.451	18875
905.569	18886
905.686	18863
905.803	18943
905.921	18726
906.038	18779
906.155	18810
906.272	18620
906.389	18642
906.506	18456
906.623	18521
906.74	18407
906.857	18296
906.974	18277
907.091	18323
907.208	18555
907.324	18414
907.441	18384
907.557	18076
907.674	18182
907.79	18125
907.907	18152
908.023	18178
908.139	18102
908.256	18114
908.372	18034
908.488	18072
908.604	17931
908.72	17855
908.836	17859
908.952	17893
909.068	17954
909.184	17942
909.3	17961
909.415	17866
909.531	17821
909.647	17592
909.762	17592
909.878	17535
909.993	17600
910.108	17554
910.224	17383
910.339	17490
910.454	17376
910.57	17303
910.685	17345
910.8	17570
910.915	17493
911.03	17318
911.145	17170
911.259	17124
911.374	17143
911.489	17136
911.604	17029
911.718	16904
911.833	16896
911.947	16679
912.062	16744
912.176	16896
912.291	16862
912.405	16889
912.519	17170
912.633	17060
912.748	16904
912.862	16892
912.976	16755
913.09	16535
913.204	16645
913.318	16786
913.431	16721
913.545	16660
913.659	16752
913.772	16630
913.886	16432
914	16443
914.113	16565
914.226	16660
914.34	16527
914.453	16417
914.566	16421
914.68	16344
914.793	16242
914.906	16063
915.019	16063
915.132	16006
915.245	16090
915.358	16074
915.47	16097
915.583	16017
915.696	16090
915.809	16105
915.921	16177
916.034	15983
916.146	15911
916.259	15857
916.371	16032
916.483	15975
916.595	15960
916.708	15827
916.82	15762
916.932	15934
917.044	15861
917.156	15846
917.268	15705
917.38	15720
917.491	15663
917.603	15610
917.715	15641
917.826	15823
917.938	15690
918.049	15526
918.161	15625
918.272	15728
918.384	15705
918.495	15564
918.606	15526
918.717	15420
918.828	15332
918.939	15462
919.05	15420
919.161	15367
919.272	15230
919.383	15317
919.494	15447
919.604	15614
919.715	15359
919.826	15272
919.936	15454
920.047	15447
920.157	15401
920.267	15584
920.378	15325
920.488	15374
920.598	15625
920.708	15637
920.818	15439
920.928	15557
921.038	15667
921.148	15564
921.258	15363
921.368	15192
921.477	15058
921.587	15127
921.697	14994
921.806	15154
921.916	14979
922.025	14804
922.134	14754
922.244	14800
922.353	14773
922.462	14606
922.571	14484
922.68	14545
922.789	14495
922.898	14438
923.007	14313
923.116	14370
923.224	14370
923.333	14320
923.442	14218
923.55	14252
923.659	14240
923.767	14271
923.876	14206
923.984	14153
924.092	14062
924.201	14138
924.309	14119
924.417	14069
924.525	13959
924.633	14065
924.741	14982
924.849	13871
924.956	14001
925.064	13875
925.172	13788
925.279	13791
925.387	13734
925.494	13803
925.602	13944
925.709	13811
925.816	13548
925.924	13681
926.031	13715
926.138	13689
926.245	13586
926.352	13525
926.459	13693
926.566	13746
926.673	13620
926.779	13556
926.886	13476
926.993	13312
927.099	13293
927.206	13285
927.312	13255
927.419	13270
927.525	13301
927.631	13339
927.737	13160
927.843	13000
927.95	12993
928.056	13175
928.162	13080
928.267	13183
928.373	13662
928.479	13141
928.585	12989
928.69	13122
928.796	13088
928.901	12962
929.007	12829
929.112	12863
929.218	12935
929.323	12783
929.428	12798
929.533	12913
929.638	12787
929.743	12692
929.848	12886
929.953	12688
930.058	12601
930.163	12490
930.267	12437
930.372	12563
930.477	12426
930.581	12627
930.685	12532
930.79	12308
930.894	12471
930.998	12365
931.103	12528
931.207	12049
931.311	12049
931.415	11935
931.519	11672
931.623	11745
