Data from test_V78500241_1963.txt Node
Date: Fri Mar 25 15:55:23 CST 2022
User: usil
Spectrometer: V785-0024
Trigger mode: 0
Integration Time (sec): 4.000000E-1
Scans to average: 1
Nonlinearity correction enabled: false
Boxcar width: 0
Storing dark spectrum: false
XAxis mode: Wavelengths
Number of Pixels in Spectrum: 1024
>>>>>Begin Spectral Data<<<<<
801.071	28812
801.214	28618
801.356	28333
801.499	28440
801.641	28238
801.783	28249
801.926	28409
802.068	28223
802.211	28386
802.353	28162
802.496	28032
802.638	27873
802.78	27873
802.923	27880
803.065	27812
803.208	27857
803.35	27911
803.492	27975
803.635	28124
803.777	28135
803.919	28246
804.061	28379
804.204	28234
804.346	28112
804.488	28162
804.63	28226
804.773	28238
804.915	28303
805.057	28341
805.199	28219
805.341	28226
805.483	28272
805.626	28314
805.768	28150
805.91	28421
806.052	28424
806.194	28287
806.336	28493
806.478	28363
806.62	28367
806.762	28478
806.904	28580
807.046	28866
807.188	28904
807.33	28786
807.472	28957
807.614	28733
807.756	28854
807.898	28679
808.04	28611
808.182	28573
808.324	28630
808.465	28725
808.607	28850
808.749	28968
808.891	29102
809.033	29162
809.174	29029
809.316	29029
809.458	29109
809.6	28984
809.741	29086
809.883	29318
810.025	29330
810.166	29322
810.308	29261
810.45	29258
810.591	29193
810.733	29166
810.875	28968
811.016	28888
811.158	28980
811.299	29121
811.441	29102
811.582	29258
811.724	29128
811.865	28896
812.007	28961
812.148	28892
812.29	28991
812.431	29204
812.573	29330
812.714	29558
812.855	29421
812.997	29733
813.138	29870
813.279	29779
813.421	29531
813.562	29611
813.703	29490
813.845	29375
813.986	28831
814.127	28881
814.268	28828
814.41	28831
814.551	28592
814.692	28820
814.833	28740
814.974	28748
815.115	28820
815.256	28607
815.397	28474
815.539	28641
815.68	28443
815.821	28474
815.962	28603
816.103	28459
816.244	28394
816.385	28421
816.526	28432
816.666	28188
816.807	27979
816.948	28154
817.089	28185
817.23	28044
817.371	27972
817.512	28112
817.653	28021
817.793	27926
817.934	28013
818.075	28074
818.216	27983
818.356	27964
818.497	28036
818.638	27911
818.778	27854
818.919	27789
819.06	27762
819.2	27964
819.341	28173
819.481	28074
819.622	28116
819.762	28325
819.903	28375
820.043	28173
820.184	28116
820.324	28246
820.465	28207
820.605	28158
820.746	28143
820.886	27991
821.026	28105
821.167	28124
821.307	28253
821.447	28116
821.588	27937
821.728	27926
821.868	27739
822.008	27504
822.149	27447
822.289	27538
822.429	27142
822.569	27188
822.709	27226
822.849	27138
822.99	26979
823.13	27104
823.27	27009
823.41	26845
823.55	26697
823.69	26785
823.83	26937
823.97	26781
824.11	26743
824.25	26590
824.389	26484
824.529	26686
824.669	26720
824.809	26773
824.949	26727
825.089	26807
825.228	26697
825.368	26514
825.508	26541
825.648	26564
825.787	26693
825.927	26545
826.067	26526
826.206	26568
826.346	26667
826.485	26667
826.625	26625
826.765	26697
826.904	26583
827.044	26336
827.183	26324
827.323	26290
827.462	26381
827.601	26358
827.741	26225
827.88	26393
828.02	26096
828.159	26259
828.298	26404
828.437	26358
828.577	26271
828.716	26423
828.855	26233
828.994	26050
829.134	25906
829.273	26100
829.412	26024
829.551	25902
829.69	26031
829.829	25947
829.968	26043
830.107	26111
830.246	26027
830.385	26008
830.524	25799
830.663	25632
830.802	25738
830.941	25594
831.08	25445
831.219	25578
831.357	25715
831.496	25734
831.635	25635
831.774	25556
831.913	25411
832.051	25430
832.19	25449
832.329	25468
832.467	25426
832.606	25187
832.744	25327
832.883	25206
833.022	25236
833.16	25320
833.299	25320
833.437	25251
833.576	25422
833.714	25426
833.852	25301
833.991	25377
834.129	25422
834.267	25460
834.406	25472
834.544	25274
834.682	25350
834.821	25316
834.959	25441
835.097	25301
835.235	25278
835.373	25316
835.511	25335
835.65	25206
835.788	25198
835.926	25042
836.064	25019
836.202	25088
836.34	25133
836.478	25247
836.615	25213
836.753	25141
836.891	25198
837.029	25099
837.167	25107
837.305	24985
837.443	25012
837.58	24958
837.718	25187
837.856	24951
837.993	24783
838.131	25057
838.269	24848
838.406	24821
838.544	24738
838.681	24616
838.819	24563
838.956	24483
839.094	24563
839.231	24429
839.369	24604
839.506	24863
839.643	24696
839.781	24441
839.918	24247
840.055	24486
840.193	24395
840.33	24475
840.467	24251
840.604	24376
840.742	24597
840.879	24182
841.016	24121
841.153	24239
841.29	24292
841.427	24308
841.564	24327
841.701	24452
841.838	24254
841.975	24323
842.112	24159
842.249	24136
842.385	24121
842.522	24232
842.659	24140
842.796	24102
842.933	24076
843.069	24148
843.206	23992
843.343	24064
843.479	23988
843.616	24068
843.752	23961
843.889	23813
844.025	24060
844.162	23760
844.298	23931
844.435	23672
844.571	23805
844.708	23992
844.844	24003
844.98	23996
845.117	24015
845.253	23767
845.389	23649
845.525	23824
845.661	23737
845.798	23509
845.934	23684
846.07	23573
846.206	23741
846.342	23718
846.478	23535
846.614	23421
846.75	23292
846.886	23284
847.022	23261
847.158	23356
847.294	23326
847.429	23467
847.565	23280
847.701	23467
847.837	23025
847.972	22972
848.108	23220
848.244	23044
848.379	22957
848.515	22687
848.65	22767
848.786	22885
848.921	22957
849.057	22972
849.192	22995
849.328	22938
849.463	22881
849.598	22942
849.734	22831
849.869	22809
850.004	22694
850.14	22759
850.275	22615
850.41	22603
850.545	22607
850.68	22527
850.815	22733
850.95	22702
851.085	22923
851.22	22793
851.355	22713
851.49	22637
851.625	22641
851.76	22565
851.895	22462
852.03	22618
852.165	22535
852.299	22698
852.434	22755
852.569	22561
852.703	22538
852.838	22736
852.973	22854
853.107	22717
853.242	22778
853.376	22565
853.511	22447
853.645	22459
853.78	22634
853.914	22599
854.048	22607
854.183	22398
854.317	22618
854.451	22542
854.585	22356
854.72	22519
854.854	22653
854.988	22550
855.122	22531
855.256	22329
855.39	22493
855.524	22447
855.658	22485
855.792	22489
855.926	22599
856.06	22527
856.194	22474
856.327	22440
856.461	22428
856.595	22481
856.729	22493
856.862	22618
856.996	22489
857.13	22535
857.263	22470
857.397	22603
857.53	22447
857.664	22561
857.797	22478
857.931	22660
858.064	22672
858.197	22538
858.331	22470
858.464	22432
858.597	22447
858.731	22436
858.864	22352
858.997	22535
859.13	22474
859.263	22538
859.396	22565
859.529	22459
859.662	22398
859.795	22360
859.928	22481
860.061	22672
860.194	22592
860.327	22531
860.46	22580
860.592	22683
860.725	22675
860.858	22542
860.99	22455
861.123	22265
861.256	22382
861.388	22519
861.521	23299
861.653	22390
861.786	22253
861.918	22287
862.05	22466
862.183	22409
862.315	22421
862.447	22470
862.58	22565
862.712	22234
862.844	22105
862.976	22276
863.108	22287
863.24	22752
863.372	22013
863.504	22169
863.636	22207
863.768	22310
863.9	22101
864.032	22082
864.164	22029
864.296	22272
864.428	22386
864.559	22242
864.691	22246
864.823	22223
864.954	22188
865.086	22116
865.217	22158
865.349	21956
865.48	22013
865.612	22025
865.743	22090
865.875	22120
866.006	21964
866.137	22044
866.269	22006
866.4	22040
866.531	22032
866.662	21903
866.793	21918
866.924	21994
867.055	22074
867.186	21930
867.317	21983
867.448	21892
867.579	21918
867.71	21789
867.841	21838
867.972	21956
868.103	21991
868.233	21956
868.364	21857
868.495	22090
868.625	22268
868.756	22325
868.886	22268
869.017	22261
869.147	22386
869.278	22291
869.408	22268
869.539	22169
869.669	22295
869.799	22284
869.929	22356
870.06	22318
870.19	22584
870.32	22512
870.45	22592
870.58	22615
870.71	22824
870.84	22740
870.97	22580
871.1	22668
871.23	22793
871.36	22927
871.489	22816
871.619	22812
871.749	22740
871.879	22877
872.008	22957
872.138	22892
872.267	23018
872.397	22637
872.526	22660
872.656	22702
872.785	22622
872.915	22885
873.044	22881
873.173	22862
873.303	22915
873.432	22881
873.561	22915
873.69	22831
873.819	22881
873.948	22858
874.077	22828
874.206	22675
874.335	22733
874.464	22866
874.593	23132
874.722	23003
874.851	23155
874.979	23056
875.108	23200
875.237	22976
875.365	23029
875.494	22946
875.623	23181
875.751	22927
875.88	23079
876.008	23159
876.136	23223
876.265	23573
876.393	23551
876.521	23391
876.65	23501
876.778	23372
876.906	23318
877.034	23288
877.162	23395
877.29	23379
877.418	23383
877.546	23486
877.674	23425
877.802	23455
877.93	23307
878.058	23353
878.185	23239
878.313	23391
878.441	23455
878.568	23193
878.696	23311
878.824	23349
878.951	23482
879.079	23562
879.206	23832
879.333	23619
879.461	23539
879.588	23509
879.715	23558
879.842	23707
879.97	23444
880.097	23166
880.224	23231
880.351	23231
880.478	23162
880.605	23064
880.732	23159
880.859	23444
880.986	23273
881.112	23216
881.239	23132
881.366	22900
881.493	22805
881.619	22713
881.746	22847
881.872	22885
881.999	22755
882.125	22793
882.252	22763
882.378	22687
882.505	22938
882.631	22611
882.757	22428
882.883	22542
883.01	22584
883.136	22322
883.262	22341
883.388	22318
883.514	22451
883.64	22535
883.766	22230
883.892	22200
884.018	22196
884.143	22405
884.269	22519
884.395	22067
884.52	22093
884.646	22139
884.772	22101
884.897	21949
885.023	22074
885.148	22074
885.274	22177
885.399	22200
885.524	22105
885.65	22086
885.775	22097
885.9	22093
886.025	22204
886.15	22200
886.275	22006
886.4	21934
886.525	22048
886.65	22070
886.775	22055
886.9	22249
887.025	22223
887.149	22044
887.274	21926
887.399	21915
887.523	21778
887.648	21816
887.773	21694
887.897	21876
888.021	21907
888.146	21774
888.27	21857
888.395	22002
888.519	21705
888.643	21819
888.767	21846
888.891	21766
889.015	21568
889.139	21629
889.263	21690
889.387	21652
889.511	21732
889.635	21751
889.759	21591
889.883	21542
890.006	21641
890.13	21724
890.254	21523
890.377	21473
890.501	21462
890.624	21218
890.748	21397
890.871	21256
890.995	21226
891.118	21074
891.241	21192
891.364	21275
891.488	21351
891.611	21108
891.734	21138
891.857	21241
891.98	21211
892.103	21116
892.226	21169
892.349	21093
892.471	21009
892.594	21096
892.717	21108
892.839	20994
892.962	20998
893.085	21089
893.207	21032
893.33	20887
893.452	21116
893.575	21009
893.697	21146
893.819	21211
893.941	21237
894.064	21135
894.186	21005
894.308	20975
894.43	21135
894.552	21142
894.674	21074
894.796	20994
894.918	21047
895.04	21028
895.161	21104
895.283	21024
895.405	20967
895.526	21001
895.648	21093
895.769	21100
895.891	21085
896.012	21131
896.134	21081
896.255	21058
896.376	20967
896.498	21043
896.619	21005
896.74	21062
896.861	21112
896.982	21386
897.103	21553
897.224	21302
897.345	21218
897.466	21058
897.587	21306
897.708	21340
897.828	21245
897.949	21089
898.07	21116
898.19	21138
898.311	21447
898.431	21142
898.552	21260
898.672	21412
898.792	21245
898.913	21264
899.033	21123
899.153	21017
899.273	20918
899.393	21005
899.513	20960
899.633	20956
899.753	21043
899.873	20834
899.993	20895
900.113	20899
900.232	20895
900.352	20937
900.472	20682
900.591	20712
900.711	20807
900.83	20708
900.95	20750
901.069	20762
901.189	20625
901.308	20415
901.427	20347
901.546	20355
901.665	20320
901.784	20324
901.904	20176
902.023	20096
902.141	19799
902.26	19738
902.379	19875
902.498	19837
902.617	19769
902.735	19890
902.854	19731
902.973	19738
903.091	19571
903.21	19556
903.328	19578
903.446	19407
903.565	19293
903.683	19171
903.801	19015
903.919	19266
904.038	19244
904.156	19110
904.274	19057
904.392	18977
904.51	18958
904.627	19031
904.745	18996
904.863	19088
904.981	18875
905.098	18810
905.216	18684
905.334	18776
905.451	18802
905.569	18681
905.686	18620
905.803	18798
905.921	18513
906.038	18540
906.155	18460
906.272	18384
906.389	18456
906.506	18205
906.623	18243
906.74	18235
906.857	18110
906.974	18098
907.091	18285
907.208	18216
907.324	18270
907.441	18155
907.557	17980
907.674	17859
907.79	17817
907.907	17931
908.023	17950
908.139	17897
908.256	17977
908.372	17847
908.488	17760
908.604	17665
908.72	17710
908.836	17596
908.952	17646
909.068	17695
909.184	17824
909.3	17642
909.415	17623
909.531	17570
909.647	17379
909.762	17254
909.878	17315
909.993	17311
910.108	17311
910.224	17303
910.339	17261
910.454	17185
910.57	17147
910.685	17124
910.8	17326
910.915	17436
911.03	17105
911.145	16927
911.259	16904
911.374	16892
911.489	16725
911.604	16771
911.718	16668
911.833	16679
911.947	16637
912.062	16421
912.176	16630
912.291	16672
912.405	16622
912.519	16854
912.633	16866
912.748	16698
912.862	16580
912.976	16531
913.09	16379
913.204	16440
913.318	16466
913.431	16516
913.545	16565
913.659	16538
913.772	16470
913.886	16367
914	16204
914.113	16360
914.226	16413
914.34	16310
914.453	16169
914.566	16265
914.68	16124
914.793	16109
914.906	15975
915.019	15865
915.132	15819
915.245	15884
915.358	15854
915.47	15831
915.583	15937
915.696	15705
915.809	15930
915.921	15918
916.034	15873
916.146	15747
916.259	15690
916.371	15838
916.483	15835
916.595	15576
916.708	15656
916.82	15675
916.932	15587
917.044	15618
917.156	15587
917.268	15542
917.38	15466
917.491	15473
917.603	15458
917.715	15545
917.826	15656
917.938	15378
918.049	15294
918.161	15401
918.272	15561
918.384	15515
918.495	15321
918.606	15230
918.717	15203
918.828	15089
918.939	15233
919.05	15020
919.161	15192
919.272	14967
919.383	15028
919.494	15260
919.604	15428
919.715	15077
919.826	15028
919.936	15089
920.047	15195
920.157	15138
920.267	15344
920.378	15135
920.488	15116
920.598	15279
920.708	15382
920.818	15321
920.928	15184
921.038	15507
921.148	15355
921.258	15127
921.368	15009
921.477	14998
921.587	14807
921.697	14769
921.806	14906
921.916	14636
922.025	14716
922.134	14594
922.244	14442
922.353	14469
922.462	14358
922.571	14332
922.68	14164
922.789	14107
922.898	14123
923.007	14202
923.116	14115
923.224	14035
923.333	14130
923.442	13959
923.55	14065
923.659	14062
923.767	14046
923.876	13868
923.984	13936
924.092	13852
924.201	13947
924.309	13769
924.417	13845
924.525	13807
924.633	13795
924.741	14754
924.849	13540
924.956	13731
925.064	13556
925.172	13556
925.279	13510
925.387	13544
925.494	13521
925.602	13761
925.709	13571
925.816	13426
925.924	13575
926.031	13419
926.138	13358
926.245	13453
926.352	13316
926.459	13586
926.566	13445
926.673	13388
926.779	13251
926.886	13259
926.993	13103
927.099	13042
927.206	13080
927.312	13000
927.419	13042
927.525	13107
927.631	13065
927.737	13065
927.843	12848
927.95	12916
928.056	12871
928.162	12859
928.267	12939
928.373	13491
928.479	12973
928.585	12734
928.69	12825
928.796	12856
928.901	12833
929.007	12578
929.112	12787
929.218	12681
929.323	12684
929.428	12582
929.533	12719
929.638	12570
929.743	12525
929.848	12623
929.953	12620
930.058	12403
930.163	12266
930.267	12308
930.372	12376
930.477	12186
930.581	12429
930.685	12273
930.79	12201
930.894	12220
930.998	12171
931.103	12300
931.207	11878
931.311	11920
931.415	11790
931.519	11577
931.623	11535
