Data from test_V78500241_858.txt Node
Date: Fri Mar 25 15:47:44 CST 2022
User: usil
Spectrometer: V785-0024
Trigger mode: 0
Integration Time (sec): 4.000000E-1
Scans to average: 1
Nonlinearity correction enabled: false
Boxcar width: 0
Storing dark spectrum: false
XAxis mode: Wavelengths
Number of Pixels in Spectrum: 1024
>>>>>Begin Spectral Data<<<<<
801.071	28150
801.214	28063
801.356	27751
801.499	27625
801.641	27534
801.783	27603
801.926	27644
802.068	27663
802.211	27462
802.353	27397
802.496	27226
802.638	27214
802.78	27291
802.923	27169
803.065	27089
803.208	27085
803.35	27336
803.492	27389
803.635	27530
803.777	27287
803.919	27351
804.061	27732
804.204	27583
804.346	27420
804.488	27336
804.63	27477
804.773	27306
804.915	27481
805.057	27629
805.199	27416
805.341	27648
805.483	27591
805.626	27496
805.768	27572
805.91	27469
806.052	27545
806.194	27496
806.336	27789
806.478	27606
806.62	27656
806.762	27785
806.904	27778
807.046	28162
807.188	28063
807.33	28010
807.472	28044
807.614	28010
807.756	28128
807.898	27778
808.04	27838
808.182	27914
808.324	27930
808.465	27991
808.607	28097
808.749	28200
808.891	28215
809.033	28523
809.174	28280
809.316	28238
809.458	28219
809.6	28192
809.741	28394
809.883	28428
810.025	28535
810.166	28440
810.308	28584
810.45	28531
810.591	28306
810.733	28192
810.875	28223
811.016	28226
811.158	28249
811.299	28474
811.441	28284
811.582	28493
811.724	28337
811.865	28188
812.007	28215
812.148	28360
812.29	28219
812.431	28542
812.573	28588
812.714	28740
812.855	28721
812.997	28892
813.138	29124
813.279	28892
813.421	28744
813.562	28774
813.703	28622
813.845	28592
813.986	28063
814.127	28010
814.268	28025
814.41	27987
814.551	27964
814.692	28040
814.833	28036
814.974	27930
815.115	27922
815.256	27724
815.397	27728
815.539	27892
815.68	27739
815.821	27656
815.962	27671
816.103	27717
816.244	27739
816.385	27622
816.526	27690
816.666	27363
816.807	27260
816.948	27397
817.089	27214
817.23	27268
817.371	27405
817.512	27355
817.653	27199
817.793	27218
817.934	27199
818.075	27291
818.216	27252
818.356	27161
818.497	27131
818.638	27036
818.778	27028
818.919	26899
819.06	27100
819.2	27279
819.341	27325
819.481	27298
819.622	27336
819.762	27652
819.903	27542
820.043	27386
820.184	27359
820.324	27393
820.465	27500
820.605	27416
820.746	27317
820.886	27237
821.026	27488
821.167	27370
821.307	27408
821.447	27408
821.588	27154
821.728	26940
821.868	26895
822.008	26712
822.149	26769
822.289	26743
822.429	26404
822.569	26495
822.709	26324
822.849	26351
822.99	26199
823.13	26298
823.27	26187
823.41	26122
823.55	26043
823.69	26161
823.83	26077
823.97	26077
824.11	26039
824.25	25887
824.389	25955
824.529	26024
824.669	25712
824.809	26001
824.949	26096
825.089	26039
825.228	25902
825.368	25837
825.508	25761
825.648	25822
825.787	25814
825.927	25898
826.067	25769
826.206	25784
826.346	25784
826.485	25788
826.625	25746
826.765	25986
826.904	25677
827.044	25434
827.183	25472
827.323	25457
827.462	25556
827.601	25434
827.741	25571
827.88	25350
828.02	25331
828.159	25601
828.298	25434
828.437	25575
828.577	25506
828.716	25533
828.855	25285
828.994	25183
829.134	25320
829.273	25297
829.412	25122
829.551	25209
829.69	25133
829.829	25308
829.968	25217
830.107	25171
830.246	25156
830.385	25179
830.524	25008
830.663	24951
830.802	24928
830.941	24840
831.08	24719
831.219	24897
831.357	24859
831.496	25038
831.635	24719
831.774	24753
831.913	24745
832.051	24502
832.19	24620
832.329	24681
832.467	24532
832.606	24353
832.744	24460
832.883	24513
833.022	24471
833.16	24441
833.299	24509
833.437	24479
833.576	24566
833.714	24559
833.852	24658
833.991	24669
834.129	24635
834.267	24547
834.406	24585
834.544	24582
834.682	24688
834.821	24536
834.959	24753
835.097	24502
835.235	24426
835.373	24505
835.511	24582
835.65	24433
835.788	24327
835.926	24235
836.064	24121
836.202	24114
836.34	24300
836.478	24475
836.615	24388
836.753	24353
836.891	24361
837.029	24292
837.167	24285
837.305	24251
837.443	24205
837.58	24144
837.718	24338
837.856	24224
837.993	24098
838.131	24174
838.269	24060
838.406	23965
838.544	24011
838.681	23863
838.819	23821
838.956	23581
839.094	23714
839.231	23726
839.369	23821
839.506	24003
839.643	23832
839.781	23726
839.918	23608
840.055	23722
840.193	23573
840.33	23634
840.467	23581
840.604	23672
840.742	23828
840.879	23619
841.016	23425
841.153	23543
841.29	23684
841.427	23551
841.564	23570
841.701	23539
841.838	23668
841.975	23516
842.112	23448
842.249	23398
842.385	23421
842.522	23562
842.659	23387
842.796	23269
842.933	23326
843.069	23288
843.206	23334
843.343	23444
843.479	23303
843.616	23330
843.752	23052
843.889	23121
844.025	23105
844.162	23121
844.298	23132
844.435	23067
844.571	23037
844.708	23132
844.844	23307
844.98	23250
845.117	23200
845.253	22915
845.389	22949
845.525	22961
845.661	22942
845.798	22824
845.934	22938
846.07	22668
846.206	22755
846.342	22999
846.478	22698
846.614	22519
846.75	22478
846.886	22588
847.022	22603
847.158	22660
847.294	22615
847.429	22584
847.565	22424
847.701	22793
847.837	22276
847.972	22242
848.108	22360
848.244	22382
848.379	22242
848.515	22029
848.65	22154
848.786	22097
848.921	22284
849.057	22280
849.192	22219
849.328	22215
849.463	22067
849.598	22109
849.734	22139
849.869	21983
850.004	21987
850.14	21797
850.275	21880
850.41	21873
850.545	21918
850.68	21831
850.815	22032
850.95	21972
851.085	22166
851.22	22051
851.355	21895
851.49	21926
851.625	21808
851.76	21960
851.895	21827
852.03	21949
852.165	21907
852.299	21949
852.434	22048
852.569	21926
852.703	22013
852.838	21895
852.973	22109
853.107	21979
853.242	21797
853.376	21800
853.511	21622
853.645	21671
853.78	21903
853.914	21698
854.048	21713
854.183	21679
854.317	21614
854.451	21892
854.585	21671
854.72	21797
854.854	21854
854.988	21542
855.122	21717
855.256	21591
855.39	21732
855.524	21785
855.658	21736
855.792	21720
855.926	21690
856.06	21850
856.194	21755
856.327	21633
856.461	21542
856.595	21694
856.729	21755
856.862	21800
856.996	21762
857.13	21724
857.263	21819
857.397	21945
857.53	21808
857.664	21808
857.797	21732
857.931	21854
858.064	21797
858.197	21892
858.331	21732
858.464	21682
858.597	21625
858.731	21667
858.864	21736
858.997	21701
859.13	21705
859.263	21743
859.396	21854
859.529	21732
859.662	21732
859.795	21656
859.928	21656
860.061	22025
860.194	21873
860.327	21907
860.46	21884
860.592	21964
860.725	21835
860.858	21823
860.99	21698
861.123	21728
861.256	21747
861.388	21827
861.521	22306
861.653	21690
861.786	21667
861.918	21698
862.05	21667
862.183	21751
862.315	21671
862.447	21831
862.58	21709
862.712	21469
862.844	21473
862.976	21629
863.108	21485
863.24	21903
863.372	21424
863.504	21443
863.636	21507
863.768	21485
863.9	21538
864.032	21355
864.164	21564
864.296	21523
864.428	21686
864.559	21526
864.691	21412
864.823	21477
864.954	21458
865.086	21469
865.217	21424
865.349	21321
865.48	21264
865.612	21439
865.743	21519
865.875	21378
866.006	21298
866.137	21382
866.269	21340
866.4	21367
866.531	21336
866.662	21203
866.793	21252
866.924	21287
867.055	21378
867.186	21214
867.317	21233
867.448	21192
867.579	21389
867.71	21154
867.841	21252
867.972	21214
868.103	21306
868.233	21222
868.364	21233
868.495	21428
868.625	21492
868.756	21770
868.886	21542
869.017	21545
869.147	21629
869.278	21549
869.408	21564
869.539	21580
869.669	21561
869.799	21572
869.929	21614
870.06	21660
870.19	21876
870.32	21766
870.45	21945
870.58	21880
870.71	21911
870.84	22029
870.97	21876
871.1	21956
871.23	22063
871.36	22185
871.489	22032
871.619	22124
871.749	22025
871.879	22166
872.008	22284
872.138	22185
872.267	22162
872.397	22101
872.526	21892
872.656	21968
872.785	21941
872.915	22306
873.044	22177
873.173	22147
873.303	22150
873.432	22120
873.561	22211
873.69	22185
873.819	22204
873.948	22268
874.077	22188
874.206	22109
874.335	22093
874.464	22242
874.593	22306
874.722	22234
874.851	22398
874.979	22432
875.108	22561
875.237	22485
875.365	22306
875.494	22337
875.623	22432
875.751	22261
875.88	22390
876.008	22516
876.136	22637
876.265	22744
876.393	22858
876.521	23003
876.65	22790
876.778	22759
876.906	22618
877.034	22706
877.162	22687
877.29	22771
877.418	22706
877.546	22713
877.674	22634
877.802	22797
877.93	22713
878.058	22679
878.185	22694
878.313	22531
878.441	22637
878.568	22535
878.696	22679
878.824	22820
878.951	22752
879.079	22862
879.206	23060
879.333	22824
879.461	22816
879.588	22847
879.715	22877
879.842	22908
879.97	22805
880.097	22626
880.224	22508
880.351	22615
880.478	22432
880.605	22462
880.732	22596
880.859	22748
880.986	22497
881.112	22538
881.239	22367
881.366	22219
881.493	22226
881.619	22086
881.746	22074
881.872	22040
881.999	22010
882.125	22078
882.252	22185
882.378	22139
882.505	22055
882.631	22093
882.757	21762
882.883	21857
883.01	21789
883.136	21774
883.262	21641
883.388	21641
883.514	21941
883.64	21838
883.766	21743
883.892	21473
884.018	21637
884.143	21694
884.269	21770
884.395	21412
884.52	21386
884.646	21420
884.772	21428
884.897	21374
885.023	21447
885.148	21466
885.274	21622
885.399	21473
885.524	21420
885.65	21431
885.775	21549
885.9	21416
886.025	21576
886.15	21466
886.275	21302
886.4	21279
886.525	21355
886.65	21321
886.775	21313
886.9	21553
887.025	21595
887.149	21336
887.274	21199
887.399	21214
887.523	21108
887.648	21260
887.773	21055
887.897	21321
888.021	21192
888.146	21154
888.27	21260
888.395	21310
888.519	21272
888.643	21211
888.767	21184
888.891	21131
889.015	20933
889.139	21032
889.263	20910
889.387	21051
889.511	21199
889.635	21207
889.759	20906
889.883	20979
890.006	21020
890.13	21074
890.254	20899
890.377	20781
890.501	20765
890.624	20743
890.748	20762
890.871	20587
890.995	20602
891.118	20583
891.241	20533
891.364	20545
891.488	20651
891.611	20606
891.734	20545
891.857	20602
891.98	20541
892.103	20533
892.226	20568
892.349	20526
892.471	20385
892.594	20522
892.717	20484
892.839	20476
892.962	20457
893.085	20514
893.207	20484
893.33	20480
893.452	20351
893.575	20594
893.697	20412
893.819	20583
893.941	20648
894.064	20552
894.186	20442
894.308	20351
894.43	20499
894.552	20564
894.674	20564
894.796	20347
894.918	20518
895.04	20480
895.161	20602
895.283	20385
895.405	20351
895.526	20454
895.648	20526
895.769	20476
895.891	20423
896.012	20571
896.134	20480
896.255	20556
896.376	20404
896.498	20492
896.619	20434
896.74	20389
896.861	20423
896.982	20754
897.103	20800
897.224	20648
897.345	20663
897.466	20590
897.587	20659
897.708	20792
897.828	20697
897.949	20609
898.07	20575
898.19	20678
898.311	20746
898.431	20583
898.552	20712
898.672	20693
898.792	20674
898.913	20617
899.033	20590
899.153	20545
899.273	20469
899.393	20461
899.513	20476
899.633	20442
899.753	20389
899.873	20320
899.993	20450
900.113	20275
900.232	20358
900.352	20275
900.472	20161
900.591	20164
900.711	20172
900.83	20168
900.95	20202
901.069	20301
901.189	20088
901.308	19898
901.427	19742
901.546	19643
901.665	19765
901.784	19780
901.904	19719
902.023	19605
902.141	19316
902.26	19316
902.379	19312
902.498	19266
902.617	19244
902.735	19293
902.854	19274
902.973	19266
903.091	18958
903.21	18935
903.328	18935
903.446	18863
903.565	18814
903.683	18787
903.801	18528
903.919	18722
904.038	18646
904.156	18471
904.274	18582
904.392	18395
904.51	18456
904.627	18532
904.745	18559
904.863	18471
904.981	18251
905.098	18232
905.216	18194
905.334	18239
905.451	18163
905.569	18102
905.686	18174
905.803	18148
905.921	17996
906.038	18117
906.155	18007
906.272	17832
906.389	17786
906.506	17672
906.623	17756
906.74	17733
906.857	17608
906.974	17600
907.091	17771
907.208	17821
907.324	17741
907.441	17691
907.557	17429
907.674	17402
907.79	17322
907.907	17318
908.023	17444
908.139	17410
908.256	17330
908.372	17322
908.488	17250
908.604	17159
908.72	17124
908.836	17048
908.952	17140
909.068	17155
909.184	17235
909.3	17071
909.415	17071
909.531	17045
909.647	17003
909.762	16869
909.878	16831
909.993	16850
910.108	16710
910.224	16736
910.339	16812
910.454	16672
910.57	16611
910.685	16637
910.8	16824
910.915	16710
911.03	16656
911.145	16443
911.259	16462
911.374	16386
911.489	16375
911.604	16318
911.718	16074
911.833	16135
911.947	16048
912.062	16036
912.176	16238
912.291	16265
912.405	16299
912.519	16417
912.633	16398
912.748	16230
912.862	16101
912.976	16021
913.09	15789
913.204	15930
913.318	15949
913.431	16036
913.545	16013
913.659	16055
913.772	15915
913.886	15869
914	15808
914.113	15922
914.226	15968
914.34	15812
914.453	15595
914.566	15812
914.68	15610
914.793	15614
914.906	15496
915.019	15397
915.132	15306
915.245	15401
915.358	15401
915.47	15424
915.583	15329
915.696	15424
915.809	15469
915.921	15568
916.034	15317
916.146	15272
916.259	15226
916.371	15351
916.483	15367
916.595	15214
916.708	15222
916.82	15230
916.932	15176
917.044	15112
917.156	15154
917.268	14937
917.38	15066
917.491	15005
917.603	15013
917.715	15013
917.826	15077
917.938	14967
918.049	14872
918.161	14963
918.272	15138
918.384	14998
918.495	14804
918.606	14788
918.717	14724
918.828	14659
918.939	14807
919.05	14655
919.161	14705
919.272	14514
919.383	14587
919.494	14845
919.604	14979
919.715	14788
919.826	14625
919.936	14720
920.047	14914
920.157	14788
920.267	14823
920.378	14781
920.488	14663
920.598	14941
920.708	15074
920.818	14845
920.928	14842
921.038	15058
921.148	14986
921.258	14629
921.368	14613
921.477	14499
921.587	14484
921.697	14259
921.806	14427
921.916	14233
922.025	14221
922.134	14123
922.244	14005
922.353	14058
922.462	14005
922.571	13887
922.68	13734
922.789	13788
922.898	13742
923.007	13655
923.116	13753
923.224	13708
923.333	13685
923.442	13552
923.55	13586
923.659	13559
923.767	13597
923.876	13521
923.984	13590
924.092	13472
924.201	13529
924.309	13495
924.417	13415
924.525	13411
924.633	13434
924.741	14355
924.849	13156
924.956	13293
925.064	13171
925.172	13088
925.279	13129
925.387	13175
925.494	13240
925.602	13278
925.709	13110
925.816	13053
925.924	13114
926.031	13198
926.138	13133
926.245	13228
926.352	12962
926.459	13156
926.566	13270
926.673	13050
926.779	12859
926.886	12814
926.993	12920
927.099	12738
927.206	12703
927.312	12684
927.419	12829
927.525	12776
927.631	12722
927.737	12623
927.843	12669
927.95	12536
928.056	12593
928.162	12570
928.267	12639
928.373	13012
928.479	12642
928.585	12319
928.69	12525
928.796	12555
928.901	12471
929.007	12277
929.112	12418
929.218	12346
929.323	12342
929.428	12277
929.533	12418
929.638	12254
929.743	12281
929.848	12315
929.953	12247
930.058	12144
930.163	12060
930.267	11946
930.372	12106
930.477	11946
930.581	12197
930.685	11950
930.79	11840
930.894	11920
930.998	11828
931.103	11988
931.207	11665
931.311	11532
931.415	11516
931.519	11204
931.623	11208
