Data from test_V78500241_2938.txt Node
Date: Fri Mar 25 16:02:09 CST 2022
User: usil
Spectrometer: V785-0024
Trigger mode: 0
Integration Time (sec): 4.000000E-1
Scans to average: 1
Nonlinearity correction enabled: false
Boxcar width: 0
Storing dark spectrum: false
XAxis mode: Wavelengths
Number of Pixels in Spectrum: 1024
>>>>>Begin Spectral Data<<<<<
801.071	28634
801.214	28546
801.356	28360
801.499	28325
801.641	28169
801.783	28188
801.926	28223
802.068	28188
802.211	28147
802.353	28006
802.496	28002
802.638	27964
802.78	27876
802.923	27808
803.065	27831
803.208	27831
803.35	27865
803.492	28036
803.635	28135
803.777	28002
803.919	28051
804.061	28405
804.204	28150
804.346	28025
804.488	28063
804.63	28196
804.773	28013
804.915	28246
805.057	28295
805.199	28154
805.341	28272
805.483	28223
805.626	28223
805.768	28147
805.91	28382
806.052	28386
806.194	28341
806.336	28500
806.478	28200
806.62	28314
806.762	28474
806.904	28538
807.046	28717
807.188	28767
807.33	28607
807.472	28740
807.614	28634
807.756	28679
807.898	28603
808.04	28474
808.182	28565
808.324	28557
808.465	28740
808.607	28824
808.749	28976
808.891	28999
809.033	29155
809.174	29025
809.316	28965
809.458	28915
809.6	29071
809.741	29109
809.883	28968
810.025	29166
810.166	29193
810.308	29273
810.45	29128
810.591	29022
810.733	28881
810.875	28911
811.016	28854
811.158	28767
811.299	28900
811.441	29075
811.582	29098
811.724	29113
811.865	28900
812.007	28904
812.148	28976
812.29	29064
812.431	29185
812.573	29326
812.714	29516
812.855	29585
812.997	29501
813.138	29729
813.279	29543
813.421	29414
813.562	29406
813.703	29174
813.845	29197
813.986	28927
814.127	28763
814.268	28713
814.41	28831
814.551	28664
814.692	28744
814.833	28615
814.974	28466
815.115	28698
815.256	28447
815.397	28550
815.539	28569
815.68	28527
815.821	28379
815.962	28580
816.103	28428
816.244	28337
816.385	28333
816.526	28226
816.666	28211
816.807	28070
816.948	27964
817.089	28059
817.23	27972
817.371	28002
817.512	27987
817.653	28025
817.793	27895
817.934	27941
818.075	28082
818.216	28051
818.356	27979
818.497	27812
818.638	27576
818.778	27736
818.919	27831
819.06	27808
819.2	27854
819.341	28147
819.481	28086
819.622	28150
819.762	28337
819.903	28044
820.043	28105
820.184	28021
820.324	28211
820.465	28234
820.605	28082
820.746	28059
820.886	28048
821.026	28010
821.167	28150
821.307	28051
821.447	28010
821.588	27991
821.728	27804
821.868	27663
822.008	27397
822.149	27469
822.289	27496
822.429	27184
822.569	27214
822.709	27127
822.849	27028
822.99	26967
823.13	26918
823.27	26826
823.41	26918
823.55	26640
823.69	26792
823.83	26807
823.97	26693
824.11	26560
824.25	26492
824.389	26629
824.529	26716
824.669	26651
824.809	26705
824.949	26670
825.089	26823
825.228	26800
825.368	26549
825.508	26286
825.648	26457
825.787	26488
825.927	26556
826.067	26514
826.206	26461
826.346	26579
826.485	26552
826.625	26579
826.765	26583
826.904	26602
827.044	26168
827.183	26256
827.323	26286
827.462	26157
827.601	26233
827.741	26206
827.88	26237
828.02	26062
828.159	26142
828.298	26252
828.437	26271
828.577	26176
828.716	26183
828.855	26172
828.994	25947
829.134	26024
829.273	25917
829.412	25902
829.551	25811
829.69	25951
829.829	25890
829.968	26077
830.107	26012
830.246	25734
830.385	25841
830.524	25811
830.663	25677
830.802	25597
830.941	25487
831.08	25460
831.219	25506
831.357	25563
831.496	25761
831.635	25403
831.774	25240
831.913	25430
832.051	25263
832.19	25426
832.329	25362
832.467	25206
832.606	25118
832.744	25080
832.883	25274
833.022	25065
833.16	25228
833.299	25209
833.437	25232
833.576	25293
833.714	25301
833.852	25236
833.991	25278
834.129	25362
834.267	25247
834.406	25137
834.544	25259
834.682	25148
834.821	25137
834.959	25369
835.097	25110
835.235	25175
835.373	25327
835.511	25225
835.65	25065
835.788	25129
835.926	25053
836.064	24913
836.202	24928
836.34	24943
836.478	25152
836.615	25129
836.753	25061
836.891	25050
837.029	24981
837.167	24947
837.305	24928
837.443	24894
837.58	24852
837.718	25046
837.856	24966
837.993	24783
838.131	24928
838.269	24848
838.406	24905
838.544	24760
838.681	24601
838.819	24475
838.956	24460
839.094	24441
839.231	24338
839.369	24616
839.506	24707
839.643	24452
839.781	24285
839.918	24338
840.055	24361
840.193	24342
840.33	24319
840.467	24213
840.604	24311
840.742	24532
840.879	24174
841.016	24213
841.153	24121
841.29	24262
841.427	24296
841.564	24224
841.701	24201
841.838	24258
841.975	24083
842.112	24106
842.249	24163
842.385	23958
842.522	24308
842.659	24087
842.796	24114
842.933	24003
843.069	23847
843.206	23916
843.343	24053
843.479	23996
843.616	23988
843.752	23764
843.889	23737
844.025	23901
844.162	23783
844.298	23901
844.435	23714
844.571	23748
844.708	23847
844.844	23984
844.98	23901
845.117	23843
845.253	23710
845.389	23649
845.525	23710
845.661	23638
845.798	23562
845.934	23634
846.07	23414
846.206	23611
846.342	23592
846.478	23554
846.614	23280
846.75	23109
846.886	23235
847.022	23376
847.158	23261
847.294	23250
847.429	23292
847.565	23140
847.701	23421
847.837	22889
847.972	22942
848.108	22987
848.244	23044
848.379	22835
848.515	22843
848.65	22824
848.786	22881
848.921	22862
849.057	22987
849.192	22873
849.328	22877
849.463	22858
849.598	22843
849.734	22691
849.869	22679
850.004	22672
850.14	22733
850.275	22588
850.41	22554
850.545	22603
850.68	22466
850.815	22717
850.95	22588
851.085	22778
851.22	22767
851.355	22615
851.49	22626
851.625	22561
851.76	22577
851.895	22565
852.03	22527
852.165	22588
852.299	22615
852.434	22599
852.569	22561
852.703	22519
852.838	22599
852.973	22736
853.107	22763
853.242	22577
853.376	22451
853.511	22295
853.645	22272
853.78	22531
853.914	22424
854.048	22379
854.183	22421
854.317	22375
854.451	22618
854.585	22405
854.72	22443
854.854	22428
854.988	22268
855.122	22398
855.256	22341
855.39	22451
855.524	22470
855.658	22451
855.792	22363
855.926	22424
856.06	22481
856.194	22523
856.327	22402
856.461	22542
856.595	22322
856.729	22535
856.862	22634
856.996	22322
857.13	22489
857.263	22538
857.397	22493
857.53	22421
857.664	22538
857.797	22500
857.931	22527
858.064	22474
858.197	22402
858.331	22421
858.464	22375
858.597	22352
858.731	22421
858.864	22417
858.997	22360
859.13	22478
859.263	22405
859.396	22531
859.529	22440
859.662	22360
859.795	22443
859.928	22421
860.061	22577
860.194	22668
860.327	22493
860.46	22462
860.592	22546
860.725	22584
860.858	22546
860.99	22413
861.123	22379
861.256	22360
861.388	22493
861.521	23159
861.653	22249
861.786	22150
861.918	22177
862.05	22329
862.183	22390
862.315	22352
862.447	22348
862.58	22398
862.712	22169
862.844	22196
862.976	22192
863.108	22135
863.24	22603
863.372	22109
863.504	22150
863.636	22044
863.768	22131
863.9	22166
864.032	21934
864.164	22082
864.296	22192
864.428	22158
864.559	22147
864.691	22276
864.823	22067
864.954	22166
865.086	22086
865.217	22048
865.349	21846
865.48	21934
865.612	22013
865.743	22078
865.875	21930
866.006	21975
866.137	21968
866.269	21979
866.4	22044
866.531	21934
866.662	21934
866.793	21979
866.924	21941
867.055	21964
867.186	21949
867.317	22002
867.448	21854
867.579	21873
867.71	21751
867.841	21804
867.972	22044
868.103	21873
868.233	21922
868.364	21968
868.495	22021
868.625	22040
868.756	22257
868.886	22105
869.017	22166
869.147	22333
869.278	22394
869.408	22230
869.539	22204
869.669	22150
869.799	22268
869.929	22291
870.06	22348
870.19	22485
870.32	22523
870.45	22523
870.58	22580
870.71	22577
870.84	22599
870.97	22588
871.1	22542
871.23	22721
871.36	22881
871.489	22706
871.619	22809
871.749	22645
871.879	22679
872.008	22911
872.138	22790
872.267	22778
872.397	22698
872.526	22649
872.656	22508
872.785	22478
872.915	22725
873.044	22881
873.173	22828
873.303	22793
873.432	22778
873.561	22782
873.69	22869
873.819	22797
873.948	22790
874.077	22873
874.206	22786
874.335	22831
874.464	22984
874.593	22923
874.722	22919
874.851	23056
874.979	22972
875.108	22972
875.237	22961
875.365	22919
875.494	23003
875.623	23075
875.751	22930
875.88	23067
876.008	23136
876.136	23181
876.265	23334
876.393	23512
876.521	23482
876.65	23501
876.778	23463
876.906	23223
877.034	23311
877.162	23376
877.29	23220
877.418	23433
877.546	23368
877.674	23330
877.802	23417
877.93	23311
878.058	23326
878.185	23269
878.313	23269
878.441	23440
878.568	23132
878.696	23368
878.824	23425
878.951	23406
879.079	23429
879.206	23779
879.333	23337
879.461	23391
879.588	23490
879.715	23490
879.842	23672
879.97	23395
880.097	23181
880.224	23162
880.351	23216
880.478	23128
880.605	23105
880.732	23284
880.859	23345
880.986	23261
881.112	23212
881.239	22995
881.366	23064
881.493	22885
881.619	22748
881.746	22843
881.872	22793
881.999	22687
882.125	22668
882.252	22809
882.378	22759
882.505	22854
882.631	22538
882.757	22371
882.883	22371
883.01	22504
883.136	22276
883.262	22284
883.388	22177
883.514	22443
883.64	22413
883.766	22207
883.892	22322
884.018	22295
884.143	22291
884.269	22421
884.395	22078
884.52	22036
884.646	22040
884.772	22029
884.897	21987
885.023	22021
885.148	22070
885.274	22139
885.399	22200
885.524	22006
885.65	21983
885.775	22169
885.9	22002
886.025	22147
886.15	22131
886.275	21960
886.4	21865
886.525	21991
886.65	21956
886.775	22025
886.9	22074
887.025	22204
887.149	21949
887.274	21854
887.399	21705
887.523	21781
887.648	21797
887.773	21736
887.897	21819
888.021	21759
888.146	21838
888.27	21785
888.395	21937
888.519	21770
888.643	21880
888.767	21816
888.891	21713
889.015	21580
889.139	21622
889.263	21633
889.387	21705
889.511	21873
889.635	21816
889.759	21614
889.883	21648
890.006	21606
890.13	21660
890.254	21481
890.377	21633
890.501	21355
890.624	21321
890.748	21397
890.871	21306
890.995	21188
891.118	21188
891.241	21131
891.364	21142
891.488	21298
891.611	21176
891.734	21108
891.857	21367
891.98	21173
892.103	21108
892.226	21043
892.349	21085
892.471	20902
892.594	21028
892.717	21009
892.839	21066
892.962	21020
893.085	21066
893.207	21009
893.33	20929
893.452	20872
893.575	21013
893.697	21055
893.819	21142
893.941	21256
894.064	21131
894.186	21020
894.308	21032
894.43	21146
894.552	21112
894.674	21089
894.796	20853
894.918	21024
895.04	21009
895.161	20967
895.283	21017
895.405	20883
895.526	21032
895.648	20963
895.769	21005
895.891	21047
896.012	20956
896.134	21062
896.255	20876
896.376	20952
896.498	20887
896.619	21173
896.74	21157
896.861	21093
896.982	21340
897.103	21424
897.224	21351
897.345	21176
897.466	21173
897.587	21279
897.708	21378
897.828	21203
897.949	21214
898.07	21096
898.19	21165
898.311	21298
898.431	21237
898.552	21195
898.672	21294
898.792	21252
898.913	21157
899.033	21024
899.153	21020
899.273	20929
899.393	20956
899.513	20982
899.633	20956
899.753	21116
899.873	20971
899.993	20941
900.113	20842
900.232	20956
900.352	20735
900.472	20708
900.591	20724
900.711	20670
900.83	20629
900.95	20708
901.069	20792
901.189	20659
901.308	20476
901.427	20309
901.546	20393
901.665	20286
901.784	20305
901.904	20172
902.023	20050
902.141	19925
902.26	19811
902.379	19921
902.498	19814
902.617	19868
902.735	19830
902.854	19677
902.973	19693
903.091	19373
903.21	19388
903.328	19464
903.446	19358
903.565	19320
903.683	19339
903.801	19175
903.919	19232
904.038	19247
904.156	19038
904.274	19137
904.392	19015
904.51	18943
904.627	19008
904.745	19126
904.863	18973
904.981	18745
905.098	18639
905.216	18692
905.334	18730
905.451	18646
905.569	18604
905.686	18612
905.803	18623
905.921	18452
906.038	18566
906.155	18471
906.272	18483
906.389	18490
906.506	18228
906.623	18228
906.74	18243
906.857	18068
906.974	17999
907.091	18266
907.208	18201
907.324	18270
907.441	18083
907.557	17904
907.674	17912
907.79	17821
907.907	17870
908.023	17961
908.139	17889
908.256	17923
908.372	17904
908.488	17653
908.604	17611
908.72	17630
908.836	17642
908.952	17547
909.068	17634
909.184	17691
909.3	17611
909.415	17726
909.531	17634
909.647	17356
909.762	17246
909.878	17315
909.993	17364
910.108	17318
910.224	17246
910.339	17204
910.454	17185
910.57	17064
910.685	17090
910.8	17349
910.915	17223
911.03	17067
911.145	16942
911.259	16820
911.374	16946
911.489	16835
911.604	16763
911.718	16645
911.833	16744
911.947	16603
912.062	16546
912.176	16664
912.291	16683
912.405	16592
912.519	16797
912.633	16771
912.748	16611
912.862	16569
912.976	16428
913.09	16261
913.204	16344
913.318	16405
913.431	16478
913.545	16554
913.659	16440
913.772	16322
913.886	16204
914	16219
914.113	16223
914.226	16375
914.34	16356
914.453	16071
914.566	16280
914.68	16006
914.793	16101
914.906	15846
915.019	15888
915.132	15739
915.245	15797
915.358	15850
915.47	15842
915.583	15816
915.696	15937
915.809	15842
915.921	15915
916.034	15732
916.146	15644
916.259	15679
916.371	15770
916.483	15660
916.595	15671
916.708	15595
916.82	15614
916.932	15625
917.044	15561
917.156	15599
917.268	15549
917.38	15504
917.491	15469
917.603	15504
917.715	15439
917.826	15504
917.938	15412
918.049	15211
918.161	15329
918.272	15504
918.384	15485
918.495	15424
918.606	15207
918.717	15138
918.828	15195
918.939	15279
919.05	15146
919.161	15173
919.272	14956
919.383	15074
919.494	15085
919.604	15359
919.715	15195
919.826	15077
919.936	15184
920.047	15272
920.157	15188
920.267	15359
920.378	15112
920.488	15176
920.598	15363
920.708	15344
920.818	15268
920.928	15325
921.038	15435
921.148	15340
921.258	14975
921.368	15085
921.477	14876
921.587	14861
921.697	14804
921.806	14902
921.916	14777
922.025	14606
922.134	14461
922.244	14484
922.353	14526
922.462	14362
922.571	14419
922.68	14225
922.789	14107
922.898	14107
923.007	14050
923.116	14195
923.224	14035
923.333	14001
923.442	14054
923.55	13913
923.659	13928
923.767	13951
923.876	13856
923.984	13940
924.092	13841
924.201	13814
924.309	13902
924.417	13856
924.525	13753
924.633	13799
924.741	14689
924.849	13636
924.956	13620
925.064	13601
925.172	13506
925.279	13548
925.387	13571
925.494	13491
925.602	13674
925.709	13499
925.816	13483
925.924	13445
926.031	13464
926.138	13441
926.245	13506
926.352	13327
926.459	13548
926.566	13441
926.673	13422
926.779	13228
926.886	13190
926.993	13107
927.099	13053
927.206	12996
927.312	12913
927.419	13145
927.525	13000
927.631	13137
927.737	12966
927.843	12954
927.95	12848
928.056	12882
928.162	12962
928.267	13008
928.373	13529
928.479	12981
928.585	12726
928.69	12806
928.796	12882
928.901	12681
929.007	12673
929.112	12757
929.218	12764
929.323	12658
929.428	12593
929.533	12715
929.638	12593
929.743	12604
929.848	12563
929.953	12528
930.058	12384
930.163	12178
930.267	12361
930.372	12330
930.477	12152
930.581	12445
930.685	12266
930.79	12072
930.894	12171
930.998	12205
931.103	12273
931.207	11912
931.311	11813
931.415	11741
931.519	11512
931.623	11482
