Data from test_V78500241_589.txt Node
Date: Fri Mar 25 15:45:52 CST 2022
User: usil
Spectrometer: V785-0024
Trigger mode: 0
Integration Time (sec): 4.000000E-1
Scans to average: 1
Nonlinearity correction enabled: false
Boxcar width: 0
Storing dark spectrum: false
XAxis mode: Wavelengths
Number of Pixels in Spectrum: 1024
>>>>>Begin Spectral Data<<<<<
801.071	27542
801.214	27523
801.356	27294
801.499	27275
801.641	27070
801.783	27256
801.926	27195
802.068	27123
802.211	27043
802.353	26861
802.496	26731
802.638	26792
802.78	26590
802.923	26762
803.065	26769
803.208	26796
803.35	26746
803.492	26975
803.635	26940
803.777	26891
803.919	26868
804.061	27222
804.204	26933
804.346	26826
804.488	26708
804.63	26864
804.773	26773
804.915	26910
805.057	27001
805.199	26842
805.341	27062
805.483	27138
805.626	26967
805.768	26887
805.91	27001
806.052	26986
806.194	26921
806.336	27165
806.478	26956
806.62	27043
806.762	27089
806.904	27310
807.046	27530
807.188	27443
807.33	27561
807.472	27511
807.614	27435
807.756	27477
807.898	27211
808.04	27222
808.182	27245
808.324	27313
808.465	27405
808.607	27496
808.749	27622
808.891	27819
809.033	27857
809.174	27713
809.316	27568
809.458	27511
809.6	27656
809.741	27827
809.883	27892
810.025	27804
810.166	27937
810.308	27922
810.45	27888
810.591	27838
810.733	27812
810.875	27698
811.016	27511
811.158	27492
811.299	27842
811.441	27774
811.582	27918
811.724	27648
811.865	27717
812.007	27466
812.148	27549
812.29	27762
812.431	27804
812.573	28032
812.714	28090
812.855	28093
812.997	28120
813.138	28337
813.279	28238
813.421	28185
813.562	28109
813.703	27975
813.845	27884
813.986	27599
814.127	27450
814.268	27378
814.41	27370
814.551	27291
814.692	27370
814.833	27256
814.974	27222
815.115	27351
815.256	27176
815.397	27192
815.539	27260
815.68	27264
815.821	26956
815.962	27062
816.103	27070
816.244	26906
816.385	26940
816.526	26864
816.666	26712
816.807	26621
816.948	26765
817.089	26678
817.23	26693
817.371	26655
817.512	26625
817.653	26651
817.793	26423
817.934	26701
818.075	26689
818.216	26530
818.356	26552
818.497	26526
818.638	26347
818.778	26324
818.919	26320
819.06	26473
819.2	26358
819.341	26480
819.481	26507
819.622	26727
819.762	26899
819.903	26800
820.043	26739
820.184	26701
820.324	26655
820.465	26689
820.605	26640
820.746	26701
820.886	26602
821.026	26629
821.167	26705
821.307	26701
821.447	26461
821.588	26564
821.728	26476
821.868	26259
822.008	26111
822.149	25959
822.289	26027
822.429	25791
822.569	25757
822.709	25788
822.849	25521
822.99	25552
823.13	25533
823.27	25510
823.41	25544
823.55	25198
823.69	25381
823.83	25487
823.97	25320
824.11	25266
824.25	25183
824.389	25107
824.529	25278
824.669	25206
824.809	25346
824.949	25301
825.089	25247
825.228	25343
825.368	24996
825.508	24962
825.648	24947
825.787	25084
825.927	25141
826.067	24924
826.206	25031
826.346	25099
826.485	25061
826.625	25023
826.765	25209
826.904	25114
827.044	24810
827.183	24730
827.323	24764
827.462	24837
827.601	24825
827.741	24700
827.88	24673
828.02	24589
828.159	24719
828.298	24798
828.437	24806
828.577	24700
828.716	24783
828.855	24639
828.994	24471
829.134	24452
829.273	24528
829.412	24448
829.551	24464
829.69	24585
829.829	24445
829.968	24437
830.107	24566
830.246	24433
830.385	24426
830.524	24475
830.663	24213
830.802	24258
830.941	24079
831.08	24140
831.219	24254
831.357	24053
831.496	24235
831.635	24098
831.774	24129
831.913	23973
832.051	23813
832.19	23946
832.329	23855
832.467	23805
832.606	23897
832.744	23604
832.883	23790
833.022	23680
833.16	23760
833.299	23661
833.437	23843
833.576	23923
833.714	23821
833.852	23885
833.991	23840
834.129	23927
834.267	23897
834.406	23752
834.544	23897
834.682	23927
834.821	23863
834.959	23958
835.097	23691
835.235	23863
835.373	23805
835.511	23847
835.65	23722
835.788	23760
835.926	23551
836.064	23318
836.202	23512
836.34	23646
836.478	23767
836.615	23589
836.753	23627
836.891	23748
837.029	23596
837.167	23490
837.305	23653
837.443	23627
837.58	23577
837.718	23539
837.856	23467
837.993	23531
838.131	23337
838.269	23303
838.406	23341
838.544	23227
838.681	23094
838.819	23136
838.956	22896
839.094	22889
839.231	23018
839.369	23155
839.506	23254
839.643	23250
839.781	22873
839.918	22911
840.055	22904
840.193	22828
840.33	22923
840.467	22862
840.604	22915
840.742	23162
840.879	22675
841.016	22915
841.153	22740
841.29	22843
841.427	22797
841.564	22904
841.701	22824
841.838	22831
841.975	22774
842.112	22850
842.249	22729
842.385	22683
842.522	22877
842.659	22634
842.796	22660
842.933	22637
843.069	22546
843.206	22550
843.343	22702
843.479	22493
843.616	22653
843.752	22436
843.889	22478
844.025	22485
844.162	22390
844.298	22516
844.435	22462
844.571	22382
844.708	22379
844.844	22550
844.98	22398
845.117	22474
845.253	22478
845.389	22200
845.525	22268
845.661	22291
845.798	22120
845.934	22246
846.07	22128
846.206	22200
846.342	22257
846.478	22166
846.614	21979
846.75	21846
846.886	21800
847.022	21857
847.158	21831
847.294	21812
847.429	21956
847.565	21781
847.701	22078
847.837	21713
847.972	21462
848.108	21690
848.244	21679
848.379	21454
848.515	21473
848.65	21329
848.786	21458
848.921	21561
849.057	21583
849.192	21553
849.328	21500
849.463	21542
849.598	21424
849.734	21329
849.869	21359
850.004	21203
850.14	21279
850.275	21211
850.41	21195
850.545	21123
850.68	21176
850.815	21108
850.95	21135
851.085	21424
851.22	21351
851.355	21218
851.49	21180
851.625	21176
851.76	21154
851.895	21131
852.03	21188
852.165	21169
852.299	21310
852.434	21329
852.569	21192
852.703	21469
852.838	21241
852.973	21256
853.107	21370
853.242	21176
853.376	21058
853.511	20918
853.645	20944
853.78	21157
853.914	21161
854.048	21017
854.183	20982
854.317	21226
854.451	21233
854.585	20975
854.72	21036
854.854	21199
854.988	20990
855.122	20937
855.256	20876
855.39	20979
855.524	21085
855.658	21135
855.792	21108
855.926	21104
856.06	21150
856.194	21222
856.327	20876
856.461	20921
856.595	21074
856.729	20990
856.862	21112
856.996	21081
857.13	21093
857.263	21157
857.397	21089
857.53	21081
857.664	21055
857.797	20941
857.931	21131
858.064	21081
858.197	21058
858.331	21043
858.464	21051
858.597	20990
858.731	21119
858.864	20971
858.997	20979
859.13	20998
859.263	21051
859.396	21123
859.529	20998
859.662	21036
859.795	20971
859.928	21070
860.061	21138
860.194	21359
860.327	21074
860.46	21062
860.592	21165
860.725	21222
860.858	21154
860.99	20986
861.123	20929
861.256	20921
861.388	21009
861.521	21583
861.653	21142
861.786	20826
861.918	20948
862.05	20960
862.183	21017
862.315	20986
862.447	21161
862.58	20986
862.712	20842
862.844	20739
862.976	20880
863.108	20750
863.24	21264
863.372	20724
863.504	20746
863.636	20845
863.768	20746
863.9	20796
864.032	20663
864.164	20796
864.296	20823
864.428	20781
864.559	20826
864.691	20910
864.823	20651
864.954	20731
865.086	20754
865.217	20629
865.349	20659
865.48	20579
865.612	20754
865.743	20838
865.875	20621
866.006	20598
866.137	20663
866.269	20667
866.4	20670
866.531	20609
866.662	20632
866.793	20492
866.924	20514
867.055	20659
867.186	20541
867.317	20526
867.448	20503
867.579	20450
867.71	20511
867.841	20514
867.972	20571
868.103	20590
868.233	20575
868.364	20590
868.495	20625
868.625	20785
868.756	21024
868.886	20773
869.017	20796
869.147	20979
869.278	20929
869.408	20861
869.539	20838
869.669	20899
869.799	20746
869.929	20963
870.06	21009
870.19	21043
870.32	21161
870.45	21214
870.58	21363
870.71	21374
870.84	21332
870.97	21135
871.1	21260
871.23	21321
871.36	21412
871.489	21389
871.619	21279
871.749	21526
871.879	21344
872.008	21549
872.138	21393
872.267	21397
872.397	21351
872.526	21218
872.656	21268
872.785	21272
872.915	21466
873.044	21492
873.173	21405
873.303	21561
873.432	21572
873.561	21523
873.69	21542
873.819	21534
873.948	21443
874.077	21435
874.206	21428
874.335	21466
874.464	21603
874.593	21728
874.722	21648
874.851	21747
874.979	21618
875.108	21736
875.237	21698
875.365	21656
875.494	21698
875.623	21724
875.751	21656
875.88	21698
876.008	21827
876.136	21873
876.265	22063
876.393	22322
876.521	22139
876.65	22101
876.778	22101
876.906	22082
877.034	22040
877.162	22055
877.29	22029
877.418	21979
877.546	22131
877.674	22105
877.802	21998
877.93	22078
878.058	21899
878.185	21926
878.313	21865
878.441	22055
878.568	21694
878.696	21941
878.824	21975
878.951	22063
879.079	22158
879.206	22379
879.333	22204
879.461	22021
879.588	22207
879.715	22215
879.842	22280
879.97	22055
880.097	21793
880.224	21835
880.351	22021
880.478	21956
880.605	21755
880.732	21930
880.859	22116
880.986	21941
881.112	21964
881.239	21686
881.366	21469
881.493	21488
881.619	21454
881.746	21408
881.872	21321
881.999	21428
882.125	21397
882.252	21348
882.378	21367
882.505	21564
882.631	21230
882.757	21199
882.883	21260
883.01	21032
883.136	21096
883.262	21070
883.388	20925
883.514	21135
883.64	21070
883.766	21024
883.892	21013
884.018	20963
884.143	21135
884.269	21108
884.395	20857
884.52	20731
884.646	20800
884.772	20697
884.897	20686
885.023	20872
885.148	20876
885.274	20842
885.399	20971
885.524	20781
885.65	20937
885.775	20792
885.9	20712
886.025	21039
886.15	20739
886.275	20754
886.4	20625
886.525	20830
886.65	20682
886.775	20659
886.9	20861
887.025	20998
887.149	20716
887.274	20587
887.399	20568
887.523	20499
887.648	20629
887.773	20488
887.897	20613
888.021	20663
888.146	20556
888.27	20640
888.395	20594
888.519	20617
888.643	20560
888.767	20655
888.891	20431
889.015	20370
889.139	20377
889.263	20305
889.387	20568
889.511	20640
889.635	20454
889.759	20347
889.883	20278
890.006	20423
890.13	20381
890.254	20271
890.377	20252
890.501	20195
890.624	20157
890.748	20180
890.871	19955
890.995	19860
891.118	19826
891.241	20024
891.364	19837
891.488	20039
891.611	19997
891.734	19906
891.857	20088
891.98	19959
892.103	20062
892.226	19925
892.349	19974
892.471	19670
892.594	19841
892.717	19925
892.839	19807
892.962	20012
893.085	20005
893.207	19864
893.33	19666
893.452	19708
893.575	19951
893.697	19856
893.819	19955
893.941	20035
894.064	19864
894.186	19772
894.308	19784
894.43	19963
894.552	20020
894.674	19955
894.796	19757
894.918	19826
895.04	19860
895.161	19913
895.283	19845
895.405	19746
895.526	19811
895.648	19814
895.769	19807
895.891	19947
896.012	19868
896.134	19997
896.255	19887
896.376	19833
896.498	19822
896.619	19921
896.74	19879
896.861	19913
896.982	20202
897.103	20263
897.224	20115
897.345	20157
897.466	20039
897.587	20164
897.708	20202
897.828	20050
897.949	20031
898.07	19913
898.19	19898
898.311	20176
898.431	20031
898.552	20149
898.672	20161
898.792	20100
898.913	20081
899.033	19951
899.153	19883
899.273	19814
899.393	19849
899.513	19887
899.633	19852
899.753	19849
899.873	19761
899.993	19860
900.113	19772
900.232	19811
900.352	19765
900.472	19666
900.591	19491
900.711	19658
900.83	19681
900.95	19784
901.069	19734
901.189	19491
901.308	19255
901.427	19187
901.546	19247
901.665	19202
901.784	19274
901.904	19171
902.023	18878
902.141	18821
902.26	18776
902.379	18711
902.498	18661
902.617	18734
902.735	18791
902.854	18673
902.973	18631
903.091	18350
903.21	18426
903.328	18338
903.446	18334
903.565	18376
903.683	18213
903.801	18152
903.919	18159
904.038	18087
904.156	17893
904.274	18091
904.392	18049
904.51	17946
904.627	17897
904.745	17897
904.863	17980
904.981	17802
905.098	17638
905.216	17615
905.334	17627
905.451	17600
905.569	17672
905.686	17649
905.803	17600
905.921	17444
906.038	17615
906.155	17493
906.272	17341
906.389	17364
906.506	17189
906.623	17235
906.74	17117
906.857	16976
906.974	17052
907.091	17189
907.208	17288
907.324	17121
907.441	17113
907.557	16904
907.674	16911
907.79	16771
907.907	16790
908.023	16904
908.139	16972
908.256	16896
908.372	16809
908.488	16744
908.604	16694
908.72	16626
908.836	16603
908.952	16577
909.068	16603
909.184	16744
909.3	16618
909.415	16561
909.531	16607
909.647	16390
909.762	16440
909.878	16284
909.993	16379
910.108	16280
910.224	16318
910.339	16291
910.454	16272
910.57	16055
910.685	16116
910.8	16268
910.915	16318
911.03	16086
911.145	15949
911.259	16093
911.374	16006
911.489	15934
911.604	15857
911.718	15572
911.833	15789
911.947	15637
912.062	15553
912.176	15736
912.291	15652
912.405	15637
912.519	15892
912.633	15960
912.748	15663
912.862	15656
912.976	15606
913.09	15439
913.204	15587
913.318	15553
913.431	15477
913.545	15610
913.659	15614
913.772	15481
913.886	15408
914	15329
914.113	15447
914.226	15408
914.34	15363
914.453	15207
914.566	15370
914.68	15131
914.793	15230
914.906	14990
915.019	14990
915.132	14944
915.245	14982
915.358	14982
915.47	14994
915.583	14952
915.696	14971
915.809	15089
915.921	15074
916.034	14948
916.146	14815
916.259	14830
916.371	14929
916.483	14872
916.595	14853
916.708	14834
916.82	14864
916.932	14727
917.044	14659
917.156	14678
917.268	14606
917.38	14629
917.491	14598
917.603	14648
917.715	14632
917.826	14678
917.938	14530
918.049	14393
918.161	14499
918.272	14689
918.384	14693
918.495	14533
918.606	14446
918.717	14343
918.828	14431
918.939	14431
919.05	14248
919.161	14362
919.272	14138
919.383	14202
919.494	14377
919.604	14511
919.715	14328
919.826	14202
919.936	14206
920.047	14313
920.157	14351
920.267	14541
920.378	14301
920.488	14248
920.598	14579
920.708	14701
920.818	14446
920.928	14541
921.038	14632
921.148	14530
921.258	14305
921.368	14240
921.477	14077
921.587	14107
921.697	13909
921.806	14081
921.916	13909
922.025	13871
922.134	13651
922.244	13704
922.353	13799
922.462	13681
922.571	13586
922.68	13438
922.789	13346
922.898	13381
923.007	13331
923.116	13422
923.224	13441
923.333	13388
923.442	13206
923.55	13164
923.659	13255
923.767	13244
923.876	13171
923.984	13251
924.092	13099
924.201	13156
924.309	13175
924.417	13202
924.525	12962
924.633	13008
924.741	13928
924.849	12875
924.956	13023
925.064	12829
925.172	12772
925.279	12757
925.387	12814
925.494	12833
925.602	12909
925.709	12757
925.816	12791
925.924	12753
926.031	12878
926.138	12635
926.245	12821
926.352	12688
926.459	12791
926.566	12802
926.673	12715
926.779	12483
926.886	12551
926.993	12422
927.099	12479
927.206	12380
927.312	12315
927.419	12403
927.525	12372
927.631	12479
927.737	12239
927.843	12182
927.95	12133
928.056	12247
928.162	12205
928.267	12239
928.373	12840
928.479	12289
928.585	12038
928.69	12167
928.796	12175
928.901	12083
929.007	11973
929.112	12087
929.218	11977
929.323	11961
929.428	11920
929.533	12034
929.638	11874
929.743	11927
929.848	11874
929.953	11965
930.058	11779
930.163	11627
930.267	11668
930.372	11733
930.477	11604
930.581	11836
930.685	11646
930.79	11455
930.894	11509
930.998	11478
931.103	11653
931.207	11372
931.311	11212
931.415	11098
931.519	10930
931.623	10911
