Data from test_V78500241_3737.txt Node
Date: Fri Mar 25 16:07:41 CST 2022
User: usil
Spectrometer: V785-0024
Trigger mode: 0
Integration Time (sec): 4.000000E-1
Scans to average: 1
Nonlinearity correction enabled: false
Boxcar width: 0
Storing dark spectrum: false
XAxis mode: Wavelengths
Number of Pixels in Spectrum: 1024
>>>>>Begin Spectral Data<<<<<
801.071	28356
801.214	28329
801.356	28116
801.499	27941
801.641	27899
801.783	27926
801.926	27945
802.068	27808
802.211	27819
802.353	27698
802.496	27629
802.638	27599
802.78	27545
802.923	27564
803.065	27469
803.208	27485
803.35	27564
803.492	27701
803.635	27694
803.777	27614
803.919	27838
804.061	28154
804.204	27755
804.346	27732
804.488	27610
804.63	27648
804.773	27580
804.915	27713
805.057	27880
805.199	27698
805.341	27888
805.483	27983
805.626	27934
805.768	27812
805.91	28010
806.052	27922
806.194	27808
806.336	28010
806.478	27983
806.62	28082
806.762	28017
806.904	28226
807.046	28440
807.188	28424
807.33	28344
807.472	28478
807.614	28333
807.756	28405
807.898	28173
808.04	28105
808.182	28226
808.324	28341
808.465	28226
808.607	28596
808.749	28694
808.891	28771
809.033	28691
809.174	28653
809.316	28653
809.458	28485
809.6	28573
809.741	28565
809.883	28694
810.025	28888
810.166	28835
810.308	28850
810.45	28752
810.591	28892
810.733	28577
810.875	28611
811.016	28546
811.158	28424
811.299	28672
811.441	28748
811.582	28694
811.724	28531
811.865	28577
812.007	28599
812.148	28630
812.29	28561
812.431	28675
812.573	28847
812.714	29102
812.855	29185
812.997	29311
813.138	29356
813.279	29220
813.421	29220
813.562	29159
813.703	28946
813.845	28748
813.986	28573
814.127	28459
814.268	28333
814.41	28348
814.551	28299
814.692	28341
814.833	28401
814.974	28139
815.115	28303
815.256	28181
815.397	28173
815.539	28314
815.68	28188
815.821	28074
815.962	28207
816.103	28078
816.244	28010
816.385	27873
816.526	27911
816.666	27656
816.807	27580
816.948	27610
817.089	27534
817.23	27599
817.371	27583
817.512	27606
817.653	27648
817.793	27542
817.934	27557
818.075	27466
818.216	27701
818.356	27519
818.497	27534
818.638	27397
818.778	27332
818.919	27431
819.06	27462
819.2	27511
819.341	27633
819.481	27511
819.622	27747
819.762	28002
819.903	27766
820.043	27759
820.184	27823
820.324	27679
820.465	27690
820.605	27656
820.746	27637
820.886	27580
821.026	27648
821.167	27705
821.307	27690
821.447	27618
821.588	27443
821.728	27389
821.868	27241
822.008	27131
822.149	27135
822.289	26994
822.429	26857
822.569	26785
822.709	26697
822.849	26655
822.99	26659
823.13	26689
823.27	26613
823.41	26366
823.55	26278
823.69	26415
823.83	26389
823.97	26309
824.11	26233
824.25	26221
824.389	26317
824.529	26278
824.669	26256
824.809	26328
824.949	26294
825.089	26374
825.228	26206
825.368	25966
825.508	26172
825.648	26050
825.787	26122
825.927	26096
826.067	25909
826.206	26142
826.346	26271
826.485	26119
826.625	26092
826.765	26298
826.904	26218
827.044	25925
827.183	25940
827.323	25879
827.462	26039
827.601	25841
827.741	25807
827.88	25875
828.02	25685
828.159	25693
828.298	25776
828.437	25803
828.577	25803
828.716	25898
828.855	25708
828.994	25491
829.134	25662
829.273	25655
829.412	25491
829.551	25472
829.69	25460
829.829	25563
829.968	25529
830.107	25407
830.246	25594
830.385	25506
830.524	25377
830.663	25308
830.802	25251
830.941	25091
831.08	25118
831.219	25209
831.357	25316
831.496	25331
831.635	25118
831.774	25076
831.913	25038
832.051	24802
832.19	24821
832.329	24894
832.467	24757
832.606	24768
832.744	24764
832.883	24878
833.022	24768
833.16	24844
833.299	24772
833.437	24848
833.576	24878
833.714	24768
833.852	24825
833.991	24909
834.129	24882
834.267	24894
834.406	24749
834.544	24954
834.682	24878
834.821	24779
834.959	24916
835.097	24829
835.235	24875
835.373	24745
835.511	24734
835.65	24555
835.788	24688
835.926	24635
836.064	24513
836.202	24429
836.34	24738
836.478	24802
836.615	24639
836.753	24738
836.891	24715
837.029	24798
837.167	24559
837.305	24669
837.443	24498
837.58	24448
837.718	24631
837.856	24547
837.993	24403
838.131	24464
838.269	24452
838.406	24319
838.544	24258
838.681	24186
838.819	24129
838.956	24129
839.094	23961
839.231	24060
839.369	24106
839.506	24308
839.643	24197
839.781	23946
839.918	23794
840.055	24034
840.193	23908
840.33	23882
840.467	23931
840.604	23767
840.742	24190
840.879	23748
841.016	23809
841.153	23604
841.29	23935
841.427	23882
841.564	23901
841.701	23767
841.838	23733
841.975	23790
842.112	23649
842.249	23779
842.385	23551
842.522	23847
842.659	23843
842.796	23722
842.933	23687
843.069	23630
843.206	23535
843.343	23630
843.479	23638
843.616	23676
843.752	23482
843.889	23334
844.025	23528
844.162	23421
844.298	23493
844.435	23376
844.571	23250
844.708	23520
844.844	23509
844.98	23570
845.117	23531
845.253	23288
845.389	23376
845.525	23322
845.661	23376
845.798	23197
845.934	23166
846.07	23162
846.206	23048
846.342	23303
846.478	23067
846.614	22938
846.75	22854
846.886	22866
847.022	22972
847.158	22980
847.294	23010
847.429	22908
847.565	22866
847.701	23121
847.837	22649
847.972	22569
848.108	22672
848.244	22736
848.379	22421
848.515	22443
848.65	22447
848.786	22504
848.921	22462
849.057	22478
849.192	22554
849.328	22440
849.463	22432
849.598	22474
849.734	22443
849.869	22348
850.004	22261
850.14	22310
850.275	22265
850.41	22158
850.545	22147
850.68	22143
850.815	22112
850.95	22215
851.085	22375
851.22	22318
851.355	22405
851.49	22192
851.625	22215
851.76	22173
851.895	22124
852.03	22261
852.165	22242
852.299	22268
852.434	22299
852.569	22173
852.703	22135
852.838	22314
852.973	22379
853.107	22382
853.242	22169
853.376	22154
853.511	22082
853.645	21941
853.78	22177
853.914	22032
854.048	22143
854.183	22017
854.317	22040
854.451	22249
854.585	22246
854.72	22188
854.854	22143
854.988	21964
855.122	22029
855.256	21972
855.39	22040
855.524	22150
855.658	22181
855.792	22044
855.926	22055
856.06	22048
856.194	22238
856.327	22181
856.461	21987
856.595	21960
856.729	21998
856.862	22219
856.996	21994
857.13	22150
857.263	22120
857.397	22158
857.53	22044
857.664	22032
857.797	22070
857.931	22093
858.064	22006
858.197	22162
858.331	21937
858.464	21934
858.597	21903
858.731	21934
858.864	21899
858.997	21926
859.13	22067
859.263	22093
859.396	22261
859.529	22013
859.662	22067
859.795	21960
859.928	22185
860.061	22124
860.194	22337
860.327	22097
860.46	22097
860.592	22166
860.725	22177
860.858	22253
860.99	22055
861.123	21873
861.256	22105
861.388	22090
861.521	22713
861.653	21994
861.786	21808
861.918	21972
862.05	21926
862.183	22010
862.315	21934
862.447	22154
862.58	22105
862.712	21747
862.844	21701
862.976	21804
863.108	21880
863.24	22310
863.372	21781
863.504	21720
863.636	21694
863.768	21873
863.9	21743
864.032	21652
864.164	21747
864.296	21751
864.428	21797
864.559	21781
864.691	21774
864.823	21850
864.954	21804
865.086	21610
865.217	21717
865.349	21618
865.48	21622
865.612	21724
865.743	21766
865.875	21694
866.006	21633
866.137	21591
866.269	21599
866.4	21595
866.531	21694
866.662	21595
866.793	21507
866.924	21511
867.055	21629
867.186	21652
867.317	21496
867.448	21401
867.579	21553
867.71	21492
867.841	21450
867.972	21515
868.103	21576
868.233	21572
868.364	21622
868.495	21694
868.625	21793
868.756	21960
868.886	21785
869.017	21781
869.147	22017
869.278	21854
869.408	21911
869.539	21762
869.669	21819
869.799	21869
869.929	21945
870.06	21838
870.19	22124
870.32	21956
870.45	22166
870.58	22116
870.71	22325
870.84	22462
870.97	22150
871.1	22211
871.23	22459
871.36	22443
871.489	22318
871.619	22489
871.749	22428
871.879	22474
872.008	22474
872.138	22470
872.267	22531
872.397	22242
872.526	22280
872.656	22333
872.785	22234
872.915	22459
873.044	22485
873.173	22500
873.303	22489
873.432	22443
873.561	22557
873.69	22459
873.819	22443
873.948	22531
874.077	22417
874.206	22421
874.335	22474
874.464	22466
874.593	22679
874.722	22618
874.851	22740
874.979	22599
875.108	22656
875.237	22672
875.365	22497
875.494	22592
875.623	22759
875.751	22664
875.88	22706
876.008	22698
876.136	22889
876.265	23189
876.393	23128
876.521	23204
876.65	23003
876.778	22995
876.906	22949
877.034	23033
877.162	23037
877.29	22896
877.418	23052
877.546	23041
877.674	22999
877.802	22927
877.93	23117
878.058	22946
878.185	22961
878.313	22965
878.441	22968
878.568	22736
878.696	22847
878.824	23033
878.951	23159
879.079	23166
879.206	23391
879.333	23212
879.461	23159
879.588	23056
879.715	23155
879.842	23269
879.97	23132
880.097	22866
880.224	22885
880.351	22957
880.478	22854
880.605	22812
880.732	22782
880.859	23041
880.986	22877
881.112	22824
881.239	22748
881.366	22588
881.493	22394
881.619	22550
881.746	22386
881.872	22295
881.999	22337
882.125	22417
882.252	22367
882.378	22306
882.505	22504
882.631	22200
882.757	22128
882.883	22257
883.01	22063
883.136	22021
883.262	21975
883.388	21861
883.514	22192
883.64	22109
883.766	22078
883.892	21850
884.018	21759
884.143	22002
884.269	22101
884.395	21728
884.52	21720
884.646	21766
884.772	21774
884.897	21610
885.023	21770
885.148	21812
885.274	21953
885.399	21667
885.524	21827
885.65	21747
885.775	21717
885.9	21690
886.025	21751
886.15	21724
886.275	21633
886.4	21656
886.525	21637
886.65	21701
886.775	21610
886.9	21747
887.025	21827
887.149	21671
887.274	21329
887.399	21492
887.523	21416
887.648	21351
887.773	21340
887.897	21511
888.021	21515
888.146	21492
888.27	21603
888.395	21515
888.519	21462
888.643	21477
888.767	21538
888.891	21344
889.015	21192
889.139	21252
889.263	21291
889.387	21382
889.511	21473
889.635	21515
889.759	21287
889.883	21249
890.006	21256
890.13	21351
890.254	21214
890.377	21173
890.501	21036
890.624	21028
890.748	21051
890.871	20861
890.995	20792
891.118	20853
891.241	20796
891.364	20830
891.488	20891
891.611	20758
891.734	20880
891.857	20769
891.98	20800
892.103	20792
892.226	20834
892.349	20800
892.471	20682
892.594	20705
892.717	20834
892.839	20727
892.962	20739
893.085	20785
893.207	20788
893.33	20507
893.452	20571
893.575	20727
893.697	20693
893.819	20948
893.941	20811
894.064	20899
894.186	20712
894.308	20575
894.43	20807
894.552	20845
894.674	20785
894.796	20530
894.918	20602
895.04	20613
895.161	20758
895.283	20712
895.405	20686
895.526	20800
895.648	20708
895.769	20705
895.891	20674
896.012	20815
896.134	20796
896.255	20636
896.376	20777
896.498	20731
896.619	20670
896.74	20689
896.861	20781
896.982	21142
897.103	21169
897.224	21062
897.345	20811
897.466	20815
897.587	21005
897.708	21085
897.828	20887
897.949	20960
898.07	20750
898.19	20883
898.311	21001
898.431	20899
898.552	20830
898.672	20933
898.792	20861
898.913	20868
899.033	20864
899.153	20705
899.273	20514
899.393	20663
899.513	20678
899.633	20735
899.753	20644
899.873	20644
899.993	20682
900.113	20579
900.232	20663
900.352	20590
900.472	20423
900.591	20385
900.711	20381
900.83	20465
900.95	20575
901.069	20526
901.189	20366
901.308	20100
901.427	20100
901.546	20043
901.665	20031
901.784	20111
901.904	19818
902.023	19795
902.141	19635
902.26	19563
902.379	19643
902.498	19578
902.617	19464
902.735	19578
902.854	19499
902.973	19453
903.091	19209
903.21	19145
903.328	19152
903.446	19110
903.565	18932
903.683	19057
903.801	18840
903.919	18962
904.038	18958
904.156	18776
904.274	18821
904.392	18715
904.51	18734
904.627	18715
904.745	18829
904.863	18768
904.981	18585
905.098	18456
905.216	18403
905.334	18528
905.451	18361
905.569	18384
905.686	18513
905.803	18471
905.921	18262
906.038	18369
906.155	18216
906.272	17969
906.389	18133
906.506	17935
906.623	17999
906.74	17794
906.857	17897
906.974	17836
907.091	17980
907.208	18102
907.324	17889
907.441	17893
907.557	17684
907.674	17699
907.79	17653
907.907	17543
908.023	17695
908.139	17672
908.256	17638
908.372	17573
908.488	17478
908.604	17353
908.72	17299
908.836	17395
908.952	17376
909.068	17448
909.184	17577
909.3	17292
909.415	17341
909.531	17307
909.647	17117
909.762	16961
909.878	16961
909.993	17064
910.108	17003
910.224	16919
910.339	17155
910.454	16877
910.57	16778
910.685	16793
910.8	17121
910.915	17006
911.03	16850
911.145	16694
911.259	16611
911.374	16660
911.489	16626
911.604	16531
911.718	16287
911.833	16398
911.947	16352
912.062	16238
912.176	16489
912.291	16379
912.405	16451
912.519	16596
912.633	16542
912.748	16421
912.862	16379
912.976	16344
913.09	16105
913.204	16158
913.318	16207
913.431	16322
913.545	16226
913.659	16196
913.772	16162
913.886	16071
914	16032
914.113	16124
914.226	16097
914.34	16010
914.453	15857
914.566	15918
914.68	15842
914.793	15888
914.906	15667
915.019	15572
915.132	15641
915.245	15591
915.358	15507
915.47	15614
915.583	15515
915.696	15572
915.809	15732
915.921	15644
916.034	15545
916.146	15477
916.259	15443
916.371	15568
916.483	15458
916.595	15408
916.708	15420
916.82	15386
916.932	15329
917.044	15397
917.156	15302
917.268	15222
917.38	15336
917.491	15207
917.603	15245
917.715	15287
917.826	15321
917.938	15230
918.049	15036
918.161	15116
918.272	15340
918.384	15226
918.495	15131
918.606	15077
918.717	14933
918.828	15104
918.939	15047
919.05	14906
919.161	15062
919.272	14716
919.383	14853
919.494	14982
919.604	15123
919.715	14918
919.826	14853
919.936	14861
920.047	15043
920.157	14952
920.267	15142
920.378	14933
920.488	14918
920.598	15100
920.708	15169
920.818	14990
920.928	15009
921.038	15252
921.148	15211
921.258	14800
921.368	14796
921.477	14587
921.587	14678
921.697	14499
921.806	14686
921.916	14469
922.025	14374
922.134	14282
922.244	14256
922.353	14286
922.462	14172
922.571	14153
922.68	13963
922.789	13936
922.898	14001
923.007	13898
923.116	13989
923.224	13940
923.333	13814
923.442	13727
923.55	13632
923.659	13708
923.767	13826
923.876	13662
923.984	13776
924.092	13544
924.201	13666
924.309	13658
924.417	13651
924.525	13620
924.633	13540
924.741	14438
924.849	13407
924.956	13499
925.064	13365
925.172	13301
925.279	13343
925.387	13324
925.494	13343
925.602	13487
925.709	13381
925.816	13289
925.924	13274
926.031	13297
926.138	13301
926.245	13240
926.352	13084
926.459	13343
926.566	13343
926.673	13206
926.779	13122
926.886	13015
926.993	12928
927.099	12875
927.206	12787
927.312	12783
927.419	12935
927.525	12863
927.631	12810
927.737	12738
927.843	12730
927.95	12597
928.056	12662
928.162	12719
928.267	12760
928.373	13346
928.479	12703
928.585	12479
928.69	12551
928.796	12677
928.901	12540
929.007	12445
929.112	12506
929.218	12475
929.323	12433
929.428	12407
929.533	12506
929.638	12414
929.743	12319
929.848	12380
929.953	12426
930.058	12330
930.163	12098
930.267	12064
930.372	12235
930.477	12076
930.581	12262
930.685	12095
930.79	11973
930.894	12015
930.998	11920
931.103	12034
931.207	11767
931.311	11722
931.415	11600
931.519	11376
931.623	11261
