Data from test_V78500241_3622.txt Node
Date: Fri Mar 25 16:06:53 CST 2022
User: usil
Spectrometer: V785-0024
Trigger mode: 0
Integration Time (sec): 4.000000E-1
Scans to average: 1
Nonlinearity correction enabled: false
Boxcar width: 0
Storing dark spectrum: false
XAxis mode: Wavelengths
Number of Pixels in Spectrum: 1024
>>>>>Begin Spectral Data<<<<<
801.071	28744
801.214	28729
801.356	28512
801.499	28470
801.641	28440
801.783	28413
801.926	28485
802.068	28379
802.211	28409
802.353	28226
802.496	27914
802.638	28162
802.78	28139
802.923	27998
803.065	27983
803.208	27972
803.35	28036
803.492	28295
803.635	28265
803.777	28109
803.919	28421
804.061	28542
804.204	28390
804.346	28310
804.488	28207
804.63	28234
804.773	28318
804.915	28367
805.057	28443
805.199	28246
805.341	28451
805.483	28466
805.626	28443
805.768	28352
805.91	28466
806.052	28512
806.194	28462
806.336	28702
806.478	28390
806.62	28523
806.762	28565
806.904	28805
807.046	29010
807.188	28900
807.33	29041
807.472	29033
807.614	28934
807.756	28995
807.898	28782
808.04	28611
808.182	28675
808.324	28885
808.465	28843
808.607	29086
808.749	29189
808.891	29265
809.033	29284
809.174	29307
809.316	29231
809.458	29124
809.6	29121
809.741	29284
809.883	29311
810.025	29619
810.166	29429
810.308	29512
810.45	29364
810.591	29246
810.733	29231
810.875	29117
811.016	29132
811.158	29102
811.299	29345
811.441	29231
811.582	29318
811.724	29227
811.865	29299
812.007	29220
812.148	29277
812.29	29216
812.431	29303
812.573	29505
812.714	29554
812.855	29718
812.997	29889
813.138	29912
813.279	29897
813.421	29923
813.562	29611
813.703	29604
813.845	29486
813.986	29071
814.127	28835
814.268	28839
814.41	28904
814.551	28938
814.692	28869
814.833	28904
814.974	28976
815.115	28885
815.256	28835
815.397	28634
815.539	28847
815.68	28755
815.821	28698
815.962	28790
816.103	28797
816.244	28550
816.385	28508
816.526	28382
816.666	28242
816.807	28443
816.948	28314
817.089	28401
817.23	28185
817.371	28173
817.512	28261
817.653	28257
817.793	28234
817.934	28059
818.075	28322
818.216	28253
818.356	28192
818.497	28192
818.638	27949
818.778	28006
818.919	28055
819.06	28036
819.2	28280
819.341	28230
819.481	28261
819.622	28409
819.762	28497
819.903	28432
820.043	28398
820.184	28489
820.324	28363
820.465	28348
820.605	28409
820.746	28344
820.886	28185
821.026	28455
821.167	28291
821.307	28200
821.447	28276
821.588	28093
821.728	28067
821.868	27937
822.008	27660
822.149	27720
822.289	27736
822.429	27370
822.569	27477
822.709	27249
822.849	27378
822.99	27306
823.13	27211
823.27	27036
823.41	27135
823.55	26971
823.69	27001
823.83	27116
823.97	26960
824.11	26910
824.25	26895
824.389	26918
824.529	26910
824.669	26876
824.809	26975
824.949	26963
825.089	26880
825.228	26887
825.368	26815
825.508	26727
825.648	26659
825.787	26804
825.927	26800
826.067	26777
826.206	26804
826.346	26773
826.485	26731
826.625	26933
826.765	26887
826.904	26727
827.044	26568
827.183	26507
827.323	26343
827.462	26564
827.601	26503
827.741	26442
827.88	26533
828.02	26393
828.159	26530
828.298	26427
828.437	26503
828.577	26389
828.716	26636
828.855	26396
828.994	26157
829.134	26336
829.273	26233
829.412	26221
829.551	26092
829.69	26187
829.829	26263
829.968	26256
830.107	26180
830.246	26210
830.385	26069
830.524	26107
830.663	25898
830.802	25913
830.941	25696
831.08	25715
831.219	25852
831.357	25788
831.496	26092
831.635	25677
831.774	25616
831.913	25571
832.051	25540
832.19	25483
832.329	25559
832.467	25430
832.606	25365
832.744	25354
832.883	25396
833.022	25365
833.16	25563
833.299	25548
833.437	25537
833.576	25510
833.714	25453
833.852	25594
833.991	25369
834.129	25616
834.267	25704
834.406	25453
834.544	25487
834.682	25476
834.821	25460
834.959	25693
835.097	25525
835.235	25472
835.373	25346
835.511	25537
835.65	25407
835.788	25483
835.926	25381
836.064	25069
836.202	25251
836.34	25358
836.478	25304
836.615	25160
836.753	25373
836.891	25304
837.029	25297
837.167	25198
837.305	25175
837.443	25209
837.58	25088
837.718	25377
837.856	25259
837.993	25034
838.131	25160
838.269	25019
838.406	25023
838.544	24951
838.681	24745
838.819	24764
838.956	24593
839.094	24604
839.231	24654
839.369	24776
839.506	24966
839.643	25012
839.781	24642
839.918	24620
840.055	24563
840.193	24601
840.33	24544
840.467	24517
840.604	24635
840.742	24840
840.879	24372
841.016	24380
841.153	24429
841.29	24616
841.427	24513
841.564	24582
841.701	24437
841.838	24448
841.975	24486
842.112	24505
842.249	24365
842.385	24159
842.522	24384
842.659	24418
842.796	24292
842.933	24266
843.069	24270
843.206	24167
843.343	24414
843.479	24330
843.616	24262
843.752	24197
843.889	24091
844.025	24224
844.162	24049
844.298	24163
844.435	24102
844.571	24106
844.708	24144
844.844	24296
844.98	24235
845.117	24190
845.253	24064
845.389	23851
845.525	24117
845.661	23843
845.798	23798
845.934	23870
846.07	23741
846.206	23733
846.342	23901
846.478	23745
846.614	23592
846.75	23512
846.886	23505
847.022	23585
847.158	23535
847.294	23668
847.429	23577
847.565	23410
847.701	23703
847.837	23128
847.972	23181
848.108	23231
848.244	23288
848.379	23185
848.515	23086
848.65	23098
848.786	23037
848.921	23178
849.057	23083
849.192	23185
849.328	23124
849.463	23166
849.598	23117
849.734	23003
849.869	23006
850.004	22835
850.14	22869
850.275	22820
850.41	22854
850.545	22847
850.68	22801
850.815	22889
850.95	22858
851.085	23098
851.22	22938
851.355	22801
851.49	22839
851.625	22828
851.76	22744
851.895	22706
852.03	22824
852.165	22786
852.299	22854
852.434	22930
852.569	22755
852.703	22835
852.838	22984
852.973	22946
853.107	22889
853.242	22809
853.376	22744
853.511	22615
853.645	22615
853.78	22755
853.914	22710
854.048	22630
854.183	22702
854.317	22824
854.451	22820
854.585	22771
854.72	22607
854.854	22755
854.988	22641
855.122	22588
855.256	22504
855.39	22675
855.524	22793
855.658	22755
855.792	22706
855.926	22584
856.06	22634
856.194	22763
856.327	22706
856.461	22569
856.595	22508
856.729	22683
856.862	22649
856.996	22687
857.13	22866
857.263	22771
857.397	22782
857.53	22611
857.664	22740
857.797	22782
857.931	22824
858.064	22580
858.197	22755
858.331	22782
858.464	22672
858.597	22607
858.731	22588
858.864	22687
858.997	22573
859.13	22691
859.263	22603
859.396	22691
859.529	22672
859.662	22557
859.795	22675
859.928	22744
860.061	22850
860.194	22873
860.327	22611
860.46	22725
860.592	22790
860.725	22900
860.858	22683
860.99	22641
861.123	22580
861.256	22634
861.388	22691
861.521	23448
861.653	22474
861.786	22409
861.918	22413
862.05	22554
862.183	22569
862.315	22493
862.447	22778
862.58	22455
862.712	22413
862.844	22379
862.976	22554
863.108	22417
863.24	22847
863.372	22322
863.504	22474
863.636	22421
863.768	22443
863.9	22310
864.032	22249
864.164	22360
864.296	22363
864.428	22409
864.559	22481
864.691	22379
864.823	22470
864.954	22219
865.086	22284
865.217	22341
865.349	22272
865.48	22211
865.612	22246
865.743	22348
865.875	22253
866.006	22166
866.137	22192
866.269	22185
866.4	22226
866.531	22105
866.662	22162
866.793	22059
866.924	22162
867.055	22303
867.186	22154
867.317	22131
867.448	22082
867.579	22147
867.71	22070
867.841	22169
867.972	22139
868.103	22093
868.233	22162
868.364	22112
868.495	22295
868.625	22360
868.756	22451
868.886	22295
869.017	22470
869.147	22455
869.278	22542
869.408	22523
869.539	22409
869.669	22538
869.799	22565
869.929	22398
870.06	22615
870.19	22790
870.32	22660
870.45	22759
870.58	22869
870.71	22786
870.84	22968
870.97	22805
871.1	22820
871.23	22976
871.36	22908
871.489	22782
871.619	22957
871.749	23159
871.879	23246
872.008	23223
872.138	23090
872.267	23003
872.397	22881
872.526	22797
872.656	22812
872.785	22824
872.915	23029
873.044	23117
873.173	23006
873.303	22908
873.432	23136
873.561	23216
873.69	23044
873.819	23033
873.948	23166
874.077	23105
874.206	22999
874.335	22999
874.464	23280
874.593	23239
874.722	23124
874.851	23261
874.979	23132
875.108	23330
875.237	23128
875.365	23155
875.494	23220
875.623	23341
875.751	23204
875.88	23315
876.008	23303
876.136	23471
876.265	23642
876.393	23786
876.521	23699
876.65	23760
876.778	23627
876.906	23509
877.034	23699
877.162	23535
877.29	23566
877.418	23577
877.546	23539
877.674	23668
877.802	23562
877.93	23661
878.058	23566
878.185	23433
878.313	23467
878.441	23577
878.568	23558
878.696	23448
878.824	23783
878.951	23737
879.079	23866
879.206	23988
879.333	23680
879.461	23638
879.588	23691
879.715	23779
879.842	23897
879.97	23821
880.097	23516
880.224	23425
880.351	23360
880.478	23463
880.605	23337
880.732	23414
880.859	23649
880.986	23311
881.112	23395
881.239	23239
881.366	23174
881.493	23003
881.619	22995
881.746	22942
881.872	23010
881.999	22915
882.125	22957
882.252	22904
882.378	22923
882.505	22953
882.631	22873
882.757	22626
882.883	22843
883.01	22687
883.136	22607
883.262	22554
883.388	22253
883.514	22736
883.64	22607
883.766	22531
883.892	22497
884.018	22398
884.143	22634
884.269	22561
884.395	22466
884.52	22322
884.646	22284
884.772	22284
884.897	22219
885.023	22215
885.148	22398
885.274	22478
885.399	22333
885.524	22306
885.65	22192
885.775	22299
885.9	22185
886.025	22382
886.15	22265
886.275	22116
886.4	22093
886.525	22356
886.65	22169
886.775	22219
886.9	22398
887.025	22504
887.149	22238
887.274	21960
887.399	22002
887.523	21983
887.648	22013
887.773	21987
887.897	22090
888.021	22013
888.146	21949
888.27	22109
888.395	22097
888.519	22051
888.643	21930
888.767	22067
888.891	21968
889.015	21960
889.139	21960
889.263	21751
889.387	21949
889.511	22055
889.635	21812
889.759	21755
889.883	21755
890.006	21842
890.13	21911
890.254	21793
890.377	21778
890.501	21591
890.624	21435
890.748	21534
890.871	21435
890.995	21481
891.118	21397
891.241	21374
891.364	21435
891.488	21606
891.611	21473
891.734	21313
891.857	21325
891.98	21359
892.103	21313
892.226	21348
892.349	21370
892.471	21173
892.594	21268
892.717	21298
892.839	21199
892.962	21386
893.085	21359
893.207	21222
893.33	21237
893.452	21154
893.575	21218
893.697	21203
893.819	21291
893.941	21386
894.064	21393
894.186	21077
894.308	21112
894.43	21336
894.552	21378
894.674	21302
894.796	21077
894.918	21264
895.04	21165
895.161	21260
895.283	21287
895.405	21154
895.526	21226
895.648	21294
895.769	21256
895.891	21199
896.012	21340
896.134	21268
896.255	21382
896.376	21161
896.498	21279
896.619	21203
896.74	21249
896.861	21332
896.982	21504
897.103	21644
897.224	21481
897.345	21382
897.466	21382
897.587	21462
897.708	21534
897.828	21401
897.949	21439
898.07	21340
898.19	21306
898.311	21580
898.431	21351
898.552	21439
898.672	21405
898.792	21496
898.913	21389
899.033	21389
899.153	21237
899.273	21043
899.393	21104
899.513	21203
899.633	21203
899.753	21138
899.873	21157
899.993	21043
900.113	21146
900.232	21062
900.352	21096
900.472	20902
900.591	20861
900.711	20872
900.83	20845
900.95	20979
901.069	21005
901.189	20773
901.308	20705
901.427	20442
901.546	20499
901.665	20560
901.784	20381
901.904	20362
902.023	20210
902.141	20134
902.26	20084
902.379	20035
902.498	19955
902.617	19974
902.735	20001
902.854	19989
902.973	19955
903.091	19624
903.21	19674
903.328	19689
903.446	19567
903.565	19510
903.683	19377
903.801	19365
903.919	19354
904.038	19453
904.156	19190
904.274	19274
904.392	19179
904.51	19236
904.627	19084
904.745	19263
904.863	19270
904.981	18989
905.098	18833
905.216	18852
905.334	18852
905.451	18973
905.569	18753
905.686	18829
905.803	18848
905.921	18631
906.038	18677
906.155	18764
906.272	18509
906.389	18525
906.506	18350
906.623	18486
906.74	18365
906.857	18311
906.974	18232
907.091	18456
907.208	18403
907.324	18418
907.441	18254
907.557	18110
907.674	18091
907.79	17977
907.907	18121
908.023	18167
908.139	18022
908.256	18038
908.372	18053
908.488	17916
908.604	17916
908.72	17729
908.836	17737
908.952	17764
909.068	17790
909.184	17847
909.3	17866
909.415	17817
909.531	17771
909.647	17596
909.762	17490
909.878	17566
909.993	17459
910.108	17478
910.224	17516
910.339	17505
910.454	17391
910.57	17284
910.685	17223
910.8	17543
910.915	17414
911.03	17246
911.145	17075
911.259	17098
911.374	17064
911.489	17041
911.604	16919
911.718	16816
911.833	16843
911.947	16835
912.062	16641
912.176	16843
912.291	16790
912.405	16828
912.519	16908
912.633	16995
912.748	16869
912.862	16713
912.976	16573
913.09	16478
913.204	16554
913.318	16713
913.431	16801
913.545	16592
913.659	16656
913.772	16580
913.886	16489
914	16386
914.113	16580
914.226	16554
914.34	16386
914.453	16352
914.566	16462
914.68	16329
914.793	16242
914.906	16078
915.019	16032
915.132	15975
915.245	15945
915.358	15975
915.47	15987
915.583	16032
915.696	16078
915.809	16006
915.921	16101
916.034	15934
916.146	15831
916.259	15842
916.371	15998
916.483	16002
916.595	15797
916.708	15819
916.82	15778
916.932	15762
917.044	15755
917.156	15709
917.268	15736
917.38	15595
917.491	15637
917.603	15591
917.715	15705
917.826	15564
917.938	15591
918.049	15458
918.161	15549
918.272	15599
918.384	15652
918.495	15462
918.606	15401
918.717	15287
918.828	15325
918.939	15401
919.05	15374
919.161	15184
919.272	15112
919.383	15218
919.494	15302
919.604	15500
919.715	15279
919.826	15252
919.936	15211
920.047	15291
920.157	15279
920.267	15454
920.378	15355
920.488	15233
920.598	15477
920.708	15500
920.818	15382
920.928	15420
921.038	15606
921.148	15466
921.258	15135
921.368	15199
921.477	15051
921.587	15009
921.697	14899
921.806	15043
921.916	14872
922.025	14659
922.134	14651
922.244	14564
922.353	14735
922.462	14434
922.571	14461
922.68	14336
922.789	14317
922.898	14259
923.007	14252
923.116	14282
923.224	14237
923.333	14172
923.442	14092
923.55	14096
923.659	14111
923.767	14149
923.876	14065
923.984	14081
924.092	13944
924.201	14062
924.309	14043
924.417	13982
924.525	13890
924.633	13940
924.741	14842
924.849	13670
924.956	13909
925.064	13719
925.172	13613
925.279	13605
925.387	13681
925.494	13616
925.602	13708
925.709	13651
925.816	13514
925.924	13506
926.031	13636
926.138	13582
926.245	13639
926.352	13525
926.459	13601
926.566	13643
926.673	13616
926.779	13457
926.886	13381
926.993	13270
927.099	13244
927.206	13198
927.312	13244
927.419	13270
927.525	13301
927.631	13221
927.737	13046
927.843	13057
927.95	12951
928.056	12943
928.162	12962
928.267	13141
928.373	13658
928.479	13053
928.585	12829
928.69	12924
928.796	13008
928.901	12848
929.007	12681
929.112	12867
929.218	12829
929.323	12730
929.428	12745
929.533	12924
929.638	12623
929.743	12757
929.848	12738
929.953	12620
930.058	12551
930.163	12357
930.267	12426
930.372	12544
930.477	12327
930.581	12601
930.685	12357
930.79	12270
930.894	12216
930.998	12266
931.103	12300
931.207	11988
931.311	11923
931.415	11668
931.519	11581
931.623	11543
