Data from test_V78500241_851.txt Node
Date: Fri Mar 25 15:47:41 CST 2022
User: usil
Spectrometer: V785-0024
Trigger mode: 0
Integration Time (sec): 4.000000E-1
Scans to average: 1
Nonlinearity correction enabled: false
Boxcar width: 0
Storing dark spectrum: false
XAxis mode: Wavelengths
Number of Pixels in Spectrum: 1024
>>>>>Begin Spectral Data<<<<<
801.071	27466
801.214	27374
801.356	27146
801.499	26948
801.641	26902
801.783	26986
801.926	27047
802.068	26967
802.211	26883
802.353	26929
802.496	26697
802.638	26606
802.78	26495
802.923	26625
803.065	26613
803.208	26678
803.35	26571
803.492	26750
803.635	26788
803.777	26705
803.919	26807
804.061	27146
804.204	26910
804.346	26689
804.488	26579
804.63	26689
804.773	26712
804.915	26750
805.057	26940
805.199	26765
805.341	26963
805.483	26956
805.626	26940
805.768	26807
805.91	26883
806.052	26906
806.194	26895
806.336	26956
806.478	26880
806.62	26944
806.762	27100
806.904	27222
807.046	27469
807.188	27386
807.33	27344
807.472	27283
807.614	27313
807.756	27329
807.898	27184
808.04	26990
808.182	27085
808.324	27222
808.465	27093
808.607	27351
808.749	27447
808.891	27534
809.033	27641
809.174	27633
809.316	27511
809.458	27614
809.6	27496
809.741	27641
809.883	27682
810.025	27827
810.166	27694
810.308	27789
810.45	27759
810.591	27838
810.733	27519
810.875	27412
811.016	27523
811.158	27595
811.299	27698
811.441	27766
811.582	27705
811.724	27583
811.865	27580
812.007	27583
812.148	27576
812.29	27568
812.431	27698
812.573	27728
812.714	27964
812.855	28021
812.997	28120
813.138	28169
813.279	28063
813.421	28158
813.562	27934
813.703	27842
813.845	27880
813.986	27416
814.127	27359
814.268	27214
814.41	27310
814.551	27112
814.692	27279
814.833	27089
814.974	27062
815.115	27169
815.256	27123
815.397	27036
815.539	27100
815.68	26853
815.821	26876
815.962	26906
816.103	26937
816.244	27024
816.385	26750
816.526	26819
816.666	26651
816.807	26427
816.948	26590
817.089	26537
817.23	26568
817.371	26423
817.512	26579
817.653	26503
817.793	26324
817.934	26613
818.075	26488
818.216	26495
818.356	26362
818.497	26339
818.638	26161
818.778	26366
818.919	26244
819.06	26355
819.2	26305
819.341	26450
819.481	26358
819.622	26686
819.762	26887
819.903	26648
820.043	26602
820.184	26511
820.324	26602
820.465	26651
820.605	26495
820.746	26514
820.886	26484
821.026	26450
821.167	26484
821.307	26533
821.447	26446
821.588	26442
821.728	26317
821.868	26092
822.008	25902
822.149	26039
822.289	25932
822.429	25628
822.569	25662
822.709	25738
822.849	25525
822.99	25403
823.13	25483
823.27	25392
823.41	25247
823.55	25179
823.69	25327
823.83	25350
823.97	25225
824.11	25080
824.25	25046
824.389	25012
824.529	25213
824.669	25099
824.809	25160
824.949	25301
825.089	25228
825.228	25217
825.368	24928
825.508	24939
825.648	24901
825.787	24928
825.927	25076
826.067	24992
826.206	24962
826.346	24886
826.485	24970
826.625	24878
826.765	25080
826.904	24951
827.044	24757
827.183	24760
827.323	24597
827.462	24768
827.601	24544
827.741	24726
827.88	24620
828.02	24616
828.159	24502
828.298	24677
828.437	24795
828.577	24585
828.716	24760
828.855	24639
828.994	24372
829.134	24407
829.273	24334
829.412	24403
829.551	24247
829.69	24471
829.829	24334
829.968	24460
830.107	24323
830.246	24407
830.385	24330
830.524	24216
830.663	24060
830.802	24072
830.941	24049
831.08	23912
831.219	24068
831.357	24110
831.496	24220
831.635	24034
831.774	23764
831.913	23802
832.051	23817
832.19	23665
832.329	23824
832.467	23627
832.606	23589
832.744	23573
832.883	23661
833.022	23501
833.16	23676
833.299	23642
833.437	23752
833.576	23710
833.714	23703
833.852	23718
833.991	23718
834.129	23893
834.267	23836
834.406	23824
834.544	23748
834.682	23783
834.821	23627
834.959	23802
835.097	23562
835.235	23722
835.373	23726
835.511	23600
835.65	23505
835.788	23611
835.926	23478
836.064	23406
836.202	23330
836.34	23573
836.478	23551
836.615	23516
836.753	23535
836.891	23703
837.029	23566
837.167	23425
837.305	23471
837.443	23414
837.58	23368
837.718	23429
837.856	23414
837.993	23364
838.131	23379
838.269	23337
838.406	23246
838.544	23178
838.681	23018
838.819	23086
838.956	22828
839.094	22862
839.231	22820
839.369	23105
839.506	23345
839.643	23128
839.781	22812
839.918	22763
840.055	22797
840.193	22881
840.33	22885
840.467	22691
840.604	22736
840.742	23162
840.879	22599
841.016	22835
841.153	22812
841.29	22812
841.427	22927
841.564	22759
841.701	22904
841.838	22752
841.975	22702
842.112	22706
842.249	22550
842.385	22626
842.522	22694
842.659	22649
842.796	22443
842.933	22557
843.069	22470
843.206	22379
843.343	22573
843.479	22573
843.616	22443
843.752	22272
843.889	22363
844.025	22363
844.162	22360
844.298	22348
844.435	22230
844.571	22329
844.708	22493
844.844	22440
844.98	22512
845.117	22382
845.253	22322
845.389	22158
845.525	22169
845.661	22192
845.798	21876
845.934	22143
846.07	21972
846.206	22074
846.342	22109
846.478	22010
846.614	21873
846.75	21637
846.886	21705
847.022	21755
847.158	21785
847.294	21736
847.429	21793
847.565	21789
847.701	21972
847.837	21450
847.972	21500
848.108	21610
848.244	21701
848.379	21431
848.515	21458
848.65	21325
848.786	21454
848.921	21393
849.057	21473
849.192	21599
849.328	21317
849.463	21412
849.598	21325
849.734	21344
849.869	21313
850.004	21211
850.14	21199
850.275	21108
850.41	21062
850.545	21161
850.68	21096
850.815	21127
850.95	21074
851.085	21260
851.22	21298
851.355	21150
851.49	21043
851.625	21077
851.76	21081
851.895	21081
852.03	21077
852.165	21184
852.299	21199
852.434	21180
852.569	21112
852.703	21157
852.838	21268
852.973	21351
853.107	21363
853.242	21157
853.376	21051
853.511	20796
853.645	21024
853.78	21055
853.914	20914
854.048	20982
854.183	20891
854.317	20891
854.451	21180
854.585	21032
854.72	20902
854.854	21089
854.988	20975
855.122	20979
855.256	20861
855.39	20891
855.524	21074
855.658	21051
855.792	21058
855.926	20982
856.06	21123
856.194	21108
856.327	21005
856.461	20967
856.595	20899
856.729	21009
856.862	21043
856.996	21024
857.13	21020
857.263	21169
857.397	20982
857.53	21085
857.664	21001
857.797	21146
857.931	21214
858.064	20864
858.197	20979
858.331	20929
858.464	20963
858.597	20899
858.731	20967
858.864	21020
858.997	20918
859.13	21058
859.263	21032
859.396	21100
859.529	20971
859.662	20868
859.795	21005
859.928	20944
860.061	20975
860.194	21176
860.327	21020
860.46	20986
860.592	21074
860.725	21203
860.858	21024
860.99	20998
861.123	21017
861.256	21024
861.388	20952
861.521	21610
861.653	20887
861.786	20811
861.918	20834
862.05	20868
862.183	20899
862.315	20910
862.447	20971
862.58	20849
862.712	20739
862.844	20564
862.976	20899
863.108	20705
863.24	21214
863.372	20651
863.504	20644
863.636	20632
863.768	20720
863.9	20773
864.032	20587
864.164	20617
864.296	20648
864.428	20826
864.559	20746
864.691	20769
864.823	20678
864.954	20796
865.086	20689
865.217	20625
865.349	20503
865.48	20670
865.612	20594
865.743	20883
865.875	20484
866.006	20511
866.137	20632
866.269	20644
866.4	20640
866.531	20541
866.662	20511
866.793	20450
866.924	20606
867.055	20602
867.186	20613
867.317	20537
867.448	20480
867.579	20442
867.71	20465
867.841	20469
867.972	20450
868.103	20484
868.233	20594
868.364	20579
868.495	20689
868.625	20750
868.756	20876
868.886	20632
869.017	20720
869.147	20769
869.278	20731
869.408	20830
869.539	20872
869.669	20887
869.799	20891
869.929	20902
870.06	20952
870.19	21055
870.32	21119
870.45	21096
870.58	21325
870.71	21279
870.84	21264
870.97	21313
871.1	21104
871.23	21378
871.36	21439
871.489	21298
871.619	21340
871.749	21424
871.879	21496
872.008	21511
872.138	21332
872.267	21294
872.397	21233
872.526	21199
872.656	21268
872.785	21154
872.915	21458
873.044	21367
873.173	21477
873.303	21504
873.432	21492
873.561	21450
873.69	21302
873.819	21412
873.948	21466
874.077	21534
874.206	21397
874.335	21378
874.464	21496
874.593	21762
874.722	21667
874.851	21743
874.979	21603
875.108	21690
875.237	21622
875.365	21450
875.494	21454
875.623	21622
875.751	21648
875.88	21641
876.008	21713
876.136	21861
876.265	21998
876.393	22074
876.521	22055
876.65	22120
876.778	21979
876.906	21975
877.034	22109
877.162	22074
877.29	21953
877.418	22048
877.546	21964
877.674	21983
877.802	22021
877.93	22010
878.058	21895
878.185	21899
878.313	21987
878.441	21918
878.568	21709
878.696	21892
878.824	21972
878.951	21953
879.079	22177
879.206	22333
879.333	22101
879.461	22109
879.588	22010
879.715	22105
879.842	22173
879.97	22097
880.097	21755
880.224	21660
880.351	21793
880.478	21778
880.605	21755
880.732	21812
880.859	22017
880.986	21800
881.112	21876
881.239	21736
881.366	21496
881.493	21435
881.619	21408
881.746	21435
881.872	21416
881.999	21359
882.125	21351
882.252	21340
882.378	21321
882.505	21439
882.631	21237
882.757	21131
882.883	21230
883.01	21058
883.136	21116
883.262	20994
883.388	21055
883.514	21112
883.64	20994
883.766	21047
883.892	20933
884.018	20986
884.143	21085
884.269	21184
884.395	20807
884.52	20697
884.646	20765
884.772	20651
884.897	20686
885.023	20651
885.148	20853
885.274	20887
885.399	20765
885.524	20689
885.65	20758
885.775	20693
885.9	20750
886.025	20944
886.15	20754
886.275	20678
886.4	20571
886.525	20727
886.65	20670
886.775	20625
886.9	20765
887.025	20883
887.149	20613
887.274	20461
887.399	20419
887.523	20499
887.648	20423
887.773	20431
887.897	20575
888.021	20568
888.146	20537
888.27	20678
888.395	20590
888.519	20495
888.643	20545
888.767	20503
888.891	20412
889.015	20339
889.139	20210
889.263	20282
889.387	20358
889.511	20434
889.635	20317
889.759	20347
889.883	20233
890.006	20324
890.13	20457
890.254	20263
890.377	20157
890.501	20073
890.624	20031
890.748	20039
890.871	20008
890.995	19852
891.118	19845
891.241	19890
891.364	19845
891.488	19997
891.611	19883
891.734	19830
891.857	19883
891.98	19951
892.103	19974
892.226	19860
892.349	19860
892.471	19693
892.594	19708
892.717	19871
892.839	19826
892.962	19883
893.085	19830
893.207	19784
893.33	19563
893.452	19620
893.575	19887
893.697	19696
893.819	19947
893.941	19978
894.064	19997
894.186	19738
894.308	19727
894.43	19913
894.552	19928
894.674	19864
894.796	19696
894.918	19795
895.04	19795
895.161	19830
895.283	19909
895.405	19620
895.526	19860
895.648	19871
895.769	19788
895.891	19811
896.012	19928
896.134	19841
896.255	19696
896.376	19917
896.498	19769
896.619	19795
896.74	19944
896.861	19830
896.982	20168
897.103	20172
897.224	20073
897.345	19947
897.466	20084
897.587	19993
897.708	20157
897.828	19978
897.949	20024
898.07	19849
898.19	20027
898.311	20126
898.431	20046
898.552	19997
898.672	20069
898.792	20168
898.913	19989
899.033	19879
899.153	19852
899.273	19795
899.393	19811
899.513	19849
899.633	19761
899.753	19742
899.873	19715
899.993	19902
900.113	19814
900.232	19689
900.352	19742
900.472	19594
900.591	19537
900.711	19544
900.83	19491
900.95	19750
901.069	19533
901.189	19426
901.308	19171
901.427	19194
901.546	19057
901.665	19232
901.784	19129
901.904	19152
902.023	18833
902.141	18856
902.26	18703
902.379	18669
902.498	18730
902.617	18677
902.735	18684
902.854	18692
902.973	18627
903.091	18388
903.21	18479
903.328	18304
903.446	18243
903.565	18087
903.683	18133
903.801	17965
903.919	18201
904.038	17958
904.156	17912
904.274	18083
904.392	17821
904.51	17912
904.627	17908
904.745	17977
904.863	18049
904.981	17703
905.098	17668
905.216	17577
905.334	17680
905.451	17630
905.569	17577
905.686	17577
905.803	17596
905.921	17337
906.038	17528
906.155	17410
906.272	17280
906.389	17303
906.506	17048
906.623	17086
906.74	17124
906.857	16911
906.974	17124
907.091	17056
907.208	17132
907.324	17159
907.441	17029
907.557	16885
907.674	16923
907.79	16805
907.907	16892
908.023	16896
908.139	16850
908.256	16733
908.372	16801
908.488	16691
908.604	16618
908.72	16603
908.836	16485
908.952	16443
909.068	16641
909.184	16615
909.3	16675
909.415	16618
909.531	16653
909.647	16272
909.762	16280
909.878	16246
909.993	16280
910.108	16226
910.224	16112
910.339	16246
910.454	16147
910.57	16078
910.685	16040
910.8	16249
910.915	16177
911.03	16032
911.145	15968
911.259	15842
911.374	15861
911.489	15873
911.604	15808
911.718	15694
911.833	15618
911.947	15530
912.062	15526
912.176	15698
912.291	15629
912.405	15610
912.519	15941
912.633	15743
912.748	15633
912.862	15641
912.976	15515
913.09	15336
913.204	15450
913.318	15526
913.431	15511
913.545	15488
913.659	15492
913.772	15378
913.886	15291
914	15192
914.113	15367
914.226	15428
914.34	15260
914.453	15097
914.566	15252
914.68	15154
914.793	15154
914.906	14914
915.019	14941
915.132	14758
915.245	14876
915.358	14906
915.47	14925
915.583	14826
915.696	14868
915.809	15043
915.921	15001
916.034	14804
916.146	14781
916.259	14708
916.371	14929
916.483	14826
916.595	14655
916.708	14674
916.82	14743
916.932	14651
917.044	14686
917.156	14644
917.268	14511
917.38	14537
917.491	14492
917.603	14545
917.715	14587
917.826	14670
917.938	14499
918.049	14381
918.161	14511
918.272	14621
918.384	14575
918.495	14461
918.606	14240
918.717	14317
918.828	14317
918.939	14298
919.05	14191
919.161	14328
919.272	14062
919.383	14221
919.494	14351
919.604	14564
919.715	14275
919.826	14252
919.936	14271
920.047	14396
920.157	14336
920.267	14518
920.378	14187
920.488	14275
920.598	14450
920.708	14602
920.818	14385
920.928	14427
921.038	14537
921.148	14511
921.258	14278
921.368	14161
921.477	14096
921.587	14081
921.697	13902
921.806	14092
921.916	13826
922.025	13731
922.134	13685
922.244	13655
922.353	13723
922.462	13548
922.571	13544
922.68	13377
922.789	13308
922.898	13240
923.007	13263
923.116	13403
923.224	13270
923.333	13228
923.442	13126
923.55	13126
923.659	13202
923.767	13228
923.876	13027
923.984	13171
924.092	13038
924.201	13088
924.309	13050
924.417	13065
924.525	12989
924.633	12973
924.741	13993
924.849	12901
924.956	12985
925.064	12764
925.172	12722
925.279	12635
925.387	12726
925.494	12665
925.602	12856
925.709	12890
925.816	12650
925.924	12787
926.031	12848
926.138	12711
926.245	12722
926.352	12639
926.459	12821
926.566	12730
926.673	12635
926.779	12517
926.886	12578
926.993	12376
927.099	12388
927.206	12346
927.312	12334
927.419	12369
927.525	12315
927.631	12384
927.737	12205
927.843	12201
927.95	12076
928.056	12121
928.162	12194
928.267	12201
928.373	12837
928.479	12342
928.585	11977
928.69	12136
928.796	12201
928.901	11992
929.007	11923
929.112	12129
929.218	11923
929.323	11904
929.428	11916
929.533	12003
929.638	11843
929.743	11882
929.848	11882
929.953	11802
930.058	11805
930.163	11558
930.267	11710
930.372	11714
930.477	11554
930.581	11745
930.685	11688
930.79	11516
930.894	11509
930.998	11452
931.103	11482
931.207	11204
931.311	11170
931.415	11075
931.519	10900
931.623	10797
