Data from test_V78500241_1064.txt Node
Date: Fri Mar 25 15:49:10 CST 2022
User: usil
Spectrometer: V785-0024
Trigger mode: 0
Integration Time (sec): 4.000000E-1
Scans to average: 1
Nonlinearity correction enabled: false
Boxcar width: 0
Storing dark spectrum: false
XAxis mode: Wavelengths
Number of Pixels in Spectrum: 1024
>>>>>Begin Spectral Data<<<<<
801.071	28150
801.214	28051
801.356	27960
801.499	27857
801.641	27679
801.783	27732
801.926	27709
802.068	27789
802.211	27747
802.353	27644
802.496	27515
802.638	27340
802.78	27279
802.923	27397
803.065	27302
803.208	27386
803.35	27393
803.492	27473
803.635	27507
803.777	27424
803.919	27625
804.061	27785
804.204	27671
804.346	27511
804.488	27526
804.63	27614
804.773	27435
804.915	27660
805.057	27713
805.199	27595
805.341	27880
805.483	27800
805.626	27747
805.768	27663
805.91	27728
806.052	27823
806.194	27682
806.336	27922
806.478	27899
806.62	27724
806.762	27804
806.904	28029
807.046	28223
807.188	28200
807.33	28337
807.472	28272
807.614	28204
807.756	28284
807.898	28135
808.04	28055
808.182	28082
808.324	28188
808.465	28082
808.607	28352
808.749	28280
808.891	28557
809.033	28618
809.174	28637
809.316	28459
809.458	28341
809.6	28386
809.741	28554
809.883	28535
810.025	28706
810.166	28702
810.308	28687
810.45	28687
810.591	28675
810.733	28485
810.875	28394
811.016	28375
811.158	28303
811.299	28626
811.441	28653
811.582	28630
811.724	28401
811.865	28409
812.007	28443
812.148	28382
812.29	28557
812.431	28645
812.573	28736
812.714	28968
812.855	28733
812.997	29166
813.138	29079
813.279	29159
813.421	28968
813.562	29018
813.703	28771
813.845	28725
813.986	28428
814.127	28196
814.268	28173
814.41	28192
814.551	28177
814.692	28211
814.833	27998
814.974	28196
815.115	28188
815.256	28067
815.397	27983
815.539	28086
815.68	27876
815.821	28059
815.962	28150
816.103	28010
816.244	27808
816.385	27694
816.526	27698
816.666	27622
816.807	27526
816.948	27412
817.089	27713
817.23	27462
817.371	27279
817.512	27462
817.653	27351
817.793	27340
817.934	27332
818.075	27542
818.216	27416
818.356	27355
818.497	27313
818.638	27176
818.778	27188
818.919	27275
819.06	27302
819.2	27321
819.341	27386
819.481	27393
819.622	27553
819.762	27713
819.903	27625
820.043	27648
820.184	27561
820.324	27610
820.465	27606
820.605	27561
820.746	27580
820.886	27447
821.026	27580
821.167	27564
821.307	27545
821.447	27545
821.588	27325
821.728	27374
821.868	27055
822.008	27085
822.149	26944
822.289	26811
822.429	26697
822.569	26625
822.709	26568
822.849	26408
822.99	26427
823.13	26320
823.27	26450
823.41	26332
823.55	26221
823.69	26229
823.83	26328
823.97	26183
824.11	26119
824.25	26031
824.389	26046
824.529	26278
824.669	26069
824.809	26233
824.949	26187
825.089	26233
825.228	26084
825.368	25959
825.508	25940
825.648	26092
825.787	25986
825.927	26012
826.067	25947
826.206	26054
826.346	26176
826.485	26005
826.625	25909
826.765	25963
826.904	26115
827.044	25734
827.183	25723
827.323	25681
827.462	25860
827.601	25807
827.741	25639
827.88	25742
828.02	25548
828.159	25700
828.298	25719
828.437	25750
828.577	25548
828.716	25757
828.855	25635
828.994	25362
829.134	25278
829.273	25392
829.412	25266
829.551	25479
829.69	25339
829.829	25419
829.968	25384
830.107	25499
830.246	25304
830.385	25411
830.524	25346
830.663	25156
830.802	25122
830.941	24920
831.08	24992
831.219	25099
831.357	25072
831.496	25217
831.635	24928
831.774	24882
831.913	24817
832.051	24665
832.19	24783
832.329	24848
832.467	24764
832.606	24570
832.744	24620
832.883	24741
833.022	24654
833.16	24608
833.299	24768
833.437	24768
833.576	24585
833.714	24791
833.852	24783
833.991	24673
834.129	24806
834.267	24696
834.406	24798
834.544	24734
834.682	24696
834.821	24764
834.959	24787
835.097	24582
835.235	24867
835.373	24692
835.511	24665
835.65	24677
835.788	24566
835.926	24414
836.064	24308
836.202	24433
836.34	24441
836.478	24597
836.615	24540
836.753	24753
836.891	24620
837.029	24399
837.167	24483
837.305	24517
837.443	24505
837.58	24460
837.718	24418
837.856	24433
837.993	24308
838.131	24266
838.269	24224
838.406	24235
838.544	24216
838.681	23977
838.819	23935
838.956	23863
839.094	23912
839.231	23870
839.369	23980
839.506	24262
839.643	24045
839.781	23870
839.918	23684
840.055	23908
840.193	23843
840.33	23798
840.467	23729
840.604	23733
840.742	24095
840.879	23592
841.016	23741
841.153	23657
841.29	23798
841.427	23809
841.564	23764
841.701	23764
841.838	23668
841.975	23714
842.112	23661
842.249	23604
842.385	23505
842.522	23729
842.659	23558
842.796	23414
842.933	23478
843.069	23448
843.206	23455
843.343	23581
843.479	23478
843.616	23463
843.752	23345
843.889	23318
844.025	23395
844.162	23235
844.298	23379
844.435	23261
844.571	23208
844.708	23299
844.844	23433
844.98	23410
845.117	23330
845.253	23273
845.389	23136
845.525	23155
845.661	23162
845.798	23083
845.934	23041
846.07	23022
846.206	23006
846.342	23117
846.478	23029
846.614	22812
846.75	22778
846.886	22782
847.022	22885
847.158	22850
847.294	22710
847.429	22774
847.565	22626
847.701	22953
847.837	22447
847.972	22474
848.108	22592
848.244	22485
848.379	22462
848.515	22386
848.65	22333
848.786	22276
848.921	22287
849.057	22344
849.192	22303
849.328	22421
849.463	22246
849.598	22291
849.734	22135
849.869	22291
850.004	22070
850.14	22128
850.275	22147
850.41	21934
850.545	22029
850.68	22025
850.815	22101
850.95	22116
851.085	22204
851.22	22215
851.355	22116
851.49	22029
851.625	22086
851.76	22082
851.895	22086
852.03	21930
852.165	22116
852.299	22143
852.434	22181
852.569	22238
852.703	22006
852.838	22265
852.973	22185
853.107	22219
853.242	22158
853.376	21747
853.511	21846
853.645	21876
853.78	21960
853.914	21842
854.048	21930
854.183	21876
854.317	21918
854.451	22181
854.585	21918
854.72	21956
854.854	22105
854.988	21895
855.122	21869
855.256	21766
855.39	21903
855.524	21987
855.658	22021
855.792	21960
855.926	21823
856.06	21934
856.194	22006
856.327	21857
856.461	21793
856.595	21827
856.729	21842
856.862	21975
856.996	21991
857.13	21953
857.263	21956
857.397	22010
857.53	21922
857.664	21998
857.797	22013
857.931	21979
858.064	21960
858.197	22006
858.331	22013
858.464	21865
858.597	21739
858.731	21857
858.864	21880
858.997	21812
859.13	21880
859.263	21899
859.396	21903
859.529	21892
859.662	21941
859.795	21918
859.928	21888
860.061	22036
860.194	22063
860.327	22055
860.46	21778
860.592	22055
860.725	21983
860.858	22002
860.99	21972
861.123	21793
861.256	21895
861.388	21838
861.521	22596
861.653	21823
861.786	21675
861.918	21800
862.05	21747
862.183	21812
862.315	21789
862.447	21937
862.58	21876
862.712	21717
862.844	21587
862.976	21694
863.108	21644
863.24	22101
863.372	21561
863.504	21466
863.636	21705
863.768	21580
863.9	21591
864.032	21507
864.164	21530
864.296	21675
864.428	21690
864.559	21732
864.691	21625
864.823	21587
864.954	21622
865.086	21545
865.217	21504
865.349	21469
865.48	21477
865.612	21515
865.743	21564
865.875	21466
866.006	21447
866.137	21530
866.269	21500
866.4	21538
866.531	21481
866.662	21367
866.793	21435
866.924	21496
867.055	21507
867.186	21355
867.317	21382
867.448	21450
867.579	21466
867.71	21340
867.841	21370
867.972	21466
868.103	21344
868.233	21382
868.364	21504
868.495	21523
868.625	21698
868.756	21778
868.886	21618
869.017	21686
869.147	21762
869.278	21785
869.408	21652
869.539	21591
869.669	21690
869.799	21823
869.929	21774
870.06	21804
870.19	21998
870.32	22090
870.45	22074
870.58	22074
870.71	22200
870.84	22109
870.97	22067
871.1	22093
871.23	22143
871.36	22204
871.489	22124
871.619	22242
871.749	22261
871.879	22257
872.008	22512
872.138	22344
872.267	22200
872.397	22226
872.526	22097
872.656	22112
872.785	22124
872.915	22230
873.044	22352
873.173	22253
873.303	22291
873.432	22386
873.561	22379
873.69	22238
873.819	22219
873.948	22310
874.077	22417
874.206	22303
874.335	22409
874.464	22451
874.593	22318
874.722	22470
874.851	22649
874.979	22569
875.108	22550
875.237	22519
875.365	22508
875.494	22398
875.623	22523
875.751	22485
875.88	22466
876.008	22637
876.136	22626
876.265	22881
876.393	22927
876.521	22980
876.65	22896
876.778	22930
876.906	22812
877.034	22839
877.162	22892
877.29	22744
877.418	22736
877.546	22862
877.674	22869
877.802	22805
877.93	22858
878.058	22828
878.185	22668
878.313	22847
878.441	22835
878.568	22588
878.696	22778
878.824	22896
878.951	22919
879.079	23041
879.206	23094
879.333	23044
879.461	22828
879.588	22976
879.715	22881
879.842	22991
879.97	22843
880.097	22622
880.224	22748
880.351	22694
880.478	22759
880.605	22531
880.732	22717
880.859	22999
880.986	22622
881.112	22649
881.239	22580
881.366	22386
881.493	22337
881.619	22207
881.746	22382
881.872	22219
881.999	22246
882.125	22124
882.252	22169
882.378	22188
882.505	22238
882.631	22124
882.757	21812
882.883	22013
883.01	21994
883.136	21819
883.262	21816
883.388	21797
883.514	21968
883.64	21895
883.766	21949
883.892	21739
884.018	21770
884.143	21876
884.269	21968
884.395	21648
884.52	21591
884.646	21500
884.772	21462
884.897	21485
885.023	21622
885.148	21720
885.274	21728
885.399	21545
885.524	21545
885.65	21580
885.775	21591
885.9	21538
886.025	21633
886.15	21564
886.275	21663
886.4	21420
886.525	21473
886.65	21389
886.775	21538
886.9	21538
887.025	21705
887.149	21473
887.274	21408
887.399	21283
887.523	21344
887.648	21294
887.773	21302
887.897	21351
888.021	21405
888.146	21256
888.27	21473
888.395	21355
888.519	21329
888.643	21325
888.767	21268
888.891	21093
889.015	21070
889.139	21188
889.263	21001
889.387	21283
889.511	21230
889.635	21264
889.759	21013
889.883	21039
890.006	21150
890.13	21218
890.254	20956
890.377	20952
890.501	20777
890.624	20849
890.748	20804
890.871	20758
890.995	20629
891.118	20609
891.241	20788
891.364	20716
891.488	20769
891.611	20556
891.734	20739
891.857	20739
891.98	20609
892.103	20689
892.226	20632
892.349	20606
892.471	20385
892.594	20492
892.717	20674
892.839	20552
892.962	20686
893.085	20701
893.207	20625
893.33	20385
893.452	20609
893.575	20556
893.697	20495
893.819	20693
893.941	20754
894.064	20686
894.186	20442
894.308	20606
894.43	20617
894.552	20648
894.674	20705
894.796	20415
894.918	20560
895.04	20473
895.161	20621
895.283	20568
895.405	20473
895.526	20655
895.648	20514
895.769	20594
895.891	20644
896.012	20552
896.134	20617
896.255	20587
896.376	20568
896.498	20511
896.619	20552
896.74	20655
896.861	20640
896.982	20811
897.103	21039
897.224	20921
897.345	20769
897.466	20701
897.587	20804
897.708	20960
897.828	20807
897.949	20708
898.07	20625
898.19	20686
898.311	20762
898.431	20670
898.552	20834
898.672	20849
898.792	20880
898.913	20781
899.033	20613
899.153	20575
899.273	20537
899.393	20560
899.513	20522
899.633	20469
899.753	20644
899.873	20358
899.993	20560
900.113	20446
900.232	20461
900.352	20343
900.472	20305
900.591	20328
900.711	20256
900.83	20278
900.95	20374
901.069	20332
901.189	20145
901.308	19921
901.427	19769
901.546	19852
901.665	19852
901.784	19833
901.904	19757
902.023	19540
902.141	19453
902.26	19369
902.379	19434
902.498	19343
902.617	19324
902.735	19460
902.854	19251
902.973	19304
903.091	19148
903.21	18981
903.328	19012
903.446	18920
903.565	18920
903.683	18871
903.801	18703
903.919	18916
904.038	18779
904.156	18665
904.274	18661
904.392	18483
904.51	18555
904.627	18555
904.745	18585
904.863	18738
904.981	18372
905.098	18266
905.216	18357
905.334	18319
905.451	18319
905.569	18148
905.686	18315
905.803	18315
905.921	18095
906.038	18102
906.155	18087
906.272	18060
906.389	18026
906.506	17802
906.623	17798
906.74	17767
906.857	17737
906.974	17741
907.091	17817
907.208	17920
907.324	17809
907.441	17752
907.557	17596
907.674	17554
907.79	17436
907.907	17459
908.023	17573
908.139	17547
908.256	17490
908.372	17223
908.488	17326
908.604	17220
908.72	17185
908.836	17102
908.952	17159
909.068	17296
909.184	17368
909.3	17303
909.415	17269
909.531	17227
909.647	16946
909.762	16858
909.878	16850
909.993	16946
910.108	16809
910.224	16881
910.339	16889
910.454	16721
910.57	16664
910.685	16733
910.8	16816
910.915	16862
911.03	16698
911.145	16611
911.259	16508
911.374	16508
911.489	16474
911.604	16394
911.718	16158
911.833	16280
911.947	16120
912.062	16204
912.176	16261
912.291	16409
912.405	16276
912.519	16436
912.633	16402
912.748	16371
912.862	16344
912.976	16158
913.09	15972
913.204	15956
913.318	16010
913.431	16158
913.545	16181
913.659	16147
913.772	15945
913.886	16002
914	15934
914.113	15960
914.226	15960
914.34	15968
914.453	15827
914.566	15861
914.68	15736
914.793	15660
914.906	15576
915.019	15435
915.132	15317
915.245	15610
915.358	15504
915.47	15500
915.583	15466
915.696	15545
915.809	15584
915.921	15500
916.034	15397
916.146	15325
916.259	15306
916.371	15397
916.483	15401
916.595	15268
916.708	15241
916.82	15302
916.932	15249
917.044	15359
917.156	15203
917.268	15032
917.38	15108
917.491	14979
917.603	15070
917.715	15142
917.826	15199
917.938	15043
918.049	14887
918.161	14944
918.272	15157
918.384	15211
918.495	15032
918.606	15009
918.717	14758
918.828	14990
918.939	14838
919.05	14804
919.161	14861
919.272	14625
919.383	14678
919.494	14891
919.604	15100
919.715	14891
919.826	14727
919.936	14807
920.047	14910
920.157	14792
920.267	14929
920.378	14834
920.488	14857
920.598	14982
920.708	15093
920.818	14918
920.928	14910
921.038	15116
921.148	14933
921.258	14788
921.368	14560
921.477	14480
921.587	14526
921.697	14336
921.806	14571
921.916	14396
922.025	14244
922.134	14157
922.244	14161
922.353	14278
922.462	14077
922.571	13913
922.68	13833
922.789	13811
922.898	13852
923.007	13803
923.116	13852
923.224	13753
923.333	13761
923.442	13674
923.55	13651
923.659	13670
923.767	13738
923.876	13601
923.984	13696
924.092	13430
924.201	13502
924.309	13559
924.417	13537
924.525	13506
924.633	13540
924.741	14263
924.849	13217
924.956	13384
925.064	13232
925.172	13160
925.279	13183
925.387	13274
925.494	13289
925.602	13320
925.709	13312
925.816	13088
925.924	13152
926.031	13228
926.138	13187
926.245	13149
926.352	13118
926.459	13175
926.566	13240
926.673	13114
926.779	12943
926.886	12939
926.993	12840
927.099	12760
927.206	12764
927.312	12677
927.419	12856
927.525	12760
927.631	12825
927.737	12639
927.843	12559
927.95	12525
928.056	12536
928.162	12623
928.267	12601
928.373	13122
928.479	12646
928.585	12429
928.69	12555
928.796	12616
928.901	12486
929.007	12369
929.112	12445
929.218	12483
929.323	12399
929.428	12220
929.533	12441
929.638	12285
929.743	12334
929.848	12334
929.953	12289
930.058	12152
930.163	11950
930.267	12022
930.372	12175
930.477	11980
930.581	12125
930.685	12087
930.79	11794
930.894	11946
930.998	11870
931.103	12022
931.207	11680
931.311	11547
931.415	11452
931.519	11277
931.623	11250
