Data from test_V78500241_1060.txt Node
Date: Fri Mar 25 15:49:08 CST 2022
User: usil
Spectrometer: V785-0024
Trigger mode: 0
Integration Time (sec): 4.000000E-1
Scans to average: 1
Nonlinearity correction enabled: false
Boxcar width: 0
Storing dark spectrum: false
XAxis mode: Wavelengths
Number of Pixels in Spectrum: 1024
>>>>>Begin Spectral Data<<<<<
801.071	28067
801.214	28078
801.356	27895
801.499	27686
801.641	27842
801.783	27660
801.926	27648
802.068	27606
802.211	27580
802.353	27488
802.496	27408
802.638	27249
802.78	27260
802.923	27306
803.065	27249
803.208	27108
803.35	27397
803.492	27367
803.635	27641
803.777	27416
803.919	27633
804.061	27736
804.204	27755
804.346	27538
804.488	27538
804.63	27549
804.773	27370
804.915	27485
805.057	27709
805.199	27389
805.341	27599
805.483	27732
805.626	27778
805.768	27622
805.91	27633
806.052	27762
806.194	27549
806.336	27785
806.478	27728
806.62	27751
806.762	27903
806.904	27842
807.046	28173
807.188	28196
807.33	27945
807.472	28051
807.614	28135
807.756	28078
807.898	27960
808.04	27975
808.182	28017
808.324	27846
808.465	28002
808.607	28128
808.749	28333
808.891	28295
809.033	28538
809.174	28466
809.316	28303
809.458	28291
809.6	28287
809.741	28443
809.883	28470
810.025	28656
810.166	28573
810.308	28767
810.45	28706
810.591	28485
810.733	28367
810.875	28318
811.016	28284
811.158	28196
811.299	28531
811.441	28500
811.582	28641
811.724	28284
811.865	28398
812.007	28318
812.148	28287
812.29	28493
812.431	28493
812.573	28679
812.714	28733
812.855	28850
812.997	28995
813.138	29064
813.279	28900
813.421	28930
813.562	28908
813.703	28862
813.845	28523
813.986	28451
814.127	28215
814.268	27964
814.41	28074
814.551	27926
814.692	28090
814.833	28036
814.974	28109
815.115	28078
815.256	27968
815.397	27960
815.539	27903
815.68	27876
815.821	27895
815.962	27838
816.103	27983
816.244	27720
816.385	27591
816.526	27675
816.666	27595
816.807	27348
816.948	27473
817.089	27416
817.23	27420
817.371	27382
817.512	27401
817.653	27336
817.793	27291
817.934	27310
818.075	27294
818.216	27393
818.356	27363
818.497	27173
818.638	26986
818.778	27104
818.919	27074
819.06	27108
819.2	27169
819.341	27481
819.481	27279
819.622	27374
819.762	27755
819.903	27747
820.043	27561
820.184	27427
820.324	27431
820.465	27500
820.605	27549
820.746	27435
820.886	27275
821.026	27466
821.167	27458
821.307	27481
821.447	27355
821.588	27340
821.728	27123
821.868	26994
822.008	26940
822.149	26765
822.289	26819
822.429	26549
822.569	26484
822.709	26507
822.849	26419
822.99	26495
823.13	26415
823.27	26256
823.41	26244
823.55	25936
823.69	26267
823.83	26248
823.97	26180
824.11	25917
824.25	25765
824.389	25921
824.529	26046
824.669	26065
824.809	26168
824.949	26077
825.089	26054
825.228	26092
825.368	25879
825.508	26005
825.648	25883
825.787	25795
825.927	25955
826.067	25925
826.206	25757
826.346	25993
826.485	25917
826.625	25890
826.765	26012
826.904	25902
827.044	25738
827.183	25696
827.323	25628
827.462	25643
827.601	25666
827.741	25658
827.88	25544
828.02	25540
828.159	25411
828.298	25544
828.437	25567
828.577	25506
828.716	25799
828.855	25567
828.994	25263
829.134	25236
829.273	25244
829.412	25255
829.551	25160
829.69	25266
829.829	25240
829.968	25419
830.107	25301
830.246	25228
830.385	25190
830.524	25213
830.663	24985
830.802	24939
830.941	24943
831.08	24810
831.219	25050
831.357	25019
831.496	25080
831.635	24863
831.774	24810
831.913	24658
832.051	24719
832.19	24814
832.329	24738
832.467	24593
832.606	24551
832.744	24334
832.883	24601
833.022	24452
833.16	24551
833.299	24760
833.437	24582
833.576	24597
833.714	24566
833.852	24555
833.991	24578
834.129	24612
834.267	24669
834.406	24566
834.544	24726
834.682	24585
834.821	24570
834.959	24722
835.097	24464
835.235	24719
835.373	24471
835.511	24601
835.65	24616
835.788	24395
835.926	24403
836.064	24239
836.202	24319
836.34	24380
836.478	24544
836.615	24334
836.753	24433
836.891	24559
837.029	24505
837.167	24414
837.305	24327
837.443	24232
837.58	24178
837.718	24369
837.856	24281
837.993	24148
838.131	24140
838.269	24205
838.406	24129
838.544	24022
838.681	23916
838.819	23958
838.956	23809
839.094	23642
839.231	23752
839.369	23950
839.506	24159
839.643	23863
839.781	23703
839.918	23718
840.055	23805
840.193	23619
840.33	23611
840.467	23699
840.604	23760
840.742	23897
840.879	23642
841.016	23649
841.153	23528
841.29	23817
841.427	23638
841.564	23592
841.701	23630
841.838	23562
841.975	23539
842.112	23516
842.249	23360
842.385	23520
842.522	23630
842.659	23349
842.796	23463
842.933	23452
843.069	23231
843.206	23303
843.343	23535
843.479	23414
843.616	23360
843.752	23143
843.889	23197
844.025	23334
844.162	23159
844.298	23235
844.435	23185
844.571	23121
844.708	23136
844.844	23334
844.98	23292
845.117	23337
845.253	23220
845.389	23067
845.525	23048
845.661	22968
845.798	22927
845.934	22900
846.07	22862
846.206	22843
846.342	22866
846.478	22809
846.614	22729
846.75	22546
846.886	22645
847.022	22653
847.158	22641
847.294	22645
847.429	22683
847.565	22618
847.701	22911
847.837	22424
847.972	22322
848.108	22470
848.244	22363
848.379	22276
848.515	22196
848.65	22169
848.786	22135
848.921	22333
849.057	22356
849.192	22204
849.328	22306
849.463	22306
849.598	22166
849.734	22044
849.869	22109
850.004	22063
850.14	21956
850.275	21846
850.41	21934
850.545	22078
850.68	21918
850.815	21956
850.95	21987
851.085	22219
851.22	22032
851.355	21975
851.49	22006
851.625	21926
851.76	22017
851.895	21892
852.03	21857
852.165	21949
852.299	21956
852.434	21998
852.569	22067
852.703	22067
852.838	22150
852.973	22097
853.107	22097
853.242	21941
853.376	21842
853.511	21690
853.645	21819
853.78	21956
853.914	21816
854.048	21732
854.183	21789
854.317	21816
854.451	21945
854.585	21797
854.72	21816
854.854	21895
854.988	21793
855.122	21835
855.256	21736
855.39	21759
855.524	21892
855.658	21827
855.792	21816
855.926	21747
856.06	21770
856.194	21846
856.327	21759
856.461	21743
856.595	21759
856.729	21922
856.862	21823
856.996	21884
857.13	21937
857.263	21774
857.397	21911
857.53	21709
857.664	21918
857.797	21949
857.931	21994
858.064	21785
858.197	21892
858.331	21850
858.464	21694
858.597	21751
858.731	21732
858.864	21736
858.997	21816
859.13	21838
859.263	21732
859.396	21888
859.529	21812
859.662	21766
859.795	21648
859.928	21778
860.061	21968
860.194	21979
860.327	21759
860.46	21789
860.592	21983
860.725	21827
860.858	21884
860.99	21865
861.123	21736
861.256	21709
861.388	21793
861.521	22455
861.653	21648
861.786	21519
861.918	21637
862.05	21682
862.183	21736
862.315	21682
862.447	21842
862.58	21743
862.712	21633
862.844	21469
862.976	21542
863.108	21622
863.24	22059
863.372	21557
863.504	21591
863.636	21545
863.768	21644
863.9	21580
864.032	21447
864.164	21351
864.296	21443
864.428	21728
864.559	21595
864.691	21576
864.823	21481
864.954	21405
865.086	21530
865.217	21370
865.349	21367
865.48	21428
865.612	21469
865.743	21492
865.875	21462
866.006	21367
866.137	21367
866.269	21294
866.4	21310
866.531	21332
866.662	21306
866.793	21249
866.924	21435
867.055	21363
867.186	21416
867.317	21351
867.448	21184
867.579	21256
867.71	21302
867.841	21294
867.972	21355
868.103	21310
868.233	21268
868.364	21325
868.495	21431
868.625	21557
868.756	21663
868.886	21519
869.017	21466
869.147	21694
869.278	21701
869.408	21644
869.539	21580
869.669	21576
869.799	21709
869.929	21736
870.06	21587
870.19	21903
870.32	21842
870.45	21907
870.58	22029
870.71	22109
870.84	22090
870.97	21953
871.1	21994
871.23	22078
871.36	22109
871.489	22086
871.619	22169
871.749	22139
871.879	22242
872.008	22310
872.138	22249
872.267	22143
872.397	22131
872.526	22105
872.656	22025
872.785	21994
872.915	22314
873.044	22333
873.173	22265
873.303	22200
873.432	22226
873.561	22268
873.69	22219
873.819	22276
873.948	22318
874.077	22166
874.206	22150
874.335	22158
874.464	22390
874.593	22497
874.722	22371
874.851	22402
874.979	22386
875.108	22569
875.237	22481
875.365	22280
875.494	22375
875.623	22379
875.751	22325
875.88	22424
876.008	22447
876.136	22527
876.265	22713
876.393	22938
876.521	22889
876.65	22900
876.778	22771
876.906	22782
877.034	22706
877.162	22675
877.29	22774
877.418	22717
877.546	22835
877.674	22873
877.802	22755
877.93	22675
878.058	22774
878.185	22664
878.313	22672
878.441	22725
878.568	22493
878.696	22664
878.824	22873
878.951	22733
879.079	22911
879.206	23037
879.333	22824
879.461	22778
879.588	22858
879.715	22908
879.842	23010
879.97	22816
880.097	22588
880.224	22493
880.351	22740
880.478	22474
880.605	22542
880.732	22504
880.859	22774
880.986	22500
881.112	22607
881.239	22459
881.366	22322
881.493	22185
881.619	22226
881.746	22249
881.872	22204
881.999	22128
882.125	22051
882.252	22120
882.378	21953
882.505	22265
882.631	21945
882.757	21895
882.883	21880
883.01	21831
883.136	21907
883.262	21652
883.388	21652
883.514	21975
883.64	21918
883.766	21713
883.892	21572
884.018	21652
884.143	21804
884.269	21793
884.395	21488
884.52	21542
884.646	21473
884.772	21515
884.897	21287
885.023	21557
885.148	21572
885.274	21545
885.399	21405
885.524	21447
885.65	21488
885.775	21519
885.9	21447
886.025	21469
886.15	21656
886.275	21389
886.4	21336
886.525	21336
886.65	21355
886.775	21496
886.9	21644
887.025	21629
887.149	21519
887.274	21252
887.399	21287
887.523	21230
887.648	21214
887.773	21085
887.897	21294
888.021	21230
888.146	21207
888.27	21256
888.395	21401
888.519	21252
888.643	21203
888.767	21268
888.891	21127
889.015	21199
889.139	21123
889.263	21047
889.387	21036
889.511	21252
889.635	21104
889.759	21001
889.883	21055
890.006	20960
890.13	21119
890.254	20857
890.377	20842
890.501	20910
890.624	20895
890.748	20895
890.871	20743
890.995	20514
891.118	20670
891.241	20644
891.364	20644
891.488	20724
891.611	20663
891.734	20636
891.857	20575
891.98	20640
892.103	20659
892.226	20632
892.349	20511
892.471	20423
892.594	20469
892.717	20549
892.839	20587
892.962	20469
893.085	20480
893.207	20609
893.33	20336
893.452	20450
893.575	20499
893.697	20495
893.819	20549
893.941	20617
894.064	20659
894.186	20423
894.308	20336
894.43	20629
894.552	20686
894.674	20530
894.796	20499
894.918	20427
895.04	20446
895.161	20579
895.283	20495
895.405	20393
895.526	20541
895.648	20507
895.769	20533
895.891	20613
896.012	20518
896.134	20594
896.255	20431
896.376	20522
896.498	20514
896.619	20636
896.74	20381
896.861	20488
896.982	20925
897.103	20963
897.224	20724
897.345	20861
897.466	20632
897.587	20640
897.708	20910
897.828	20746
897.949	20606
898.07	20648
898.19	20663
898.311	20705
898.431	20568
898.552	20697
898.672	20785
898.792	20804
898.913	20697
899.033	20640
899.153	20587
899.273	20351
899.393	20541
899.513	20568
899.633	20286
899.753	20469
899.873	20370
899.993	20461
900.113	20374
900.232	20393
900.352	20267
900.472	20206
900.591	20221
900.711	20161
900.83	20122
900.95	20225
901.069	20286
901.189	20195
901.308	19814
901.427	19738
901.546	19795
901.665	19807
901.784	19788
901.904	19582
902.023	19651
902.141	19384
902.26	19312
902.379	19400
902.498	19343
902.617	19244
902.735	19415
902.854	19282
902.973	19179
903.091	18985
903.21	19034
903.328	18924
903.446	18875
903.565	18787
903.683	18696
903.801	18566
903.919	18791
904.038	18582
904.156	18467
904.274	18525
904.392	18388
904.51	18502
904.627	18483
904.745	18604
904.863	18585
904.981	18292
905.098	18155
905.216	18148
905.334	18251
905.451	18258
905.569	18114
905.686	18270
905.803	18273
905.921	17996
906.038	17954
906.155	18102
906.272	17912
906.389	17882
906.506	17718
906.623	17779
906.74	17760
906.857	17638
906.974	17570
907.091	17798
907.208	17843
907.324	17687
907.441	17509
907.557	17600
907.674	17512
907.79	17368
907.907	17387
908.023	17581
908.139	17410
908.256	17372
908.372	17353
908.488	17318
908.604	17185
908.72	17151
908.836	17265
908.952	17140
909.068	17193
909.184	17246
909.3	17162
909.415	17288
909.531	17242
909.647	16885
909.762	16908
909.878	16904
909.993	16889
910.108	16831
910.224	16805
910.339	16793
910.454	16771
910.57	16550
910.685	16634
910.8	16892
910.915	16831
911.03	16717
911.145	16474
911.259	16382
911.374	16428
911.489	16398
911.604	16287
911.718	16284
911.833	16211
911.947	16105
912.062	15983
912.176	16287
912.291	16253
912.405	16249
912.519	16352
912.633	16329
912.748	16238
912.862	16116
912.976	16135
913.09	15888
913.204	15975
913.318	15998
913.431	16097
913.545	16021
913.659	16032
913.772	15998
913.886	15808
914	15800
914.113	15892
914.226	15899
914.34	15846
914.453	15694
914.566	15823
914.68	15698
914.793	15648
914.906	15466
915.019	15507
915.132	15348
915.245	15420
915.358	15397
915.47	15310
915.583	15420
915.696	15473
915.809	15450
915.921	15580
916.034	15260
916.146	15279
916.259	15264
916.371	15317
916.483	15336
916.595	15214
916.708	15256
916.82	15264
916.932	15093
917.044	15199
917.156	15146
917.268	15024
917.38	15051
917.491	15039
917.603	15085
917.715	15077
917.826	15184
917.938	15001
918.049	14868
918.161	15055
918.272	15131
918.384	15093
918.495	14902
918.606	14773
918.717	14716
918.828	14788
918.939	14819
919.05	14663
919.161	14788
919.272	14560
919.383	14724
919.494	14807
919.604	14918
919.715	14773
919.826	14644
919.936	14724
920.047	14845
920.157	14708
920.267	14929
920.378	14807
920.488	14743
920.598	14948
920.708	15024
920.818	14807
920.928	14933
921.038	15055
921.148	14944
921.258	14655
921.368	14667
921.477	14545
921.587	14442
921.697	14248
921.806	14526
921.916	14320
922.025	14157
922.134	14195
922.244	14069
922.353	14210
922.462	14001
922.571	13947
922.68	13928
922.789	13776
922.898	13780
923.007	13655
923.116	13814
923.224	13772
923.333	13715
923.442	13575
923.55	13590
923.659	13643
923.767	13632
923.876	13548
923.984	13681
924.092	13525
924.201	13563
924.309	13438
924.417	13540
924.525	13457
924.633	13411
924.741	14157
924.849	13251
924.956	13316
925.064	13274
925.172	13122
925.279	13118
925.387	13221
925.494	13141
925.602	13255
925.709	13213
925.816	13042
925.924	13133
926.031	13236
926.138	13095
926.245	13129
926.352	13038
926.459	13228
926.566	13156
926.673	13053
926.779	12981
926.886	12897
926.993	12776
927.099	12696
927.206	12662
927.312	12692
927.419	12700
927.525	12745
927.631	12700
927.737	12646
927.843	12642
927.95	12376
928.056	12528
928.162	12582
928.267	12654
928.373	13164
928.479	12635
928.585	12395
928.69	12490
928.796	12544
928.901	12506
929.007	12262
929.112	12338
929.218	12300
929.323	12342
929.428	12304
929.533	12437
929.638	12171
929.743	12251
929.848	12247
929.953	12247
930.058	12148
930.163	11965
930.267	12034
930.372	12068
930.477	11931
930.581	12114
930.685	12019
930.79	11817
930.894	11923
930.998	11764
931.103	11866
931.207	11516
931.311	11482
931.415	11463
931.519	11269
931.623	11147
