Data from test_V78500241_742.txt Node
Date: Fri Mar 25 15:46:56 CST 2022
User: usil
Spectrometer: V785-0024
Trigger mode: 0
Integration Time (sec): 4.000000E-1
Scans to average: 1
Nonlinearity correction enabled: false
Boxcar width: 0
Storing dark spectrum: false
XAxis mode: Wavelengths
Number of Pixels in Spectrum: 1024
>>>>>Begin Spectral Data<<<<<
801.071	27975
801.214	28090
801.356	27690
801.499	27667
801.641	27622
801.783	27679
801.926	27713
802.068	27774
802.211	27572
802.353	27397
802.496	27348
802.638	27226
802.78	27359
802.923	27233
803.065	27344
803.208	27256
803.35	27237
803.492	27492
803.635	27351
803.777	27507
803.919	27507
804.061	27724
804.204	27572
804.346	27454
804.488	27466
804.63	27378
804.773	27370
804.915	27466
805.057	27690
805.199	27545
805.341	27538
805.483	27663
805.626	27519
805.768	27378
805.91	27618
806.052	27644
806.194	27561
806.336	27667
806.478	27709
806.62	27526
806.762	27637
806.904	27804
807.046	28124
807.188	28059
807.33	28002
807.472	28063
807.614	27846
807.756	27987
807.898	27808
808.04	27918
808.182	27789
808.324	27838
808.465	28025
808.607	28135
808.749	28211
808.891	28375
809.033	28409
809.174	28341
809.316	28310
809.458	28329
809.6	28344
809.741	28440
809.883	28303
810.025	28573
810.166	28615
810.308	28413
810.45	28405
810.591	28561
810.733	28196
810.875	28200
811.016	28135
811.158	28177
811.299	28379
811.441	28641
811.582	28531
811.724	28265
811.865	28166
812.007	28246
812.148	28280
812.29	28375
812.431	28398
812.573	28618
812.714	28577
812.855	28725
812.997	28858
813.138	28968
813.279	28858
813.421	28824
813.562	28790
813.703	28508
813.845	28592
813.986	28200
814.127	27922
814.268	27899
814.41	27960
814.551	27854
814.692	27983
814.833	27911
814.974	27873
815.115	27934
815.256	27873
815.397	27865
815.539	27663
815.68	27838
815.821	27679
815.962	27861
816.103	27739
816.244	27610
816.385	27564
816.526	27564
816.666	27348
816.807	27241
816.948	27435
817.089	27424
817.23	27218
817.371	27146
817.512	27298
817.653	27089
817.793	27096
817.934	27302
818.075	27325
818.216	27199
818.356	27222
818.497	27218
818.638	27047
818.778	27036
818.919	27047
819.06	27089
819.2	27157
819.341	27283
819.481	27302
819.622	27386
819.762	27614
819.903	27591
820.043	27435
820.184	27504
820.324	27222
820.465	27576
820.605	27481
820.746	27374
820.886	27249
821.026	27389
821.167	27466
821.307	27405
821.447	27226
821.588	26960
821.728	27020
821.868	26823
822.008	26777
822.149	26617
822.289	26602
822.429	26408
822.569	26396
822.709	26495
822.849	26366
822.99	26130
823.13	26161
823.27	26195
823.41	26199
823.55	25947
823.69	26176
823.83	26096
823.97	26145
824.11	25746
824.25	25753
824.389	25887
824.529	26111
824.669	25894
824.809	26126
824.949	25989
825.089	25997
825.228	26012
825.368	25704
825.508	25807
825.648	25871
825.787	25757
825.927	25795
826.067	25723
826.206	25791
826.346	25738
826.485	25750
826.625	25788
826.765	25898
826.904	25791
827.044	25540
827.183	25620
827.323	25407
827.462	25422
827.601	25362
827.741	25514
827.88	25403
828.02	25457
828.159	25343
828.298	25525
828.437	25426
828.577	25304
828.716	25563
828.855	25407
828.994	25080
829.134	25126
829.273	25171
829.412	25137
829.551	25088
829.69	25148
829.829	25198
829.968	25289
830.107	25327
830.246	25148
830.385	25183
830.524	24992
830.663	24901
830.802	24920
830.941	24810
831.08	24696
831.219	24981
831.357	24935
831.496	25027
831.635	24798
831.774	24665
831.913	24696
832.051	24475
832.19	24517
832.329	24502
832.467	24536
832.606	24357
832.744	24422
832.883	24346
833.022	24414
833.16	24403
833.299	24486
833.437	24471
833.576	24483
833.714	24540
833.852	24570
833.991	24627
834.129	24464
834.267	24555
834.406	24513
834.544	24513
834.682	24498
834.821	24509
834.959	24570
835.097	24350
835.235	24505
835.373	24532
835.511	24407
835.65	24350
835.788	24429
835.926	24171
836.064	24110
836.202	24064
836.34	24376
836.478	24380
836.615	24330
836.753	24311
836.891	24467
837.029	24292
837.167	24342
837.305	24216
837.443	24281
837.58	24121
837.718	24281
837.856	24140
837.993	24087
838.131	24235
838.269	24068
838.406	24095
838.544	23992
838.681	23851
838.819	23691
838.956	23509
839.094	23585
839.231	23729
839.369	23691
839.506	23950
839.643	23885
839.781	23733
839.918	23531
840.055	23501
840.193	23634
840.33	23505
840.467	23600
840.604	23623
840.742	23866
840.879	23497
841.016	23463
841.153	23417
841.29	23478
841.427	23535
841.564	23520
841.701	23524
841.838	23474
841.975	23398
842.112	23452
842.249	23383
842.385	23349
842.522	23630
842.659	23292
842.796	23292
842.933	23280
843.069	23235
843.206	23239
843.343	23296
843.479	23311
843.616	23292
843.752	23147
843.889	23018
844.025	23220
844.162	23037
844.298	23223
844.435	22987
844.571	23121
844.708	23109
844.844	23166
844.98	23178
845.117	23299
845.253	22930
845.389	22961
845.525	22938
845.661	22889
845.798	22744
845.934	22824
846.07	22809
846.206	22850
846.342	22824
846.478	22812
846.614	22630
846.75	22584
846.886	22497
847.022	22550
847.158	22443
847.294	22664
847.429	22478
847.565	22489
847.701	22797
847.837	22287
847.972	22257
848.108	22280
848.244	22344
848.379	22154
848.515	22105
848.65	22135
848.786	22162
848.921	22048
849.057	22158
849.192	22223
849.328	22097
849.463	22166
849.598	22124
849.734	21926
849.869	21960
850.004	21941
850.14	21835
850.275	21922
850.41	21698
850.545	21800
850.68	21755
850.815	21922
850.95	21937
851.085	22036
851.22	21991
851.355	22063
851.49	21873
851.625	21793
851.76	21892
851.895	21781
852.03	21823
852.165	21968
852.299	21884
852.434	21968
852.569	21876
852.703	21930
852.838	21888
852.973	21964
853.107	22067
853.242	21915
853.376	21644
853.511	21481
853.645	21713
853.78	21808
853.914	21812
854.048	21663
854.183	21599
854.317	21667
854.451	21926
854.585	21789
854.72	21762
854.854	21789
854.988	21656
855.122	21705
855.256	21622
855.39	21553
855.524	21694
855.658	21709
855.792	21739
855.926	21705
856.06	21686
856.194	21785
856.327	21667
856.461	21713
856.595	21694
856.729	21701
856.862	21789
856.996	21739
857.13	21747
857.263	21876
857.397	21816
857.53	21720
857.664	21823
857.797	21781
857.931	21781
858.064	21759
858.197	21800
858.331	21694
858.464	21724
858.597	21606
858.731	21694
858.864	21762
858.997	21637
859.13	21663
859.263	21800
859.396	21739
859.529	21663
859.662	21648
859.795	21728
859.928	21690
860.061	21816
860.194	21956
860.327	21797
860.46	21728
860.592	21964
860.725	21751
860.858	21800
860.99	21713
861.123	21732
861.256	21774
861.388	21637
861.521	22219
861.653	21530
861.786	21477
861.918	21462
862.05	21538
862.183	21698
862.315	21576
862.447	21686
862.58	21576
862.712	21378
862.844	21367
862.976	21542
863.108	21504
863.24	21960
863.372	21302
863.504	21401
863.636	21466
863.768	21359
863.9	21321
864.032	21302
864.164	21393
864.296	21397
864.428	21447
864.559	21511
864.691	21500
864.823	21500
864.954	21351
865.086	21378
865.217	21233
865.349	21310
865.48	21298
865.612	21355
865.743	21340
865.875	21454
866.006	21298
866.137	21161
866.269	21302
866.4	21279
866.531	21317
866.662	21233
866.793	21161
866.924	21283
867.055	21291
867.186	21283
867.317	21188
867.448	21123
867.579	21157
867.71	21169
867.841	21192
867.972	21222
868.103	21188
868.233	21192
868.364	21294
868.495	21306
868.625	21462
868.756	21492
868.886	21306
869.017	21511
869.147	21530
869.278	21652
869.408	21507
869.539	21340
869.669	21507
869.799	21397
869.929	21557
870.06	21591
870.19	21816
870.32	21755
870.45	21804
870.58	21835
870.71	21857
870.84	22017
870.97	21823
871.1	21880
871.23	22109
871.36	22055
871.489	21994
871.619	22006
871.749	21964
871.879	22059
872.008	22196
872.138	22036
872.267	22036
872.397	22032
872.526	21941
872.656	21865
872.785	21880
872.915	22067
873.044	22070
873.173	22120
873.303	22101
873.432	22211
873.561	22238
873.69	22192
873.819	22185
873.948	22196
874.077	22204
874.206	22010
874.335	22036
874.464	22287
874.593	22314
874.722	22276
874.851	22215
874.979	22314
875.108	22417
875.237	22287
875.365	22219
875.494	22424
875.623	22451
875.751	22379
875.88	22272
876.008	22466
876.136	22561
876.265	22698
876.393	22759
876.521	22675
876.65	22668
876.778	22569
876.906	22641
877.034	22512
877.162	22569
877.29	22599
877.418	22691
877.546	22664
877.674	22672
877.802	22702
877.93	22691
878.058	22573
878.185	22504
878.313	22645
878.441	22664
878.568	22527
878.696	22687
878.824	22622
878.951	22706
879.079	22847
879.206	22904
879.333	22892
879.461	22656
879.588	22767
879.715	22801
879.842	22896
879.97	22736
880.097	22375
880.224	22481
880.351	22523
880.478	22535
880.605	22497
880.732	22413
880.859	22725
880.986	22478
881.112	22527
881.239	22367
881.366	22181
881.493	22169
881.619	22074
881.746	21983
881.872	22017
881.999	22032
882.125	22036
882.252	22032
882.378	22090
882.505	22181
882.631	21880
882.757	21732
882.883	21797
883.01	21679
883.136	21610
883.262	21671
883.388	21542
883.514	21736
883.64	21709
883.766	21618
883.892	21443
884.018	21542
884.143	21625
884.269	21736
884.395	21408
884.52	21310
884.646	21256
884.772	21233
884.897	21291
885.023	21435
885.148	21526
885.274	21561
885.399	21412
885.524	21249
885.65	21386
885.775	21256
885.9	21348
886.025	21355
886.15	21351
886.275	21264
886.4	21256
886.525	21348
886.65	21268
886.775	21294
886.9	21428
887.025	21583
887.149	21321
887.274	21245
887.399	21138
887.523	21161
887.648	21085
887.773	20956
887.897	21214
888.021	21226
888.146	21085
888.27	21275
888.395	21226
888.519	21252
888.643	21062
888.767	21146
888.891	21055
889.015	21058
889.139	21043
889.263	20971
889.387	20975
889.511	21135
889.635	21119
889.759	21081
889.883	21024
890.006	20956
890.13	20990
890.254	20823
890.377	21020
890.501	20693
890.624	20659
890.748	20712
890.871	20613
890.995	20549
891.118	20419
891.241	20495
891.364	20564
891.488	20640
891.611	20636
891.734	20571
891.857	20655
891.98	20571
892.103	20659
892.226	20712
892.349	20473
892.471	20263
892.594	20446
892.717	20568
892.839	20434
892.962	20469
893.085	20526
893.207	20343
893.33	20347
893.452	20324
893.575	20545
893.697	20366
893.819	20507
893.941	20564
894.064	20541
894.186	20423
894.308	20275
894.43	20492
894.552	20514
894.674	20522
894.796	20309
894.918	20355
895.04	20396
895.161	20492
895.283	20370
895.405	20423
895.526	20438
895.648	20381
895.769	20419
895.891	20461
896.012	20488
896.134	20446
896.255	20415
896.376	20396
896.498	20480
896.619	20450
896.74	20400
896.861	20564
896.982	20674
897.103	20876
897.224	20674
897.345	20606
897.466	20560
897.587	20670
897.708	20785
897.828	20701
897.949	20629
898.07	20511
898.19	20530
898.311	20674
898.431	20682
898.552	20663
898.672	20674
898.792	20792
898.913	20484
899.033	20537
899.153	20492
899.273	20301
899.393	20442
899.513	20431
899.633	20328
899.753	20465
899.873	20381
899.993	20370
900.113	20301
900.232	20332
900.352	20248
900.472	20237
900.591	20214
900.711	20202
900.83	20225
900.95	20244
901.069	20248
901.189	20081
901.308	19738
901.427	19670
901.546	19719
901.665	19791
901.784	19677
901.904	19685
902.023	19540
902.141	19263
902.26	19266
902.379	19304
902.498	19217
902.617	19137
902.735	19289
902.854	19244
902.973	19072
903.091	18970
903.21	18852
903.328	18951
903.446	18837
903.565	18749
903.683	18684
903.801	18566
903.919	18635
904.038	18578
904.156	18559
904.274	18593
904.392	18486
904.51	18486
904.627	18448
904.745	18422
904.863	18376
904.981	18330
905.098	18224
905.216	18155
905.334	18159
905.451	18087
905.569	18159
905.686	18224
905.803	18072
905.921	17893
906.038	18102
906.155	17942
906.272	17901
906.389	17931
906.506	17733
906.623	17722
906.74	17695
906.857	17577
906.974	17680
907.091	17745
907.208	17794
907.324	17741
907.441	17589
907.557	17516
907.674	17429
907.79	17421
907.907	17337
908.023	17429
908.139	17376
908.256	17372
908.372	17296
908.488	17159
908.604	17166
908.72	17155
908.836	17098
908.952	17045
909.068	17086
909.184	17273
909.3	17105
909.415	17052
909.531	16984
909.647	16896
909.762	16889
909.878	16831
909.993	16854
910.108	16717
910.224	16733
910.339	16809
910.454	16577
910.57	16599
910.685	16618
910.8	16801
910.915	16691
911.03	16538
911.145	16363
911.259	16375
911.374	16455
911.489	16341
911.604	16261
911.718	16200
911.833	16177
911.947	16097
912.062	16044
912.176	16116
912.291	16162
912.405	16154
912.519	16337
912.633	16409
912.748	16124
912.862	16234
912.976	15964
913.09	15899
913.204	15785
913.318	16017
913.431	15991
913.545	15987
913.659	16128
913.772	15861
913.886	15861
914	15755
914.113	15789
914.226	15789
914.34	15876
914.453	15633
914.566	15846
914.68	15526
914.793	15671
914.906	15367
915.019	15329
915.132	15348
915.245	15275
915.358	15329
915.47	15378
915.583	15336
915.696	15439
915.809	15504
915.921	15515
916.034	15214
916.146	15245
916.259	15279
916.371	15340
916.483	15249
916.595	15218
916.708	15195
916.82	15230
916.932	15192
917.044	15222
917.156	15062
917.268	14914
917.38	15047
917.491	15020
917.603	14941
917.715	15089
917.826	15154
917.938	15020
918.049	14796
918.161	14960
918.272	15108
918.384	15043
918.495	14925
918.606	14842
918.717	14629
918.828	14815
918.939	14826
919.05	14693
919.161	14792
919.272	14587
919.383	14594
919.494	14796
919.604	14982
919.715	14754
919.826	14701
919.936	14678
920.047	14716
920.157	14758
920.267	14899
920.378	14674
920.488	14800
920.598	14891
920.708	14937
920.818	14899
920.928	14811
921.038	15097
921.148	14998
921.258	14735
921.368	14689
921.477	14461
921.587	14454
921.697	14286
921.806	14396
921.916	14252
922.025	14183
922.134	14187
922.244	14001
922.353	14058
922.462	14069
922.571	13837
922.68	13772
922.789	13772
922.898	13704
923.007	13704
923.116	13746
923.224	13689
923.333	13719
923.442	13601
923.55	13529
923.659	13552
923.767	13571
923.876	13441
923.984	13533
924.092	13434
924.201	13514
924.309	13495
924.417	13422
924.525	13304
924.633	13460
924.741	14351
924.849	13206
924.956	13381
925.064	13228
925.172	13088
925.279	13042
925.387	13145
925.494	13187
925.602	13354
925.709	13145
925.816	13015
925.924	13183
926.031	13141
926.138	13149
926.245	13171
926.352	12939
926.459	13156
926.566	13168
926.673	12970
926.779	12897
926.886	12875
926.993	12715
927.099	12707
927.206	12738
927.312	12684
927.419	12757
927.525	12669
927.631	12764
927.737	12631
927.843	12597
927.95	12517
928.056	12486
928.162	12532
928.267	12532
928.373	13187
928.479	12681
928.585	12380
928.69	12502
928.796	12464
928.901	12502
929.007	12220
929.112	12513
929.218	12369
929.323	12258
929.428	12251
929.533	12414
929.638	12224
929.743	12182
929.848	12220
929.953	12197
930.058	12011
930.163	12022
930.267	11950
930.372	12114
930.477	11847
930.581	12102
930.685	12038
930.79	11828
930.894	11893
930.998	11790
931.103	11923
931.207	11619
931.311	11509
931.415	11410
931.519	11265
931.623	11117
