Data from test_V78500241_3323.txt Node
Date: Fri Mar 25 16:04:49 CST 2022
User: usil
Spectrometer: V785-0024
Trigger mode: 0
Integration Time (sec): 4.000000E-1
Scans to average: 1
Nonlinearity correction enabled: false
Boxcar width: 0
Storing dark spectrum: false
XAxis mode: Wavelengths
Number of Pixels in Spectrum: 1024
>>>>>Begin Spectral Data<<<<<
801.071	28831
801.214	28797
801.356	28432
801.499	28561
801.641	28303
801.783	28481
801.926	28557
802.068	28390
802.211	28409
802.353	28337
802.496	28116
802.638	28280
802.78	28131
802.923	28070
803.065	27972
803.208	28055
803.35	28090
803.492	28314
803.635	28390
803.777	28333
803.919	28337
804.061	28786
804.204	28348
804.346	28272
804.488	28276
804.63	28295
804.773	28417
804.915	28318
805.057	28615
805.199	28428
805.341	28584
805.483	28481
805.626	28398
805.768	28390
805.91	28470
806.052	28656
806.194	28443
806.336	28649
806.478	28531
806.62	28474
806.762	28706
806.904	28923
807.046	29048
807.188	29037
807.33	29033
807.472	29033
807.614	28793
807.756	29094
807.898	28793
808.04	28831
808.182	28805
808.324	28729
808.465	28866
808.607	29006
808.749	29239
808.891	29208
809.033	29353
809.174	29269
809.316	29159
809.458	29147
809.6	29197
809.741	29353
809.883	29421
810.025	29531
810.166	29505
810.308	29486
810.45	29512
810.591	29482
810.733	29239
810.875	29189
811.016	29056
811.158	29124
811.299	29277
811.441	29349
811.582	29299
811.724	29326
811.865	29102
812.007	29159
812.148	29227
812.29	29387
812.431	29486
812.573	29642
812.714	29733
812.855	29771
812.997	29821
813.138	29874
813.279	29920
813.421	29813
813.562	29828
813.703	29570
813.845	29467
813.986	29143
814.127	29075
814.268	28995
814.41	28911
814.551	28881
814.692	29033
814.833	28877
814.974	28930
815.115	29048
815.256	28816
815.397	28847
815.539	28892
815.68	28626
815.821	28637
815.962	28862
816.103	28847
816.244	28462
816.385	28542
816.526	28550
816.666	28337
816.807	28295
816.948	28318
817.089	28337
817.23	28200
817.371	28223
817.512	28268
817.653	28268
817.793	28261
817.934	28325
818.075	28261
818.216	28325
818.356	28284
818.497	28135
818.638	27972
818.778	28101
818.919	28188
819.06	28223
819.2	28139
819.341	28196
819.481	28242
819.622	28394
819.762	28584
819.903	28516
820.043	28618
820.184	28398
820.324	28409
820.465	28508
820.605	28398
820.746	28280
820.886	28215
821.026	28272
821.167	28398
821.307	28375
821.447	28166
821.588	28070
821.728	28131
821.868	27930
822.008	27819
822.149	27709
822.289	27770
822.429	27629
822.569	27367
822.709	27382
822.849	27260
822.99	27321
823.13	27260
823.27	27264
823.41	27161
823.55	26975
823.69	27036
823.83	27039
823.97	26979
824.11	26906
824.25	26887
824.389	26933
824.529	27135
824.669	26986
824.809	27062
824.949	26990
825.089	26792
825.228	26933
825.368	26815
825.508	26716
825.648	26937
825.787	26940
825.927	26899
826.067	26895
826.206	26769
826.346	26929
826.485	26857
826.625	26876
826.765	26899
826.904	26937
827.044	26552
827.183	26571
827.323	26530
827.462	26697
827.601	26552
827.741	26629
827.88	26621
828.02	26564
828.159	26469
828.298	26541
828.437	26659
828.577	26377
828.716	26648
828.855	26465
828.994	26187
829.134	26130
829.273	26259
829.412	26157
829.551	26153
829.69	26290
829.829	26362
829.968	26176
830.107	26370
830.246	26084
830.385	26153
830.524	26107
830.663	26001
830.802	25982
830.941	25772
831.08	25651
831.219	25925
831.357	25947
831.496	26096
831.635	25791
831.774	25849
831.913	25704
832.051	25559
832.19	25620
832.329	25731
832.467	25441
832.606	25567
832.744	25499
832.883	25548
833.022	25346
833.16	25400
833.299	25495
833.437	25601
833.576	25624
833.714	25445
833.852	25597
833.991	25518
834.129	25601
834.267	25563
834.406	25620
834.544	25582
834.682	25639
834.821	25483
834.959	25772
835.097	25388
835.235	25476
835.373	25609
835.511	25662
835.65	25491
835.788	25301
835.926	25301
836.064	25190
836.202	25168
836.34	25335
836.478	25518
836.615	25171
836.753	25422
836.891	25499
837.029	25312
837.167	25209
837.305	25198
837.443	25160
837.58	25202
837.718	25164
837.856	25274
837.993	25263
838.131	25179
838.269	25008
838.406	25133
838.544	24939
838.681	24863
838.819	24852
838.956	24707
839.094	24711
839.231	24798
839.369	24871
839.506	25012
839.643	24981
839.781	24745
839.918	24642
840.055	24582
840.193	24612
840.33	24566
840.467	24631
840.604	24521
840.742	24795
840.879	24467
841.016	24620
841.153	24445
841.29	24677
841.427	24627
841.564	24551
841.701	24490
841.838	24616
841.975	24578
842.112	24399
842.249	24498
842.385	24475
842.522	24540
842.659	24437
842.796	24270
842.933	24365
843.069	24152
843.206	24262
843.343	24327
843.479	24437
843.616	24494
843.752	24030
843.889	24167
844.025	24292
844.162	24034
844.298	24228
844.435	24110
844.571	24072
844.708	24167
844.844	24273
844.98	24114
845.117	24163
845.253	24018
845.389	24018
845.525	23977
845.661	23946
845.798	23923
845.934	23828
846.07	23783
846.206	23790
846.342	23984
846.478	23786
846.614	23707
846.75	23368
846.886	23520
847.022	23661
847.158	23634
847.294	23627
847.429	23452
847.565	23452
847.701	23809
847.837	23326
847.972	23220
848.108	23337
848.244	23265
848.379	23204
848.515	23147
848.65	23166
848.786	23136
848.921	23117
849.057	23181
849.192	23193
849.328	23212
849.463	23067
849.598	23204
849.734	23029
849.869	22919
850.004	22908
850.14	22862
850.275	22824
850.41	22961
850.545	22835
850.68	22835
850.815	22923
850.95	22866
851.085	23060
851.22	22946
851.355	22984
851.49	22869
851.625	22972
851.76	22923
851.895	22797
852.03	22733
852.165	22858
852.299	23048
852.434	23041
852.569	22900
852.703	22881
852.838	22889
852.973	23056
853.107	22987
853.242	22755
853.376	22771
853.511	22679
853.645	22584
853.78	22687
853.914	22721
854.048	22843
854.183	22672
854.317	22702
854.451	22843
854.585	22717
854.72	22615
854.854	22786
854.988	22656
855.122	22824
855.256	22637
855.39	22767
855.524	22839
855.658	22736
855.792	22622
855.926	22725
856.06	22729
856.194	22957
856.327	22679
856.461	22569
856.595	22790
856.729	22675
856.862	22923
856.996	22668
857.13	22721
857.263	22923
857.397	22866
857.53	22691
857.664	22721
857.797	22694
857.931	22927
858.064	22816
858.197	22694
858.331	22637
858.464	22546
858.597	22653
858.731	22649
858.864	22660
858.997	22615
859.13	22736
859.263	22630
859.396	22816
859.529	22615
859.662	22679
859.795	22774
859.928	22710
860.061	22949
860.194	22972
860.327	22801
860.46	22774
860.592	22892
860.725	22805
860.858	22824
860.99	22664
861.123	22596
861.256	22668
861.388	22645
861.521	23455
861.653	22557
861.786	22417
861.918	22580
862.05	22645
862.183	22497
862.315	22672
862.447	22497
862.58	22622
862.712	22504
862.844	22424
862.976	22523
863.108	22538
863.24	22896
863.372	22436
863.504	22421
863.636	22531
863.768	22546
863.9	22440
864.032	22230
864.164	22352
864.296	22497
864.428	22622
864.559	22569
864.691	22538
864.823	22428
864.954	22356
865.086	22386
865.217	22188
865.349	22310
865.48	22363
865.612	22344
865.743	22489
865.875	22363
866.006	22150
866.137	22344
866.269	22257
866.4	22204
866.531	22295
866.662	22333
866.793	22276
866.924	22337
867.055	22169
867.186	22265
867.317	22173
867.448	22147
867.579	22124
867.71	22162
867.841	22120
867.972	22139
868.103	22158
868.233	22272
868.364	22261
868.495	22310
868.625	22497
868.756	22497
868.886	22489
869.017	22363
869.147	22664
869.278	22622
869.408	22527
869.539	22443
869.669	22504
869.799	22588
869.929	22569
870.06	22561
870.19	22786
870.32	22733
870.45	22778
870.58	22965
870.71	23056
870.84	22976
870.97	22927
871.1	22809
871.23	23064
871.36	23090
871.489	22938
871.619	23014
871.749	23006
871.879	23132
872.008	23143
872.138	23060
872.267	23018
872.397	23147
872.526	22946
872.656	22934
872.785	22980
872.915	23094
873.044	23159
873.173	23098
873.303	23075
873.432	23220
873.561	23178
873.69	23052
873.819	23124
873.948	23197
874.077	22919
874.206	23155
874.335	23060
874.464	23231
874.593	23322
874.722	23143
874.851	23288
874.979	23242
875.108	23421
875.237	23155
875.365	23166
875.494	23299
875.623	23303
875.751	23311
875.88	23379
876.008	23459
876.136	23459
876.265	23783
876.393	23790
876.521	23805
876.65	23589
876.778	23733
876.906	23516
877.034	23554
877.162	23608
877.29	23596
877.418	23608
877.546	23623
877.674	23657
877.802	23604
877.93	23608
878.058	23433
878.185	23573
878.313	23543
878.441	23551
878.568	23452
878.696	23554
878.824	23684
878.951	23596
879.079	23771
879.206	23923
879.333	23737
879.461	23775
879.588	23783
879.715	23980
879.842	24045
879.97	23733
880.097	23448
880.224	23486
880.351	23501
880.478	23402
880.605	23395
880.732	23433
880.859	23665
880.986	23391
881.112	23490
881.239	23269
881.366	23273
881.493	23029
881.619	23170
881.746	23090
881.872	23075
881.999	22980
882.125	22972
882.252	23006
882.378	22991
882.505	23083
882.631	22862
882.757	22710
882.883	22782
883.01	22679
883.136	22626
883.262	22573
883.388	22630
883.514	22797
883.64	22649
883.766	22615
883.892	22485
884.018	22561
884.143	22683
884.269	22580
884.395	22360
884.52	22276
884.646	22367
884.772	22215
884.897	22257
885.023	22310
885.148	22443
885.274	22371
885.399	22432
885.524	22234
885.65	22318
885.775	22344
885.9	22226
886.025	22424
886.15	22428
886.275	22310
886.4	22219
886.525	22246
886.65	22181
886.775	22200
886.9	22348
887.025	22561
887.149	22322
887.274	22162
887.399	22226
887.523	22048
887.648	21991
887.773	22074
887.897	22181
888.021	22010
888.146	21987
888.27	22059
888.395	22223
888.519	22139
888.643	22048
888.767	22143
888.891	21937
889.015	21899
889.139	21998
889.263	21804
889.387	22025
889.511	22078
889.635	22002
889.759	21770
889.883	21854
890.006	21808
890.13	22017
890.254	21827
890.377	21720
890.501	21595
890.624	21591
890.748	21660
890.871	21507
890.995	21450
891.118	21313
891.241	21492
891.364	21378
891.488	21447
891.611	21500
891.734	21397
891.857	21420
891.98	21504
892.103	21458
892.226	21431
892.349	21325
892.471	21195
892.594	21321
892.717	21241
892.839	21272
892.962	21275
893.085	21424
893.207	21405
893.33	21112
893.452	21294
893.575	21325
893.697	21195
893.819	21454
893.941	21420
894.064	21397
894.186	21374
894.308	21230
894.43	21420
894.552	21519
894.674	21336
894.796	21256
894.918	21173
895.04	21245
895.161	21351
895.283	21393
895.405	21260
895.526	21188
895.648	21184
895.769	21367
895.891	21344
896.012	21260
896.134	21329
896.255	21230
896.376	21222
896.498	21260
896.619	21275
896.74	21214
896.861	21226
896.982	21641
897.103	21713
897.224	21473
897.345	21374
897.466	21386
897.587	21454
897.708	21568
897.828	21447
897.949	21492
898.07	21313
898.19	21492
898.311	21614
898.431	21447
898.552	21488
898.672	21534
898.792	21488
898.913	21428
899.033	21298
899.153	21211
899.273	21214
899.393	21135
899.513	21233
899.633	21135
899.753	21211
899.873	21005
899.993	21176
900.113	21192
900.232	21085
900.352	21085
900.472	20937
900.591	20933
900.711	21047
900.83	20861
900.95	20956
901.069	21047
901.189	20899
901.308	20617
901.427	20537
901.546	20431
901.665	20503
901.784	20556
901.904	20393
902.023	20347
902.141	20088
902.26	20126
902.379	20168
902.498	20119
902.617	19951
902.735	20088
902.854	19898
902.973	19868
903.091	19677
903.21	19647
903.328	19681
903.446	19670
903.565	19381
903.683	19407
903.801	19343
903.919	19548
904.038	19350
904.156	19206
904.274	19293
904.392	19194
904.51	19228
904.627	19179
904.745	19175
904.863	19206
904.981	18973
905.098	18993
905.216	18897
905.334	18909
905.451	18848
905.569	18905
905.686	18932
905.803	18837
905.921	18669
906.038	18791
906.155	18734
906.272	18555
906.389	18547
906.506	18483
906.623	18403
906.74	18395
906.857	18285
906.974	18418
907.091	18490
907.208	18555
907.324	18475
907.441	18350
907.557	18152
907.674	18129
907.79	18015
907.907	18083
908.023	18057
908.139	18121
908.256	18072
908.372	17939
908.488	18019
908.604	17863
908.72	17821
908.836	17836
908.952	17748
909.068	17916
909.184	17942
909.3	17748
909.415	17840
909.531	17832
909.647	17551
909.762	17585
909.878	17520
909.993	17619
910.108	17478
910.224	17414
910.339	17395
910.454	17360
910.57	17448
910.685	17212
910.8	17402
910.915	17436
911.03	17239
911.145	17239
911.259	17140
911.374	17121
911.489	17045
911.604	16801
911.718	16786
911.833	16889
911.947	16793
912.062	16634
912.176	16729
912.291	16847
912.405	16801
912.519	16972
912.633	17083
912.748	16923
912.862	16835
912.976	16763
913.09	16653
913.204	16675
913.318	16607
913.431	16786
913.545	16679
913.659	16710
913.772	16493
913.886	16466
914	16462
914.113	16531
914.226	16607
914.34	16504
914.453	16440
914.566	16447
914.68	16246
914.793	16325
914.906	16109
915.019	16006
915.132	16071
915.245	16074
915.358	16112
915.47	16002
915.583	16021
915.696	16063
915.809	16040
915.921	16120
916.034	15915
916.146	15930
916.259	15793
916.371	16006
916.483	16093
916.595	15873
916.708	15766
916.82	15804
916.932	15720
917.044	15804
917.156	15713
917.268	15644
917.38	15682
917.491	15622
917.603	15675
917.715	15690
917.826	15686
917.938	15511
918.049	15500
918.161	15557
918.272	15751
918.384	15538
918.495	15549
918.606	15325
918.717	15336
918.828	15272
918.939	15359
919.05	15252
919.161	15336
919.272	15131
919.383	15252
919.494	15348
919.604	15424
919.715	15294
919.826	15302
919.936	15275
920.047	15306
920.157	15382
920.267	15450
920.378	15264
920.488	15176
920.598	15500
920.708	15648
920.818	15504
920.928	15439
921.038	15614
921.148	15641
921.258	15199
921.368	15241
921.477	14967
921.587	14971
921.697	14975
921.806	15085
921.916	14956
922.025	14727
922.134	14648
922.244	14629
922.353	14712
922.462	14507
922.571	14545
922.68	14324
922.789	14305
922.898	14317
923.007	14298
923.116	14362
923.224	14298
923.333	14233
923.442	14149
923.55	14081
923.659	14111
923.767	14233
923.876	14134
923.984	14073
924.092	14039
924.201	14050
924.309	14103
924.417	14035
924.525	14001
924.633	13993
924.741	14921
924.849	13753
924.956	13925
925.064	13742
925.172	13666
925.279	13666
925.387	13750
925.494	13731
925.602	13776
925.709	13811
925.816	13651
925.924	13609
926.031	13670
926.138	13715
926.245	13628
926.352	13544
926.459	13639
926.566	13605
926.673	13506
926.779	13388
926.886	13396
926.993	13285
927.099	13133
927.206	13183
927.312	13107
927.419	13274
927.525	13213
927.631	13255
927.737	13034
927.843	13133
927.95	13000
928.056	13099
928.162	13038
928.267	13053
928.373	13696
928.479	13137
928.585	12817
928.69	12977
928.796	13031
928.901	12852
929.007	12703
929.112	12939
929.218	12932
929.323	12768
929.428	12711
929.533	12814
929.638	12627
929.743	12681
929.848	12650
929.953	12623
930.058	12452
930.163	12441
930.267	12433
930.372	12486
930.477	12304
930.581	12635
930.685	12429
930.79	12232
930.894	12304
930.998	12266
931.103	12353
931.207	12057
931.311	11946
931.415	11904
931.519	11707
931.623	11657
