Data from test_V78500241_1252.txt Node
Date: Fri Mar 25 15:50:28 CST 2022
User: usil
Spectrometer: V785-0024
Trigger mode: 0
Integration Time (sec): 4.000000E-1
Scans to average: 1
Nonlinearity correction enabled: false
Boxcar width: 0
Storing dark spectrum: false
XAxis mode: Wavelengths
Number of Pixels in Spectrum: 1024
>>>>>Begin Spectral Data<<<<<
801.071	28694
801.214	28687
801.356	28440
801.499	28386
801.641	28295
801.783	28230
801.926	28284
802.068	28295
802.211	28272
802.353	28185
802.496	27937
802.638	28116
802.78	27960
802.923	27869
803.065	27838
803.208	27808
803.35	27926
803.492	28074
803.635	28192
803.777	28112
803.919	28360
804.061	28493
804.204	28337
804.346	28196
804.488	28185
804.63	28303
804.773	28074
804.915	28360
805.057	28280
805.199	28196
805.341	28405
805.483	28447
805.626	28398
805.768	28284
805.91	28379
806.052	28580
806.194	28219
806.336	28500
806.478	28360
806.62	28386
806.762	28599
806.904	28740
807.046	28911
807.188	28733
807.33	28839
807.472	28801
807.614	28736
807.756	28740
807.898	28710
808.04	28645
808.182	28645
808.324	28812
808.465	28812
808.607	29003
808.749	29246
808.891	29071
809.033	29277
809.174	29102
809.316	29159
809.458	29075
809.6	29132
809.741	29220
809.883	29147
810.025	29406
810.166	29433
810.308	29497
810.45	29414
810.591	29410
810.733	29284
810.875	29090
811.016	28999
811.158	29029
811.299	29269
811.441	29166
811.582	29402
811.724	29170
811.865	29075
812.007	29204
812.148	29136
812.29	29136
812.431	29356
812.573	29395
812.714	29627
812.855	29535
812.997	29722
813.138	29828
813.279	29722
813.421	29619
813.562	29680
813.703	29520
813.845	29330
813.986	29048
814.127	28999
814.268	28877
814.41	28759
814.551	28805
814.692	28999
814.833	28752
814.974	28759
815.115	28934
815.256	28653
815.397	28900
815.539	28672
815.68	28687
815.821	28580
815.962	28694
816.103	28618
816.244	28577
816.385	28303
816.526	28352
816.666	28344
816.807	28169
816.948	28188
817.089	28226
817.23	28192
817.371	28082
817.512	28082
817.653	28177
817.793	28086
817.934	28116
818.075	28181
818.216	28177
818.356	28166
818.497	28002
818.638	27812
818.778	27975
818.919	28010
819.06	27865
819.2	28051
819.341	28169
819.481	28082
819.622	28352
819.762	28557
819.903	28371
820.043	28474
820.184	28276
820.324	28386
820.465	28322
820.605	28333
820.746	28341
820.886	28150
821.026	28303
821.167	28162
821.307	28124
821.447	28238
821.588	27975
821.728	28048
821.868	27698
822.008	27690
822.149	27705
822.289	27694
822.429	27420
822.569	27386
822.709	27310
822.849	27116
822.99	27226
823.13	27142
823.27	27085
823.41	27020
823.55	26819
823.69	26979
823.83	26918
823.97	27055
824.11	26739
824.25	26644
824.389	26944
824.529	26792
824.669	26830
824.809	27005
824.949	26845
825.089	27024
825.228	26838
825.368	26499
825.508	26701
825.648	26762
825.787	26625
825.927	26773
826.067	26568
826.206	26663
826.346	26708
826.485	26758
826.625	26724
826.765	26811
826.904	26731
827.044	26568
827.183	26374
827.323	26313
827.462	26530
827.601	26480
827.741	26389
827.88	26423
828.02	26328
828.159	26336
828.298	26393
828.437	26427
828.577	26381
828.716	26343
828.855	26400
828.994	26035
829.134	26050
829.273	26218
829.412	26096
829.551	26065
829.69	26084
829.829	26107
829.968	26199
830.107	26126
830.246	26065
830.385	26058
830.524	26043
830.663	25772
830.802	25746
830.941	25727
831.08	25567
831.219	25799
831.357	25757
831.496	26005
831.635	25685
831.774	25582
831.913	25609
832.051	25407
832.19	25540
832.329	25449
832.467	25381
832.606	25312
832.744	25308
832.883	25362
833.022	25400
833.16	25316
833.299	25411
833.437	25422
833.576	25293
833.714	25320
833.852	25434
833.991	25464
834.129	25571
834.267	25411
834.406	25449
834.544	25350
834.682	25540
834.821	25506
834.959	25655
835.097	25468
835.235	25365
835.373	25415
835.511	25274
835.65	25152
835.788	25190
835.926	25164
836.064	25076
836.202	25072
836.34	25107
836.478	25343
836.615	25282
836.753	25255
836.891	25259
837.029	25175
837.167	25141
837.305	25228
837.443	25095
837.58	24992
837.718	25148
837.856	25000
837.993	25027
838.131	25057
838.269	24909
838.406	24939
838.544	24962
838.681	24787
838.819	24658
838.956	24635
839.094	24532
839.231	24601
839.369	24688
839.506	24943
839.643	24707
839.781	24570
839.918	24517
840.055	24464
840.193	24517
840.33	24483
840.467	24437
840.604	24479
840.742	24669
840.879	24414
841.016	24410
841.153	24228
841.29	24658
841.427	24456
841.564	24464
841.701	24285
841.838	24407
841.975	24357
842.112	24201
842.249	24292
842.385	24228
842.522	24315
842.659	24216
842.796	24167
842.933	24281
843.069	24159
843.206	24114
843.343	24346
843.479	24190
843.616	24167
843.752	23878
843.889	23954
844.025	24152
844.162	24022
844.298	24087
844.435	23923
844.571	23897
844.708	24034
844.844	24087
844.98	24239
845.117	24148
845.253	24018
845.389	23783
845.525	23999
845.661	23729
845.798	23752
845.934	23809
846.07	23680
846.206	23718
846.342	23863
846.478	23687
846.614	23459
846.75	23444
846.886	23277
847.022	23486
847.158	23421
847.294	23448
847.429	23486
847.565	23497
847.701	23672
847.837	23056
847.972	23197
848.108	23246
848.244	23212
848.379	23086
848.515	23010
848.65	22972
848.786	23098
848.921	23090
849.057	23052
849.192	23140
849.328	23033
849.463	22911
849.598	23090
849.734	22904
849.869	22854
850.004	22885
850.14	22839
850.275	22702
850.41	22755
850.545	22710
850.68	22759
850.815	22835
850.95	22782
851.085	22938
851.22	23014
851.355	22889
851.49	22748
851.625	22717
851.76	22831
851.895	22607
852.03	22786
852.165	22740
852.299	22752
852.434	22938
852.569	22847
852.703	22885
852.838	22812
852.973	22824
853.107	22786
853.242	22592
853.376	22725
853.511	22451
853.645	22538
853.78	22683
853.914	22607
854.048	22535
854.183	22497
854.317	22653
854.451	22771
854.585	22459
854.72	22538
854.854	22584
854.988	22630
855.122	22546
855.256	22474
855.39	22538
855.524	22767
855.658	22504
855.792	22580
855.926	22561
856.06	22660
856.194	22649
856.327	22519
856.461	22546
856.595	22588
856.729	22607
856.862	22672
856.996	22675
857.13	22698
857.263	22713
857.397	22664
857.53	22550
857.664	22672
857.797	22611
857.931	22649
858.064	22508
858.197	22622
858.331	22664
858.464	22573
858.597	22527
858.731	22516
858.864	22535
858.997	22546
859.13	22546
859.263	22478
859.396	22713
859.529	22459
859.662	22550
859.795	22577
859.928	22531
860.061	22668
860.194	22729
860.327	22615
860.46	22694
860.592	22656
860.725	22706
860.858	22588
860.99	22584
861.123	22504
861.256	22535
861.388	22622
861.521	23341
861.653	22417
861.786	22478
861.918	22459
862.05	22504
862.183	22455
862.315	22557
862.447	22611
862.58	22443
862.712	22318
862.844	22276
862.976	22310
863.108	22325
863.24	22554
863.372	22173
863.504	22306
863.636	22242
863.768	22348
863.9	22219
864.032	22226
864.164	22276
864.296	22344
864.428	22344
864.559	22348
864.691	22489
864.823	22386
864.954	22356
865.086	22253
865.217	22188
865.349	22128
865.48	22150
865.612	22211
865.743	22367
865.875	22150
866.006	22032
866.137	22116
866.269	22211
866.4	22188
866.531	21987
866.662	22017
866.793	22040
866.924	22055
867.055	22181
867.186	22139
867.317	21987
867.448	22044
867.579	22010
867.71	21964
867.841	22040
867.972	22131
868.103	22147
868.233	22147
868.364	22070
868.495	22101
868.625	22394
868.756	22394
868.886	22249
869.017	22337
869.147	22508
869.278	22485
869.408	22363
869.539	22413
869.669	22428
869.799	22360
869.929	22402
870.06	22363
870.19	22653
870.32	22508
870.45	22721
870.58	22748
870.71	22854
870.84	22702
870.97	22782
871.1	22801
871.23	22953
871.36	22946
871.489	22744
871.619	22889
871.749	22896
871.879	23071
872.008	23121
872.138	22790
872.267	22942
872.397	22835
872.526	22656
872.656	22786
872.785	22736
872.915	22927
873.044	23056
873.173	22972
873.303	22991
873.432	22915
873.561	23044
873.69	22968
873.819	22881
873.948	22908
874.077	23014
874.206	22927
874.335	22889
874.464	23060
874.593	23223
874.722	23121
874.851	23288
874.979	23239
875.108	23258
875.237	23140
875.365	23060
875.494	23147
875.623	23322
875.751	23064
875.88	23185
876.008	23322
876.136	23337
876.265	23554
876.393	23611
876.521	23592
876.65	23630
876.778	23497
876.906	23455
877.034	23452
877.162	23482
877.29	23474
877.418	23573
877.546	23455
877.674	23520
877.802	23459
877.93	23429
878.058	23482
878.185	23356
878.313	23505
878.441	23433
878.568	23349
878.696	23368
878.824	23452
878.951	23535
879.079	23687
879.206	23741
879.333	23634
879.461	23482
879.588	23627
879.715	23600
879.842	23775
879.97	23604
880.097	23387
880.224	23239
880.351	23318
880.478	23273
880.605	23208
880.732	23315
880.859	23509
880.986	23318
881.112	23311
881.239	23143
881.366	22984
881.493	22896
881.619	22828
881.746	22904
881.872	22938
881.999	22755
882.125	22729
882.252	22866
882.378	22839
882.505	22919
882.631	22759
882.757	22508
882.883	22611
883.01	22607
883.136	22535
883.262	22348
883.388	22481
883.514	22478
883.64	22512
883.766	22538
883.892	22394
884.018	22436
884.143	22523
884.269	22466
884.395	22386
884.52	22139
884.646	22238
884.772	22162
884.897	22093
885.023	22287
885.148	22242
885.274	22379
885.399	22158
885.524	22192
885.65	22166
885.775	22303
885.9	22032
886.025	22207
886.15	22344
886.275	22101
886.4	22109
886.525	22131
886.65	22010
886.775	22090
886.9	22337
887.025	22356
887.149	22154
887.274	21941
887.399	21991
887.523	21987
887.648	21865
887.773	21880
887.897	21937
888.021	21949
888.146	21850
888.27	21899
888.395	22070
888.519	21854
888.643	21941
888.767	21918
888.891	21842
889.015	21759
889.139	21709
889.263	21629
889.387	21915
889.511	21903
889.635	21774
889.759	21686
889.883	21755
890.006	21739
890.13	21781
890.254	21603
890.377	21572
890.501	21515
890.624	21336
890.748	21412
890.871	21313
890.995	21241
891.118	21233
891.241	21233
891.364	21275
891.488	21443
891.611	21291
891.734	21291
891.857	21351
891.98	21329
892.103	21192
892.226	21340
892.349	21275
892.471	21081
892.594	21199
892.717	21203
892.839	21203
892.962	21154
893.085	21298
893.207	21142
893.33	20895
893.452	21024
893.575	21157
893.697	21119
893.819	21313
893.941	21389
894.064	21313
894.186	21009
894.308	21043
894.43	21142
894.552	21226
894.674	21089
894.796	21100
894.918	21150
895.04	21017
895.161	21154
895.283	21154
895.405	21032
895.526	21108
895.648	21039
895.769	21127
895.891	21173
896.012	21154
896.134	21154
896.255	21074
896.376	21135
896.498	20982
896.619	21161
896.74	21131
896.861	21245
896.982	21416
897.103	21637
897.224	21397
897.345	21302
897.466	21249
897.587	21367
897.708	21606
897.828	21462
897.949	21275
898.07	21165
898.19	21310
898.311	21291
898.431	21348
898.552	21283
898.672	21389
898.792	21367
898.913	21275
899.033	21211
899.153	21138
899.273	21017
899.393	21081
899.513	21169
899.633	21085
899.753	21074
899.873	21062
899.993	21119
900.113	20941
900.232	21043
900.352	20880
900.472	20834
900.591	20796
900.711	20876
900.83	20781
900.95	20990
901.069	20876
901.189	20731
901.308	20495
901.427	20396
901.546	20446
901.665	20339
901.784	20537
901.904	20210
902.023	20202
902.141	19993
902.26	19894
902.379	20008
902.498	19890
902.617	19940
902.735	19932
902.854	19890
902.973	19795
903.091	19434
903.21	19575
903.328	19552
903.446	19438
903.565	19327
903.683	19350
903.801	19270
903.919	19266
904.038	19266
904.156	19145
904.274	19137
904.392	19156
904.51	18958
904.627	19175
904.745	19126
904.863	19168
904.981	18890
905.098	18745
905.216	18741
905.334	18871
905.451	18692
905.569	18620
905.686	18677
905.803	18757
905.921	18585
906.038	18650
906.155	18578
906.272	18563
906.389	18486
906.506	18243
906.623	18262
906.74	18266
906.857	18106
906.974	18114
907.091	18346
907.208	18277
907.324	18292
907.441	18285
907.557	18144
907.674	18045
907.79	17927
907.907	18019
908.023	18057
908.139	17961
908.256	18007
908.372	17912
908.488	17843
908.604	17851
908.72	17680
908.836	17737
908.952	17668
909.068	17695
909.184	17882
909.3	17775
909.415	17771
909.531	17718
909.647	17478
909.762	17402
909.878	17395
909.993	17444
910.108	17406
910.224	17349
910.339	17353
910.454	17284
910.57	17277
910.685	17147
910.8	17471
910.915	17387
911.03	17212
911.145	16984
911.259	17025
911.374	17041
911.489	16908
911.604	16755
911.718	16733
911.833	16869
911.947	16713
912.062	16577
912.176	16763
912.291	16831
912.405	16725
912.519	16984
912.633	16980
912.748	16733
912.862	16771
912.976	16531
913.09	16455
913.204	16413
913.318	16641
913.431	16592
913.545	16592
913.659	16660
913.772	16363
913.886	16333
914	16249
914.113	16375
914.226	16432
914.34	16371
914.453	16147
914.566	16360
914.68	16158
914.793	16188
914.906	15949
915.019	15998
915.132	15842
915.245	15797
915.358	15861
915.47	15987
915.583	15812
915.696	15949
915.809	16040
915.921	16032
916.034	15827
916.146	15785
916.259	15728
916.371	15865
916.483	15838
916.595	15835
916.708	15663
916.82	15698
916.932	15610
917.044	15656
917.156	15591
917.268	15538
917.38	15545
917.491	15519
917.603	15405
917.715	15663
917.826	15595
917.938	15439
918.049	15408
918.161	15408
918.272	15603
918.384	15561
918.495	15435
918.606	15233
918.717	15264
918.828	15230
918.939	15291
919.05	15207
919.161	15294
919.272	14963
919.383	15024
919.494	15329
919.604	15393
919.715	15237
919.826	15123
919.936	15218
920.047	15382
920.157	15218
920.267	15389
920.378	15169
920.488	15108
920.598	15458
920.708	15454
920.818	15397
920.928	15348
921.038	15504
921.148	15428
921.258	15211
921.368	15116
921.477	14963
921.587	14960
921.697	14804
921.806	14891
921.916	14796
922.025	14693
922.134	14541
922.244	14575
922.353	14636
922.462	14450
922.571	14294
922.68	14229
922.789	14218
922.898	14168
923.007	14096
923.116	14176
923.224	14123
923.333	14168
923.442	14138
923.55	13967
923.659	13986
923.767	14092
923.876	13921
923.984	14027
924.092	13967
924.201	13982
924.309	13921
924.417	13936
924.525	13833
924.633	13856
924.741	14800
924.849	13689
924.956	13860
925.064	13502
925.172	13514
925.279	13510
925.387	13601
925.494	13582
925.602	13666
925.709	13575
925.816	13491
925.924	13464
926.031	13601
926.138	13445
926.245	13563
926.352	13339
926.459	13521
926.566	13571
926.673	13419
926.779	13392
926.886	13369
926.993	13164
927.099	13244
927.206	13126
927.312	13076
927.419	13168
927.525	13069
927.631	13137
927.737	13046
927.843	12977
927.95	12916
928.056	12989
928.162	12924
928.267	12985
928.373	13601
928.479	13065
928.585	12692
928.69	12932
928.796	12958
928.901	12730
929.007	12662
929.112	12791
929.218	12783
929.323	12707
929.428	12627
929.533	12741
929.638	12585
929.743	12627
929.848	12627
929.953	12597
930.058	12532
930.163	12311
930.267	12338
930.372	12486
930.477	12251
930.581	12620
930.685	12323
930.79	12194
930.894	12209
930.998	12235
931.103	12300
931.207	11851
931.311	11939
931.415	11786
931.519	11604
931.623	11562
