Data from test_V78500241_1580.txt Node
Date: Fri Mar 25 15:52:44 CST 2022
User: usil
Spectrometer: V785-0024
Trigger mode: 0
Integration Time (sec): 4.000000E-1
Scans to average: 1
Nonlinearity correction enabled: false
Boxcar width: 0
Storing dark spectrum: false
XAxis mode: Wavelengths
Number of Pixels in Spectrum: 1024
>>>>>Begin Spectral Data<<<<<
801.071	27949
801.214	27789
801.356	27701
801.499	27572
801.641	27564
801.783	27477
801.926	27534
802.068	27488
802.211	27439
802.353	27348
802.496	27241
802.638	27112
802.78	27036
802.923	27089
803.065	26952
803.208	27081
803.35	27116
803.492	27264
803.635	27389
803.777	27245
803.919	27310
804.061	27618
804.204	27405
804.346	27306
804.488	27123
804.63	27332
804.773	27252
804.915	27416
805.057	27542
805.199	27348
805.341	27515
805.483	27538
805.626	27557
805.768	27420
805.91	27469
806.052	27576
806.194	27485
806.336	27660
806.478	27500
806.62	27370
806.762	27568
806.904	27751
807.046	28013
807.188	27854
807.33	27914
807.472	27846
807.614	27785
807.756	27934
807.898	27667
808.04	27724
808.182	27728
808.324	27785
808.465	27876
808.607	27876
808.749	28116
808.891	28067
809.033	28421
809.174	28204
809.316	28150
809.458	28234
809.6	28006
809.741	28261
809.883	28207
810.025	28481
810.166	28440
810.308	28382
810.45	28257
810.591	28375
810.733	28162
810.875	28086
811.016	28044
811.158	28093
811.299	28295
811.441	28287
811.582	28265
811.724	28276
811.865	28063
812.007	28063
812.148	28169
812.29	28158
812.431	28238
812.573	28459
812.714	28538
812.855	28596
812.997	28603
813.138	28869
813.279	28824
813.421	28649
813.562	28596
813.703	28341
813.845	28417
813.986	28040
814.127	28010
814.268	27835
814.41	27808
814.551	27922
814.692	27861
814.833	27694
814.974	27633
815.115	27873
815.256	27591
815.397	27797
815.539	27679
815.68	27606
815.821	27447
815.962	27595
816.103	27553
816.244	27599
816.385	27405
816.526	27420
816.666	27192
816.807	27085
816.948	27142
817.089	27218
817.23	26940
817.371	27077
817.512	27062
817.653	26914
817.793	27055
817.934	27070
818.075	27264
818.216	27070
818.356	26971
818.497	26830
818.638	26864
818.778	26743
818.919	26785
819.06	26952
819.2	26975
819.341	26960
819.481	27116
819.622	27222
819.762	27507
819.903	27313
820.043	27252
820.184	27287
820.324	27138
820.465	27249
820.605	27195
820.746	27100
820.886	27085
821.026	27142
821.167	27096
821.307	27222
821.447	27062
821.588	26979
821.728	26902
821.868	26708
822.008	26609
822.149	26579
822.289	26431
822.429	26294
822.569	26286
822.709	26294
822.849	26153
822.99	26161
823.13	26005
823.27	26084
823.41	25913
823.55	25761
823.69	25974
823.83	25982
823.97	25765
824.11	25833
824.25	25613
824.389	25837
824.529	25780
824.669	25704
824.809	25898
824.949	25700
825.089	25856
825.228	25822
825.368	25514
825.508	25685
825.648	25639
825.787	25693
825.927	25662
826.067	25457
826.206	25537
826.346	25658
826.485	25643
826.625	25556
826.765	25784
826.904	25594
827.044	25403
827.183	25381
827.323	25282
827.462	25373
827.601	25148
827.741	25354
827.88	25206
828.02	25171
828.159	25206
828.298	25506
828.437	25358
828.577	25194
828.716	25304
828.855	25118
828.994	25107
829.134	25012
829.273	25088
829.412	24992
829.551	24897
829.69	24932
829.829	24966
829.968	25137
830.107	25194
830.246	24962
830.385	24859
830.524	24802
830.663	24776
830.802	24642
830.941	24509
831.08	24563
831.219	24779
831.357	24783
831.496	24833
831.635	24555
831.774	24540
831.913	24452
832.051	24505
832.19	24327
832.329	24399
832.467	24380
832.606	24308
832.744	24216
832.883	24159
833.022	24148
833.16	24194
833.299	24361
833.437	24273
833.576	24300
833.714	24410
833.852	24479
833.991	24308
834.129	24365
834.267	24292
834.406	24342
834.544	24365
834.682	24391
834.821	24258
834.959	24479
835.097	24209
835.235	24342
835.373	24365
835.511	24388
835.65	24213
835.788	24121
835.926	24026
836.064	24091
836.202	23942
836.34	24178
836.478	24273
836.615	24235
836.753	24095
836.891	24228
837.029	24163
837.167	24049
837.305	24064
837.443	24026
837.58	24064
837.718	24087
837.856	23996
837.993	23973
838.131	23988
838.269	23828
838.406	23752
838.544	23798
838.681	23638
838.819	23558
838.956	23619
839.094	23589
839.231	23493
839.369	23577
839.506	23798
839.643	23752
839.781	23452
839.918	23421
840.055	23448
840.193	23341
840.33	23345
840.467	23425
840.604	23471
840.742	23482
840.879	23216
841.016	23383
841.153	23220
841.29	23615
841.427	23391
841.564	23402
841.701	23379
841.838	23220
841.975	23246
842.112	23273
842.249	23067
842.385	23269
842.522	23341
842.659	23250
842.796	23178
842.933	23155
843.069	23033
843.206	23151
843.343	23128
843.479	23079
843.616	23029
843.752	22850
843.889	22923
844.025	22968
844.162	22873
844.298	23018
844.435	22915
844.571	22828
844.708	22953
844.844	22995
844.98	23121
845.117	22923
845.253	22828
845.389	22869
845.525	22900
845.661	22763
845.798	22637
845.934	22618
846.07	22641
846.206	22748
846.342	22702
846.478	22717
846.614	22398
846.75	22352
846.886	22344
847.022	22500
847.158	22432
847.294	22424
847.429	22363
847.565	22386
847.701	22504
847.837	22002
847.972	22017
848.108	22074
848.244	22196
848.379	21994
848.515	22036
848.65	21956
848.786	22051
848.921	22082
849.057	22105
849.192	21968
849.328	21994
849.463	21835
849.598	21873
849.734	21880
849.869	21838
850.004	21865
850.14	21751
850.275	21747
850.41	21698
850.545	21606
850.68	21751
850.815	21743
850.95	21743
851.085	21892
851.22	21835
851.355	21770
851.49	21667
851.625	21686
851.76	21671
851.895	21671
852.03	21724
852.165	21705
852.299	21682
852.434	21827
852.569	21743
852.703	21629
852.838	21781
852.973	21793
853.107	21766
853.242	21656
853.376	21610
853.511	21458
853.645	21515
853.78	21591
853.914	21641
854.048	21370
854.183	21603
854.317	21606
854.451	21762
854.585	21557
854.72	21523
854.854	21618
854.988	21447
855.122	21492
855.256	21469
855.39	21534
855.524	21660
855.658	21599
855.792	21618
855.926	21431
856.06	21641
856.194	21644
856.327	21523
856.461	21557
856.595	21435
856.729	21603
856.862	21580
856.996	21701
857.13	21667
857.263	21633
857.397	21785
857.53	21557
857.664	21709
857.797	21747
857.931	21675
858.064	21679
858.197	21686
858.331	21447
858.464	21526
858.597	21477
858.731	21519
858.864	21507
858.997	21534
859.13	21568
859.263	21496
859.396	21591
859.529	21428
859.662	21454
859.795	21500
859.928	21603
860.061	21629
860.194	21675
860.327	21606
860.46	21599
860.592	21580
860.725	21713
860.858	21568
860.99	21424
861.123	21488
861.256	21428
861.388	21557
861.521	22086
861.653	21435
861.786	21310
861.918	21447
862.05	21431
862.183	21515
862.315	21424
862.447	21515
862.58	21386
862.712	21279
862.844	21116
862.976	21287
863.108	21332
863.24	21709
863.372	21283
863.504	21252
863.636	21169
863.768	21416
863.9	21135
864.032	21233
864.164	21180
864.296	21214
864.428	21348
864.559	21416
864.691	21272
864.823	21252
864.954	21279
865.086	21241
865.217	21260
865.349	21127
865.48	21165
865.612	21195
865.743	21226
865.875	21119
866.006	21062
866.137	21108
866.269	21165
866.4	21093
866.531	20986
866.662	20982
866.793	21169
866.924	21161
867.055	21184
867.186	21161
867.317	21077
867.448	20918
867.579	21085
867.71	20929
867.841	20956
867.972	21096
868.103	20948
868.233	21077
868.364	21005
868.495	21135
868.625	21272
868.756	21462
868.886	21207
869.017	21317
869.147	21393
869.278	21389
869.408	21317
869.539	21310
869.669	21431
869.799	21249
869.929	21542
870.06	21439
870.19	21614
870.32	21686
870.45	21690
870.58	21739
870.71	21892
870.84	21949
870.97	21690
871.1	21644
871.23	21918
871.36	21975
871.489	21979
871.619	21907
871.749	22002
871.879	21915
872.008	21994
872.138	21880
872.267	21918
872.397	21770
872.526	21625
872.656	21701
872.785	21873
872.915	22006
873.044	21972
873.173	21979
873.303	22067
873.432	22006
873.561	22116
873.69	21953
873.819	21888
873.948	21949
874.077	21953
874.206	21895
874.335	21998
874.464	21960
874.593	22158
874.722	22223
874.851	22265
874.979	22230
875.108	22211
875.237	22017
875.365	22032
875.494	22169
875.623	22196
875.751	22150
875.88	22204
876.008	22382
876.136	22295
876.265	22672
876.393	22618
876.521	22599
876.65	22713
876.778	22519
876.906	22451
877.034	22554
877.162	22531
877.29	22592
877.418	22508
877.546	22481
877.674	22554
877.802	22527
877.93	22481
878.058	22557
878.185	22341
878.313	22459
878.441	22573
878.568	22371
878.696	22500
878.824	22531
878.951	22504
879.079	22645
879.206	22778
879.333	22679
879.461	22459
879.588	22622
879.715	22634
879.842	22771
879.97	22637
880.097	22284
880.224	22249
880.351	22386
880.478	22367
880.605	22375
880.732	22421
880.859	22546
880.986	22360
881.112	22371
881.239	22223
881.366	21945
881.493	22055
881.619	21987
881.746	21926
881.872	21785
881.999	21873
882.125	21880
882.252	21876
882.378	21797
882.505	22013
882.631	21797
882.757	21576
882.883	21709
883.01	21641
883.136	21622
883.262	21603
883.388	21469
883.514	21701
883.64	21656
883.766	21576
883.892	21321
884.018	21408
884.143	21473
884.269	21557
884.395	21298
884.52	21249
884.646	21256
884.772	21173
884.897	21074
885.023	21142
885.148	21291
885.274	21408
885.399	21363
885.524	21256
885.65	21256
885.775	21218
885.9	21272
886.025	21408
886.15	21150
886.275	21161
886.4	21055
886.525	21230
886.65	21226
886.775	21192
886.9	21264
887.025	21553
887.149	21298
887.274	21009
887.399	21085
887.523	21146
887.648	21024
887.773	21009
887.897	21085
888.021	20975
888.146	20918
888.27	21089
888.395	21173
888.519	21036
888.643	21058
888.767	21005
888.891	20902
889.015	20705
889.139	20792
889.263	20754
889.387	20868
889.511	21066
889.635	20925
889.759	20785
889.883	20708
890.006	20735
890.13	20857
890.254	20758
890.377	20746
890.501	20663
890.624	20473
890.748	20575
890.871	20438
890.995	20370
891.118	20336
891.241	20336
891.364	20393
891.488	20431
891.611	20218
891.734	20351
891.857	20484
891.98	20393
892.103	20366
892.226	20366
892.349	20358
892.471	20115
892.594	20355
892.717	20358
892.839	20301
892.962	20161
893.085	20396
893.207	20290
893.33	20092
893.452	20301
893.575	20252
893.697	20336
893.819	20450
893.941	20476
894.064	20434
894.186	20328
894.308	20180
894.43	20393
894.552	20480
894.674	20336
894.796	20210
894.918	20301
895.04	20305
895.161	20370
895.283	20313
895.405	20161
895.526	20199
895.648	20199
895.769	20290
895.891	20328
896.012	20431
896.134	20400
896.255	20244
896.376	20157
896.498	20355
896.619	20256
896.74	20355
896.861	20278
896.982	20705
897.103	20724
897.224	20636
897.345	20560
897.466	20393
897.587	20568
897.708	20682
897.828	20609
897.949	20431
898.07	20377
898.19	20347
898.311	20636
898.431	20423
898.552	20495
898.672	20568
898.792	20549
898.913	20469
899.033	20366
899.153	20298
899.273	20214
899.393	20278
899.513	20328
899.633	20305
899.753	20374
899.873	20164
899.993	20271
900.113	20008
900.232	20240
900.352	20145
900.472	20058
900.591	20024
900.711	20039
900.83	19944
900.95	20145
901.069	20100
901.189	19818
901.308	19715
901.427	19620
901.546	19544
901.665	19616
901.784	19685
901.904	19544
902.023	19388
902.141	19160
902.26	19080
902.379	19190
902.498	19171
902.617	19065
902.735	19168
902.854	18951
902.973	19004
903.091	18779
903.21	18757
903.328	18745
903.446	18658
903.565	18627
903.683	18578
903.801	18407
903.919	18452
904.038	18601
904.156	18266
904.274	18456
904.392	18350
904.51	18327
904.627	18330
904.745	18308
904.863	18448
904.981	18091
905.098	17988
905.216	18049
905.334	17999
905.451	18019
905.569	17999
905.686	18053
905.803	18072
905.921	17824
906.038	17931
906.155	17885
906.272	17680
906.389	17707
906.506	17608
906.623	17596
906.74	17634
906.857	17368
906.974	17486
907.091	17676
907.208	17684
907.324	17490
907.441	17551
907.557	17330
907.674	17292
907.79	17170
907.907	17223
908.023	17376
908.139	17269
908.256	17189
908.372	17189
908.488	17143
908.604	17109
908.72	16984
908.836	16942
908.952	16812
909.068	17033
909.184	17048
909.3	16911
909.415	16938
909.531	16953
909.647	16733
909.762	16706
909.878	16698
909.993	16706
910.108	16577
910.224	16626
910.339	16679
910.454	16565
910.57	16428
910.685	16371
910.8	16710
910.915	16508
911.03	16459
911.145	16348
911.259	16402
911.374	16291
911.489	16265
911.604	16173
911.718	15983
911.833	16025
911.947	15983
912.062	15861
912.176	16021
912.291	15991
912.405	16051
912.519	16154
912.633	16223
912.748	16150
912.862	15945
912.976	15785
913.09	15789
913.204	15743
913.318	15857
913.431	15934
913.545	15956
913.659	15869
913.772	15755
913.886	15614
914	15637
914.113	15686
914.226	15694
914.34	15663
914.453	15523
914.566	15682
914.68	15542
914.793	15587
914.906	15378
915.019	15317
915.132	15275
915.245	15195
915.358	15218
915.47	15245
915.583	15203
915.696	15237
915.809	15386
915.921	15340
916.034	15157
916.146	15089
916.259	15085
916.371	15188
916.483	15176
916.595	15077
916.708	14944
916.82	15055
916.932	15085
917.044	15077
917.156	15058
917.268	14853
917.38	14864
917.491	14914
917.603	14883
917.715	15001
917.826	14906
917.938	14872
918.049	14727
918.161	14777
918.272	15066
918.384	14819
918.495	14842
918.606	14587
918.717	14598
918.828	14686
918.939	14686
919.05	14514
919.161	14617
919.272	14473
919.383	14473
919.494	14568
919.604	14781
919.715	14651
919.826	14594
919.936	14708
920.047	14594
920.157	14632
920.267	14796
920.378	14564
920.488	14514
920.598	14819
920.708	14925
920.818	14823
920.928	14826
921.038	14895
921.148	14842
921.258	14644
921.368	14480
921.477	14385
921.587	14355
921.697	14210
921.806	14355
921.916	14195
922.025	14031
922.134	14024
922.244	13974
922.353	13997
922.462	13822
922.571	13811
922.68	13655
922.789	13590
922.898	13651
923.007	13601
923.116	13639
923.224	13548
923.333	13563
923.442	13491
923.55	13426
923.659	13419
923.767	13499
923.876	13343
923.984	13472
924.092	13365
924.201	13495
924.309	13441
924.417	13301
924.525	13213
924.633	13282
924.741	14237
924.849	13095
924.956	13194
925.064	13095
925.172	13114
925.279	13061
925.387	12977
925.494	13057
925.602	13206
925.709	13065
925.816	13042
925.924	13027
926.031	13038
926.138	13008
926.245	13088
926.352	12894
926.459	12989
926.566	13118
926.673	12935
926.779	12871
926.886	12798
926.993	12635
927.099	12597
927.206	12555
927.312	12525
927.419	12662
927.525	12597
927.631	12646
927.737	12479
927.843	12490
927.95	12262
928.056	12410
928.162	12437
928.267	12452
928.373	13122
928.479	12502
928.585	12319
928.69	12308
928.796	12479
928.901	12220
929.007	12121
929.112	12292
929.218	12239
929.323	12163
929.428	12171
929.533	12247
929.638	12072
929.743	12175
929.848	12239
929.953	12026
930.058	11954
930.163	11805
930.267	11802
930.372	11977
930.477	11764
930.581	12079
930.685	11874
930.79	11786
930.894	11821
930.998	11775
931.103	11809
931.207	11490
931.311	11444
931.415	11330
931.519	11128
931.623	11048
