Data from test_V78500241_1505.txt Node
Date: Fri Mar 25 15:52:13 CST 2022
User: usil
Spectrometer: V785-0024
Trigger mode: 0
Integration Time (sec): 4.000000E-1
Scans to average: 1
Nonlinearity correction enabled: false
Boxcar width: 0
Storing dark spectrum: false
XAxis mode: Wavelengths
Number of Pixels in Spectrum: 1024
>>>>>Begin Spectral Data<<<<<
801.071	28006
801.214	27987
801.356	27766
801.499	27778
801.641	27606
801.783	27603
801.926	27595
802.068	27603
802.211	27587
802.353	27523
802.496	27424
802.638	27450
802.78	27237
802.923	27226
803.065	27165
803.208	27142
803.35	27264
803.492	27321
803.635	27458
803.777	27348
803.919	27389
804.061	27873
804.204	27367
804.346	27458
804.488	27458
804.63	27374
804.773	27340
804.915	27359
805.057	27595
805.199	27454
805.341	27477
805.483	27595
805.626	27686
805.768	27504
805.91	27504
806.052	27572
806.194	27458
806.336	27743
806.478	27709
806.62	27572
806.762	27747
806.904	27789
807.046	27949
807.188	27987
807.33	28185
807.472	28128
807.614	27972
807.756	27899
807.898	28048
808.04	27892
808.182	27861
808.324	27937
808.465	28006
808.607	28211
808.749	28200
808.891	28325
809.033	28497
809.174	28211
809.316	28223
809.458	28295
809.6	28181
809.741	28367
809.883	28443
810.025	28436
810.166	28569
810.308	28535
810.45	28443
810.591	28462
810.733	28367
810.875	28192
811.016	28135
811.158	28124
811.299	28234
811.441	28512
811.582	28436
811.724	28284
811.865	28238
812.007	28249
812.148	28306
812.29	28200
812.431	28493
812.573	28573
812.714	28603
812.855	28854
812.997	28900
813.138	28828
813.279	29033
813.421	28691
813.562	28774
813.703	28687
813.845	28466
813.986	28299
814.127	28116
814.268	27895
814.41	27994
814.551	27918
814.692	27987
814.833	28021
814.974	27812
815.115	28006
815.256	27861
815.397	27808
815.539	27797
815.68	27652
815.821	27572
815.962	27724
816.103	27709
816.244	27656
816.385	27557
816.526	27431
816.666	27458
816.807	27222
816.948	27275
817.089	27427
817.23	27188
817.371	27188
817.512	27066
817.653	27264
817.793	27192
817.934	27329
818.075	27233
818.216	27237
818.356	27268
818.497	27104
818.638	27093
818.778	27039
818.919	27024
819.06	27142
819.2	27116
819.341	27203
819.481	27348
819.622	27351
819.762	27675
819.903	27557
820.043	27363
820.184	27393
820.324	27264
820.465	27279
820.605	27268
820.746	27492
820.886	27096
821.026	27218
821.167	27180
821.307	27439
821.447	27272
821.588	27222
821.728	26982
821.868	26906
822.008	26819
822.149	26838
822.289	26621
822.429	26476
822.569	26457
822.709	26381
822.849	26229
822.99	26195
823.13	26252
823.27	26199
823.41	26062
823.55	25883
823.69	26027
823.83	26016
823.97	26058
824.11	25841
824.25	25852
824.389	26020
824.529	26020
824.669	25963
824.809	25936
824.949	25932
825.089	25898
825.228	25860
825.368	25723
825.508	25727
825.648	25696
825.787	25860
825.927	25803
826.067	25658
826.206	25879
826.346	25830
826.485	25708
826.625	25616
826.765	25818
826.904	25826
827.044	25514
827.183	25552
827.323	25430
827.462	25422
827.601	25460
827.741	25445
827.88	25510
828.02	25343
828.159	25343
828.298	25441
828.437	25365
828.577	25362
828.716	25632
828.855	25483
828.994	25126
829.134	25209
829.273	25198
829.412	25152
829.551	25282
829.69	25145
829.829	25232
829.968	25217
830.107	25255
830.246	25278
830.385	25137
830.524	25069
830.663	25015
830.802	24977
830.941	24787
831.08	24677
831.219	24837
831.357	24817
831.496	25038
831.635	24730
831.774	24661
831.913	24692
832.051	24665
832.19	24513
832.329	24566
832.467	24483
832.606	24399
832.744	24372
832.883	24509
833.022	24403
833.16	24448
833.299	24464
833.437	24505
833.576	24498
833.714	24589
833.852	24479
833.991	24505
834.129	24521
834.267	24467
834.406	24486
834.544	24536
834.682	24285
834.821	24517
834.959	24669
835.097	24372
835.235	24521
835.373	24395
835.511	24483
835.65	24361
835.788	24304
835.926	24102
836.064	24178
836.202	24049
836.34	24311
836.478	24509
836.615	24380
836.753	24486
836.891	24445
837.029	24270
837.167	24258
837.305	24174
837.443	24201
837.58	24136
837.718	24102
837.856	24334
837.993	24167
838.131	24243
838.269	23996
838.406	24034
838.544	23935
838.681	23874
838.819	23802
838.956	23657
839.094	23676
839.231	23604
839.369	23828
839.506	23961
839.643	23946
839.781	23611
839.918	23630
840.055	23752
840.193	23493
840.33	23524
840.467	23676
840.604	23570
840.742	23767
840.879	23539
841.016	23444
841.153	23501
841.29	23684
841.427	23619
841.564	23524
841.701	23528
841.838	23448
841.975	23387
842.112	23531
842.249	23288
842.385	23242
842.522	23455
842.659	23379
842.796	23277
842.933	23345
843.069	23223
843.206	23197
843.343	23402
843.479	23421
843.616	23353
843.752	23136
843.889	23102
844.025	23193
844.162	23060
844.298	23151
844.435	23109
844.571	23041
844.708	23200
844.844	23151
844.98	23113
845.117	23124
845.253	23037
845.389	22980
845.525	23025
845.661	22923
845.798	22904
845.934	22938
846.07	22778
846.206	22797
846.342	22919
846.478	22812
846.614	22596
846.75	22436
846.886	22584
847.022	22645
847.158	22645
847.294	22497
847.429	22584
847.565	22508
847.701	22824
847.837	22223
847.972	22131
848.108	22443
848.244	22295
848.379	22101
848.515	22105
848.65	22078
848.786	22261
848.921	22188
849.057	22325
849.192	22219
849.328	22090
849.463	22078
849.598	22082
849.734	21983
849.869	21998
850.004	21915
850.14	21895
850.275	21930
850.41	21781
850.545	21884
850.68	21937
850.815	21941
850.95	21873
851.085	22128
851.22	21937
851.355	21873
851.49	21884
851.625	21937
851.76	21842
851.895	21793
852.03	21869
852.165	21907
852.299	21899
852.434	21899
852.569	21972
852.703	21857
852.838	21819
852.973	21934
853.107	22055
853.242	21797
853.376	21709
853.511	21690
853.645	21679
853.78	21884
853.914	21724
854.048	21572
854.183	21751
854.317	21717
854.451	22051
854.585	21652
854.72	21591
854.854	21781
854.988	21720
855.122	21709
855.256	21553
855.39	21724
855.524	21717
855.658	21816
855.792	21751
855.926	21774
856.06	21819
856.194	21770
856.327	21686
856.461	21641
856.595	21679
856.729	21507
856.862	21595
856.996	21804
857.13	21770
857.263	21759
857.397	21789
857.53	21724
857.664	21720
857.797	21785
857.931	21850
858.064	21755
858.197	21747
858.331	21785
858.464	21629
858.597	21656
858.731	21694
858.864	21717
858.997	21766
859.13	21686
859.263	21667
859.396	21778
859.529	21557
859.662	21496
859.795	21606
859.928	21698
860.061	21895
860.194	21880
860.327	21797
860.46	21785
860.592	21762
860.725	21846
860.858	21819
860.99	21816
861.123	21614
861.256	21595
861.388	21816
861.521	22318
861.653	21519
861.786	21492
861.918	21367
862.05	21526
862.183	21614
862.315	21736
862.447	21743
862.58	21561
862.712	21507
862.844	21469
862.976	21473
863.108	21504
863.24	21880
863.372	21340
863.504	21473
863.636	21492
863.768	21526
863.9	21447
864.032	21340
864.164	21367
864.296	21473
864.428	21424
864.559	21393
864.691	21603
864.823	21500
864.954	21408
865.086	21370
865.217	21287
865.349	21165
865.48	21256
865.612	21344
865.743	21378
865.875	21317
866.006	21211
866.137	21245
866.269	21218
866.4	21481
866.531	21131
866.662	21249
866.793	21180
866.924	21283
867.055	21256
867.186	21321
867.317	21237
867.448	21195
867.579	21226
867.71	21252
867.841	21085
867.972	21283
868.103	21310
868.233	21203
868.364	21249
868.495	21268
868.625	21431
868.756	21545
868.886	21416
869.017	21408
869.147	21641
869.278	21614
869.408	21530
869.539	21439
869.669	21603
869.799	21595
869.929	21610
870.06	21545
870.19	21724
870.32	21831
870.45	21785
870.58	21804
870.71	21953
870.84	21941
870.97	21838
871.1	21838
871.23	22074
871.36	21964
871.489	22082
871.619	22109
871.749	21994
871.879	22063
872.008	22257
872.138	22120
872.267	22070
872.397	22036
872.526	21857
872.656	21953
872.785	21785
872.915	22086
873.044	22207
873.173	22173
873.303	22150
873.432	22188
873.561	22272
873.69	22093
873.819	22181
873.948	22272
874.077	22135
874.206	22097
874.335	22207
874.464	22139
874.593	22390
874.722	22284
874.851	22322
874.979	22306
875.108	22375
875.237	22295
875.365	22261
875.494	22325
875.623	22337
875.751	22371
875.88	22310
876.008	22390
876.136	22656
876.265	22736
876.393	22828
876.521	22889
876.65	22820
876.778	22698
876.906	22527
877.034	22451
877.162	22637
877.29	22691
877.418	22641
877.546	22713
877.674	22698
877.802	22584
877.93	22596
878.058	22672
878.185	22455
878.313	22698
878.441	22679
878.568	22512
878.696	22656
878.824	22748
878.951	22755
879.079	22786
879.206	22873
879.333	22866
879.461	22626
879.588	22782
879.715	22801
879.842	22858
879.97	22782
880.097	22504
880.224	22402
880.351	22565
880.478	22557
880.605	22421
880.732	22584
880.859	22710
880.986	22481
881.112	22470
881.239	22287
881.366	22093
881.493	22223
881.619	22040
881.746	22166
881.872	22059
881.999	22048
882.125	22051
882.252	22120
882.378	21979
882.505	22078
882.631	21964
882.757	21774
882.883	21816
883.01	21827
883.136	21701
883.262	21618
883.388	21526
883.514	21686
883.64	21766
883.766	21705
883.892	21603
884.018	21405
884.143	21724
884.269	21720
884.395	21477
884.52	21378
884.646	21344
884.772	21325
884.897	21291
885.023	21336
885.148	21477
885.274	21595
885.399	21454
885.524	21431
885.65	21534
885.775	21378
885.9	21340
886.025	21469
886.15	21450
886.275	21283
886.4	21397
886.525	21386
886.65	21317
886.775	21313
886.9	21450
887.025	21637
887.149	21393
887.274	21165
887.399	21176
887.523	21207
887.648	21169
887.773	21085
887.897	21070
888.021	21142
888.146	21199
888.27	21093
888.395	21340
888.519	21119
888.643	21100
888.767	21306
888.891	21138
889.015	20937
889.139	20914
889.263	20941
889.387	21096
889.511	21173
889.635	21116
889.759	20918
889.883	20910
890.006	20975
890.13	20929
890.254	20872
890.377	20906
890.501	20838
890.624	20644
890.748	20693
890.871	20655
890.995	20507
891.118	20484
891.241	20507
891.364	20545
891.488	20670
891.611	20465
891.734	20556
891.857	20693
891.98	20514
892.103	20507
892.226	20446
892.349	20374
892.471	20256
892.594	20419
892.717	20492
892.839	20336
892.962	20396
893.085	20537
893.207	20480
893.33	20317
893.452	20343
893.575	20419
893.697	20381
893.819	20442
893.941	20560
894.064	20648
894.186	20298
894.308	20229
894.43	20476
894.552	20552
894.674	20393
894.796	20332
894.918	20419
895.04	20412
895.161	20427
895.283	20499
895.405	20336
895.526	20415
895.648	20488
895.769	20473
895.891	20393
896.012	20503
896.134	20442
896.255	20511
896.376	20450
896.498	20324
896.619	20442
896.74	20317
896.861	20415
896.982	20644
897.103	20948
897.224	20762
897.345	20655
897.466	20606
897.587	20708
897.708	20705
897.828	20678
897.949	20636
898.07	20488
898.19	20511
898.311	20701
898.431	20583
898.552	20583
898.672	20762
898.792	20724
898.913	20682
899.033	20415
899.153	20419
899.273	20377
899.393	20336
899.513	20450
899.633	20358
899.753	20366
899.873	20355
899.993	20309
900.113	20347
900.232	20385
900.352	20187
900.472	20294
900.591	20122
900.711	20172
900.83	20081
900.95	20180
901.069	20157
901.189	20092
901.308	19780
901.427	19681
901.546	19586
901.665	19772
901.784	19719
901.904	19552
902.023	19506
902.141	19274
902.26	19213
902.379	19228
902.498	19346
902.617	19133
902.735	19228
902.854	19148
902.973	19072
903.091	18977
903.21	18882
903.328	18772
903.446	18886
903.565	18593
903.683	18677
903.801	18517
903.919	18665
904.038	18566
904.156	18479
904.274	18589
904.392	18490
904.51	18445
904.627	18460
904.745	18471
904.863	18388
904.981	18247
905.098	18110
905.216	18182
905.334	18171
905.451	18209
905.569	18049
905.686	18133
905.803	18087
905.921	18026
906.038	18045
906.155	17980
906.272	17790
906.389	17836
906.506	17611
906.623	17779
906.74	17741
906.857	17543
906.974	17589
907.091	17699
907.208	17687
907.324	17661
907.441	17570
907.557	17433
907.674	17493
907.79	17273
907.907	17452
908.023	17463
908.139	17452
908.256	17265
908.372	17261
908.488	17273
908.604	17220
908.72	17174
908.836	17105
908.952	17018
909.068	17128
909.184	17155
909.3	17178
909.415	17136
909.531	17208
909.647	16839
909.762	16771
909.878	16801
909.993	16797
910.108	16767
910.224	16755
910.339	16820
910.454	16713
910.57	16577
910.685	16558
910.8	16767
910.915	16763
911.03	16691
911.145	16390
911.259	16497
911.374	16447
911.489	16268
911.604	16306
911.718	16154
911.833	16128
911.947	16143
912.062	15899
912.176	16185
912.291	16158
912.405	16112
912.519	16329
912.633	16314
912.748	16211
912.862	16192
912.976	15884
913.09	15804
913.204	15876
913.318	15945
913.431	16067
913.545	16044
913.659	15968
913.772	15953
913.886	15797
914	15743
914.113	15800
914.226	15759
914.34	15751
914.453	15644
914.566	15785
914.68	15625
914.793	15660
914.906	15458
915.019	15298
915.132	15355
915.245	15279
915.358	15458
915.47	15340
915.583	15344
915.696	15408
915.809	15507
915.921	15519
916.034	15283
916.146	15222
916.259	15245
916.371	15272
916.483	15291
916.595	15173
916.708	15173
916.82	15138
916.932	15192
917.044	15116
917.156	15138
917.268	15020
917.38	15051
917.491	15081
917.603	15032
917.715	15108
917.826	15161
917.938	14979
918.049	14880
918.161	14941
918.272	15028
918.384	15157
918.495	14834
918.606	14800
918.717	14743
918.828	14788
918.939	14800
919.05	14686
919.161	14758
919.272	14514
919.383	14621
919.494	14701
919.604	14826
919.715	14693
919.826	14606
919.936	14693
920.047	14735
920.157	14743
920.267	14804
920.378	14743
920.488	14781
920.598	14891
920.708	15005
920.818	14838
920.928	14826
921.038	14960
921.148	14963
921.258	14636
921.368	14583
921.477	14423
921.587	14461
921.697	14301
921.806	14514
921.916	14320
922.025	14210
922.134	14142
922.244	14001
922.353	14126
922.462	13993
922.571	13833
922.68	13655
922.789	13731
922.898	13712
923.007	13651
923.116	13791
923.224	13582
923.333	13700
923.442	13552
923.55	13544
923.659	13578
923.767	13643
923.876	13491
923.984	13586
924.092	13487
924.201	13392
924.309	13506
924.417	13502
924.525	13400
924.633	13400
924.741	14278
924.849	13183
924.956	13396
925.064	13133
925.172	13027
925.279	13190
925.387	13221
925.494	13228
925.602	13171
925.709	13194
925.816	12985
925.924	13004
926.031	13202
926.138	13057
926.245	13175
926.352	13008
926.459	13091
926.566	13114
926.673	13027
926.779	12943
926.886	12916
926.993	12768
927.099	12715
927.206	12608
927.312	12734
927.419	12776
927.525	12635
927.631	12711
927.737	12631
927.843	12589
927.95	12414
928.056	12483
928.162	12555
928.267	12456
928.373	13251
928.479	12582
928.585	12323
928.69	12452
928.796	12509
928.901	12391
929.007	12239
929.112	12323
929.218	12289
929.323	12254
929.428	12243
929.533	12346
929.638	12190
929.743	12190
929.848	12251
929.953	12144
930.058	12053
930.163	11885
930.267	11958
930.372	12011
930.477	11828
930.581	12167
930.685	11988
930.79	11805
930.894	11771
930.998	11775
931.103	11916
931.207	11524
931.311	11474
931.415	11417
931.519	11174
931.623	11109
