Data from test_V78500241_52.txt Node
Date: Fri Mar 25 15:42:09 CST 2022
User: usil
Spectrometer: V785-0024
Trigger mode: 0
Integration Time (sec): 4.000000E-1
Scans to average: 1
Nonlinearity correction enabled: false
Boxcar width: 0
Storing dark spectrum: false
XAxis mode: Wavelengths
Number of Pixels in Spectrum: 1024
>>>>>Begin Spectral Data<<<<<
801.071	29417
801.214	29345
801.356	29261
801.499	29086
801.641	28972
801.783	29094
801.926	29170
802.068	28847
802.211	28824
802.353	28908
802.496	28653
802.638	28584
802.78	28615
802.923	28580
803.065	28497
803.208	28592
803.35	28516
803.492	28710
803.635	28698
803.777	28771
803.919	28771
804.061	29098
804.204	28729
804.346	28577
804.488	28740
804.63	28729
804.773	28535
804.915	28797
805.057	28721
805.199	28630
805.341	28740
805.483	28820
805.626	28930
805.768	28729
805.91	28744
806.052	28820
806.194	28748
806.336	28968
806.478	28698
806.62	28755
806.762	29003
806.904	28968
807.046	29269
807.188	29014
807.33	29231
807.472	29216
807.614	29071
807.756	29208
807.898	28976
808.04	28991
808.182	28877
808.324	28953
808.465	28968
808.607	29128
808.749	29223
808.891	29368
809.033	29516
809.174	29429
809.316	29261
809.458	29273
809.6	29170
809.741	29341
809.883	29467
810.025	29436
810.166	29581
810.308	29577
810.45	29395
810.591	29353
810.733	29273
810.875	29208
811.016	29079
811.158	29105
811.299	29296
811.441	29440
811.582	29231
811.724	29174
811.865	29098
812.007	29197
812.148	29197
812.29	29299
812.431	29398
812.573	29562
812.714	29562
812.855	29562
812.997	29840
813.138	29992
813.279	29904
813.421	29646
813.562	29676
813.703	29562
813.845	29383
813.986	29143
814.127	28885
814.268	28759
814.41	28824
814.551	28816
814.692	28892
814.833	28774
814.974	28660
815.115	28888
815.256	28535
815.397	28653
815.539	28615
815.68	28447
815.821	28386
815.962	28577
816.103	28356
816.244	28306
816.385	28401
816.526	28162
816.666	27918
816.807	27937
816.948	28059
817.089	28040
817.23	27953
817.371	27812
817.512	27835
817.653	27770
817.793	27861
817.934	27819
818.075	27800
818.216	27854
818.356	27873
818.497	27743
818.638	27526
818.778	27622
818.919	27587
819.06	27644
819.2	27762
819.341	27701
819.481	27671
819.622	27945
819.762	27979
819.903	27854
820.043	27968
820.184	27842
820.324	27854
820.465	27926
820.605	27960
820.746	27831
820.886	27622
821.026	27743
821.167	27644
821.307	27918
821.447	27804
821.588	27701
821.728	27492
821.868	27245
822.008	27199
822.149	27268
822.289	27237
822.429	27020
822.569	26838
822.709	26861
822.849	26644
822.99	26651
823.13	26689
823.27	26682
823.41	26446
823.55	26511
823.69	26518
823.83	26461
823.97	26370
824.11	26237
824.25	26176
824.389	26134
824.529	26381
824.669	26176
824.809	26225
824.949	26351
825.089	26355
825.228	26183
825.368	26050
825.508	25940
825.648	26031
825.787	26050
825.927	26119
826.067	25974
826.206	26012
826.346	26001
826.485	26134
826.625	26115
826.765	26191
826.904	26005
827.044	25822
827.183	25780
827.323	25674
827.462	25677
827.601	25784
827.741	25601
827.88	25791
828.02	25647
828.159	25601
828.298	25723
828.437	25677
828.577	25605
828.716	25693
828.855	25495
828.994	25411
829.134	25377
829.273	25464
829.412	25282
829.551	25259
829.69	25251
829.829	25335
829.968	25373
830.107	25358
830.246	25362
830.385	25285
830.524	25076
830.663	25118
830.802	25072
830.941	24795
831.08	24882
831.219	24966
831.357	24966
831.496	25129
831.635	24890
831.774	24795
831.913	24650
832.051	24650
832.19	24688
832.329	24608
832.467	24410
832.606	24361
832.744	24475
832.883	24407
833.022	24574
833.16	24433
833.299	24391
833.437	24319
833.576	24536
833.714	24437
833.852	24467
833.991	24505
834.129	24612
834.267	24570
834.406	24422
834.544	24570
834.682	24437
834.821	24407
834.959	24559
835.097	24334
835.235	24570
835.373	24452
835.511	24418
835.65	24300
835.788	24270
835.926	24129
836.064	24049
836.202	24136
836.34	24315
836.478	24285
836.615	24243
836.753	24334
836.891	24426
837.029	24289
837.167	24266
837.305	24152
837.443	24277
837.58	24121
837.718	24277
837.856	24159
837.993	24095
838.131	24091
838.269	24011
838.406	24015
838.544	23893
838.681	23878
838.819	23756
838.956	23516
839.094	23398
839.231	23729
839.369	23760
839.506	23893
839.643	23767
839.781	23577
839.918	23440
840.055	23573
840.193	23387
840.33	23463
840.467	23455
840.604	23497
840.742	23733
840.879	23117
841.016	23318
841.153	23311
841.29	23410
841.427	23318
841.564	23493
841.701	23387
841.838	23231
841.975	23220
842.112	23299
842.249	23387
842.385	23079
842.522	23307
842.659	23109
842.796	23124
842.933	23060
843.069	23029
843.206	23041
843.343	23064
843.479	23003
843.616	23083
843.752	22904
843.889	22733
844.025	23014
844.162	22801
844.298	22839
844.435	22786
844.571	22641
844.708	22668
844.844	22961
844.98	22843
845.117	22831
845.253	22767
845.389	22641
845.525	22683
845.661	22641
845.798	22413
845.934	22607
846.07	22382
846.206	22432
846.342	22554
846.478	22421
846.614	22329
846.75	22223
846.886	22238
847.022	22379
847.158	22215
847.294	22265
847.429	22249
847.565	22048
847.701	22371
847.837	21983
847.972	21785
848.108	21941
848.244	21922
848.379	21869
848.515	21724
848.65	21770
848.786	21705
848.921	21774
849.057	21797
849.192	21861
849.328	21743
849.463	21785
849.598	21686
849.734	21637
849.869	21629
850.004	21549
850.14	21618
850.275	21481
850.41	21454
850.545	21504
850.68	21313
850.815	21511
850.95	21329
851.085	21553
851.22	21583
851.355	21473
851.49	21389
851.625	21431
851.76	21393
851.895	21382
852.03	21344
852.165	21504
852.299	21538
852.434	21595
852.569	21454
852.703	21336
852.838	21386
852.973	21580
853.107	21458
853.242	21344
853.376	21298
853.511	21104
853.645	21218
853.78	21336
853.914	21287
854.048	21252
854.183	21237
854.317	21214
854.451	21370
854.585	21131
854.72	21245
854.854	21378
854.988	21108
855.122	21188
855.256	21089
855.39	21188
855.524	21298
855.658	21100
855.792	21351
855.926	21188
856.06	21245
856.194	21477
856.327	21165
856.461	21222
856.595	21127
856.729	21203
856.862	21378
856.996	21173
857.13	21241
857.263	21294
857.397	21302
857.53	21142
857.664	21264
857.797	21211
857.931	21397
858.064	21176
858.197	21378
858.331	21108
858.464	21108
858.597	21112
858.731	21176
858.864	21161
858.997	21096
859.13	21161
859.263	21211
859.396	21275
859.529	21161
859.662	21085
859.795	21043
859.928	21211
860.061	21332
860.194	21313
860.327	21108
860.46	21180
860.592	21287
860.725	21085
860.858	21188
860.99	21047
861.123	21032
861.256	21009
861.388	21020
861.521	21698
861.653	21100
861.786	20872
861.918	21058
862.05	21142
862.183	21138
862.315	21184
862.447	21264
862.58	21154
862.712	20895
862.844	20807
862.976	20933
863.108	20834
863.24	21272
863.372	20876
863.504	20773
863.636	20834
863.768	20765
863.9	20785
864.032	20743
864.164	20796
864.296	20849
864.428	21028
864.559	20967
864.691	20891
864.823	20765
864.954	20872
865.086	20864
865.217	20682
865.349	20651
865.48	20727
865.612	20708
865.743	20845
865.875	20788
866.006	20727
866.137	20708
866.269	20686
866.4	20659
866.531	20644
866.662	20689
866.793	20651
866.924	20693
867.055	20693
867.186	20689
867.317	20575
867.448	20644
867.579	20777
867.71	20560
867.841	20503
867.972	20663
868.103	20571
868.233	20575
868.364	20598
868.495	20792
868.625	20880
868.756	20906
868.886	20727
869.017	20842
869.147	20952
869.278	21089
869.408	20891
869.539	20914
869.669	20960
869.799	20918
869.929	20986
870.06	20914
870.19	21233
870.32	21051
870.45	21214
870.58	21230
870.71	21268
870.84	21332
870.97	21207
871.1	21252
871.23	21408
871.36	21466
871.489	21420
871.619	21428
871.749	21466
871.879	21473
872.008	21633
872.138	21492
872.267	21450
872.397	21428
872.526	21256
872.656	21237
872.785	21275
872.915	21511
873.044	21412
873.173	21477
873.303	21526
873.432	21572
873.561	21564
873.69	21511
873.819	21530
873.948	21713
874.077	21348
874.206	21431
874.335	21481
874.464	21591
874.593	21842
874.722	21549
874.851	21823
874.979	21743
875.108	21778
875.237	21770
875.365	21656
875.494	21614
875.623	21728
875.751	21587
875.88	21663
876.008	21873
876.136	21884
876.265	22147
876.393	22291
876.521	22173
876.65	22287
876.778	22082
876.906	22105
877.034	21979
877.162	21956
877.29	22067
877.418	22044
877.546	22055
877.674	21987
877.802	22124
877.93	22070
878.058	22013
878.185	22010
878.313	21972
878.441	22135
878.568	21812
878.696	21911
878.824	22101
878.951	22272
879.079	22306
879.206	22417
879.333	22242
879.461	22219
879.588	22139
879.715	22265
879.842	22314
879.97	22048
880.097	21949
880.224	21876
880.351	21846
880.478	21987
880.605	21831
880.732	21895
880.859	22200
880.986	21930
881.112	21972
881.239	21812
881.366	21622
881.493	21625
881.619	21439
881.746	21610
881.872	21496
881.999	21481
882.125	21424
882.252	21485
882.378	21504
882.505	21591
882.631	21332
882.757	21393
882.883	21313
883.01	21279
883.136	21230
883.262	21062
883.388	21013
883.514	21199
883.64	21207
883.766	21157
883.892	21024
884.018	21013
884.143	21180
884.269	21272
884.395	21013
884.52	20883
884.646	20902
884.772	20769
884.897	20906
885.023	20872
885.148	20933
885.274	21066
885.399	20960
885.524	20823
885.65	20792
885.775	20956
885.9	20811
886.025	20895
886.15	20868
886.275	20739
886.4	20758
886.525	20769
886.65	20811
886.775	20625
886.9	20887
887.025	21051
887.149	20678
887.274	20659
887.399	20629
887.523	20495
887.648	20537
887.773	20511
887.897	20678
888.021	20609
888.146	20461
888.27	20606
888.395	20621
888.519	20587
888.643	20568
888.767	20598
888.891	20442
889.015	20366
889.139	20366
889.263	20332
889.387	20457
889.511	20495
889.635	20389
889.759	20278
889.883	20240
890.006	20396
890.13	20476
890.254	20225
890.377	20259
890.501	20229
890.624	20111
890.748	20229
890.871	19955
890.995	19887
891.118	19841
891.241	19997
891.364	19955
891.488	20119
891.611	19963
891.734	19974
891.857	20001
891.98	19970
892.103	19982
892.226	20046
892.349	19936
892.471	19818
892.594	19864
892.717	19890
892.839	19814
892.962	19887
893.085	19894
893.207	19909
893.33	19761
893.452	19715
893.575	19864
893.697	19879
893.819	20050
893.941	20065
894.064	19963
894.186	19719
894.308	19685
894.43	19913
894.552	19932
894.674	19883
894.796	19784
894.918	19731
895.04	19807
895.161	19845
895.283	19849
895.405	19731
895.526	19712
895.648	19860
895.769	19913
895.891	19818
896.012	19879
896.134	20100
896.255	20008
896.376	19708
896.498	19959
896.619	19925
896.74	19967
896.861	19997
896.982	20168
897.103	20320
897.224	20225
897.345	20149
897.466	20084
897.587	20115
897.708	20202
897.828	20035
897.949	20069
898.07	19906
898.19	19936
898.311	20111
898.431	19936
898.552	20031
898.672	20271
898.792	20145
898.913	19986
899.033	19898
899.153	19814
899.273	19734
899.393	19616
899.513	19757
899.633	19765
899.753	19849
899.873	19708
899.993	19860
900.113	19609
900.232	19814
900.352	19677
900.472	19578
900.591	19499
900.711	19609
900.83	19514
900.95	19662
901.069	19647
901.189	19453
901.308	19274
901.427	19183
901.546	19236
901.665	19206
901.784	19152
901.904	19088
902.023	18920
902.141	18798
902.26	18795
902.379	18745
902.498	18563
902.617	18650
902.735	18642
902.854	18585
902.973	18544
903.091	18319
903.21	18247
903.328	18201
903.446	18117
903.565	18129
903.683	18091
903.801	18007
903.919	18049
904.038	18095
904.156	17874
904.274	18102
904.392	17775
904.51	17920
904.627	17748
904.745	17920
904.863	18015
904.981	17737
905.098	17634
905.216	17505
905.334	17627
905.451	17646
905.569	17490
905.686	17649
905.803	17600
905.921	17387
906.038	17414
906.155	17349
906.272	17189
906.389	17193
906.506	17143
906.623	17048
906.74	17045
906.857	16892
906.974	16961
907.091	17159
907.208	17117
907.324	17094
907.441	16957
907.557	16873
907.674	16793
907.79	16611
907.907	16660
908.023	16782
908.139	16854
908.256	16683
908.372	16649
908.488	16641
908.604	16531
908.72	16443
908.836	16447
908.952	16322
909.068	16462
909.184	16622
909.3	16398
909.415	16409
909.531	16402
909.647	16143
909.762	15975
909.878	16048
909.993	16109
910.108	16059
910.224	16051
910.339	16082
910.454	15907
910.57	15911
910.685	15915
910.8	16101
910.915	16055
911.03	15876
911.145	15724
911.259	15827
911.374	15739
911.489	15747
911.604	15656
911.718	15496
911.833	15477
911.947	15408
912.062	15321
912.176	15481
912.291	15530
912.405	15500
912.519	15610
912.633	15610
912.748	15538
912.862	15336
912.976	15287
913.09	15123
913.204	15138
913.318	15272
913.431	15313
913.545	15283
913.659	15443
913.772	15157
913.886	15138
914	15142
914.113	15077
914.226	15245
914.34	15184
914.453	15009
914.566	15161
914.68	14899
914.793	14845
914.906	14746
915.019	14727
915.132	14594
915.245	14701
915.358	14727
915.47	14625
915.583	14800
915.696	14708
915.809	14815
915.921	14842
916.034	14621
916.146	14549
916.259	14613
916.371	14746
916.483	14682
916.595	14594
916.708	14431
916.82	14476
916.932	14533
917.044	14454
917.156	14461
917.268	14313
917.38	14469
917.491	14393
917.603	14351
917.715	14431
917.826	14454
917.938	14377
918.049	14259
918.161	14221
918.272	14526
918.384	14389
918.495	14317
918.606	14237
918.717	14058
918.828	14164
918.939	14180
919.05	14100
919.161	14084
919.272	13921
919.383	13898
919.494	14130
919.604	14233
919.715	14012
919.826	13974
919.936	14069
920.047	14092
920.157	14054
920.267	14244
920.378	14058
920.488	14027
920.598	14142
920.708	14339
920.818	14180
920.928	14157
921.038	14271
921.148	14214
921.258	14039
921.368	13879
921.477	13822
921.587	13788
921.697	13655
921.806	13780
921.916	13601
922.025	13502
922.134	13438
922.244	13346
922.353	13419
922.462	13396
922.571	13206
922.68	13118
922.789	12962
922.898	13114
923.007	12981
923.116	13012
923.224	13084
923.333	12966
923.442	12878
923.55	12878
923.659	12859
923.767	12958
923.876	12852
923.984	12913
924.092	12749
924.201	12833
924.309	12783
924.417	12791
924.525	12719
924.633	12814
924.741	13742
924.849	12627
924.956	12692
925.064	12502
925.172	12433
925.279	12460
925.387	12498
925.494	12528
925.602	12597
925.709	12544
925.816	12319
925.924	12376
926.031	12486
926.138	12452
926.245	12429
926.352	12369
926.459	12410
926.566	12555
926.673	12330
926.779	12323
926.886	12201
926.993	12152
927.099	12121
927.206	11988
927.312	12049
927.419	12155
927.525	12064
927.631	12117
927.737	11984
927.843	11958
927.95	11741
928.056	11942
928.162	11878
928.267	11901
928.373	12585
928.479	11950
928.585	11718
928.69	11893
928.796	11843
928.901	11809
929.007	11615
929.112	11790
929.218	11710
929.323	11668
929.428	11680
929.533	11741
929.638	11634
929.743	11649
929.848	11661
929.953	11532
930.058	11463
930.163	11345
930.267	11421
930.372	11474
930.477	11284
930.581	11497
930.685	11410
930.79	11147
930.894	11216
930.998	11109
931.103	11273
931.207	10908
931.311	10854
931.415	10740
931.519	10558
931.623	10523
