Data from test_V78500241_2883.txt Node
Date: Fri Mar 25 16:01:46 CST 2022
User: usil
Spectrometer: V785-0024
Trigger mode: 0
Integration Time (sec): 4.000000E-1
Scans to average: 1
Nonlinearity correction enabled: false
Boxcar width: 0
Storing dark spectrum: false
XAxis mode: Wavelengths
Number of Pixels in Spectrum: 1024
>>>>>Begin Spectral Data<<<<<
801.071	28569
801.214	28565
801.356	28322
801.499	28455
801.641	28272
801.783	28177
801.926	28158
802.068	28223
802.211	28128
802.353	28143
802.496	27895
802.638	27854
802.78	27800
802.923	27842
803.065	27751
803.208	27835
803.35	27930
803.492	28013
803.635	28116
803.777	28040
803.919	28128
804.061	28348
804.204	28238
804.346	27937
804.488	28112
804.63	28169
804.773	28010
804.915	28204
805.057	28272
805.199	28192
805.341	28303
805.483	28246
805.626	28344
805.768	28215
805.91	28440
806.052	28272
806.194	28230
806.336	28375
806.478	28382
806.62	28204
806.762	28485
806.904	28565
807.046	28801
807.188	28706
807.33	28782
807.472	28873
807.614	28668
807.756	28767
807.898	28546
808.04	28504
808.182	28630
808.324	28584
808.465	28736
808.607	28824
808.749	28919
808.891	28965
809.033	29117
809.174	29018
809.316	29060
809.458	29113
809.6	28961
809.741	29128
809.883	29098
810.025	29185
810.166	29208
810.308	29151
810.45	29166
810.591	29204
810.733	28999
810.875	29041
811.016	28877
811.158	28900
811.299	29064
811.441	29185
811.582	29178
811.724	28873
811.865	28888
812.007	28923
812.148	28957
812.29	29048
812.431	29166
812.573	29315
812.714	29459
812.855	29444
812.997	29627
813.138	29771
813.279	29657
813.421	29490
813.562	29436
813.703	29368
813.845	29151
813.986	29056
814.127	28626
814.268	28599
814.41	28759
814.551	28622
814.692	28759
814.833	28706
814.974	28611
815.115	28694
815.256	28569
815.397	28554
815.539	28440
815.68	28459
815.821	28451
815.962	28493
816.103	28360
816.244	28462
816.385	28280
816.526	28375
816.666	28150
816.807	27994
816.948	28029
817.089	28082
817.23	27949
817.371	28082
817.512	28017
817.653	27953
817.793	27918
817.934	28067
818.075	27960
818.216	28044
818.356	27850
818.497	27926
818.638	27549
818.778	27762
818.919	27838
819.06	27759
819.2	27956
819.341	27945
819.481	27899
819.622	28265
819.762	28367
819.903	28219
820.043	28280
820.184	28177
820.324	28147
820.465	28135
820.605	28082
820.746	28124
820.886	27979
821.026	28272
821.167	28063
821.307	28181
821.447	28055
821.588	27907
821.728	27728
821.868	27633
822.008	27469
822.149	27504
822.289	27485
822.429	27275
822.569	27116
822.709	27275
822.849	26975
822.99	26899
823.13	26929
823.27	26929
823.41	26811
823.55	26655
823.69	26868
823.83	26712
823.97	26804
824.11	26686
824.25	26579
824.389	26735
824.529	26571
824.669	26667
824.809	26644
824.949	26735
825.089	26682
825.228	26621
825.368	26446
825.508	26473
825.648	26613
825.787	26503
825.927	26571
826.067	26549
826.206	26499
826.346	26556
826.485	26583
826.625	26495
826.765	26648
826.904	26594
827.044	26298
827.183	26267
827.323	26237
827.462	26278
827.601	26286
827.741	26252
827.88	26271
828.02	26199
828.159	26233
828.298	26172
828.437	26286
828.577	26248
828.716	26168
828.855	26077
828.994	25940
829.134	26008
829.273	25925
829.412	25871
829.551	25837
829.69	25909
829.829	25852
829.968	25989
830.107	25970
830.246	25936
830.385	25833
830.524	25986
830.663	25685
830.802	25624
830.941	25533
831.08	25499
831.219	25559
831.357	25635
831.496	25788
831.635	25506
831.774	25373
831.913	25415
832.051	25232
832.19	25373
832.329	25426
832.467	25206
832.606	25175
832.744	25076
832.883	25240
833.022	25190
833.16	25126
833.299	25270
833.437	25320
833.576	25297
833.714	25293
833.852	25240
833.991	25331
834.129	25472
834.267	25312
834.406	25327
834.544	25244
834.682	25247
834.821	25293
834.959	25438
835.097	25145
835.235	25282
835.373	25240
835.511	25285
835.65	25072
835.788	25126
835.926	24966
836.064	24897
836.202	25046
836.34	25110
836.478	25122
836.615	24970
836.753	25076
836.891	25122
837.029	25103
837.167	24996
837.305	25050
837.443	25034
837.58	24871
837.718	24943
837.856	24905
837.993	24890
838.131	24905
838.269	24825
838.406	24791
838.544	24730
838.681	24403
838.819	24486
838.956	24266
839.094	24441
839.231	24395
839.369	24517
839.506	24787
839.643	24654
839.781	24330
839.918	24220
840.055	24353
840.193	24262
840.33	24167
840.467	24353
840.604	24369
840.742	24566
840.879	24079
841.016	24315
841.153	24110
841.29	24281
841.427	24270
841.564	24445
841.701	24304
841.838	24220
841.975	24041
842.112	24334
842.249	23946
842.385	23942
842.522	24114
842.659	24087
842.796	23901
842.933	24026
843.069	24041
843.206	23980
843.343	24110
843.479	24049
843.616	23939
843.752	23821
843.889	23874
844.025	24018
844.162	23752
844.298	23904
844.435	23840
844.571	23805
844.708	23771
844.844	23999
844.98	23908
845.117	23961
845.253	23832
845.389	23710
845.525	23672
845.661	23543
845.798	23478
845.934	23455
846.07	23497
846.206	23493
846.342	23646
846.478	23490
846.614	23326
846.75	23204
846.886	23360
847.022	23368
847.158	23322
847.294	23170
847.429	23326
847.565	23113
847.701	23501
847.837	22771
847.972	22972
848.108	23113
848.244	23033
848.379	22850
848.515	22835
848.65	22809
848.786	22828
848.921	22717
849.057	23075
849.192	22889
849.328	22763
849.463	22816
849.598	22850
849.734	22736
849.869	22774
850.004	22542
850.14	22565
850.275	22531
850.41	22516
850.545	22538
850.68	22531
850.815	22607
850.95	22672
851.085	22820
851.22	22725
851.355	22630
851.49	22618
851.625	22554
851.76	22641
851.895	22527
852.03	22447
852.165	22637
852.299	22630
852.434	22713
852.569	22687
852.703	22546
852.838	22622
852.973	22812
853.107	22702
853.242	22554
853.376	22470
853.511	22379
853.645	22497
853.78	22470
853.914	22402
854.048	22382
854.183	22360
854.317	22493
854.451	22622
854.585	22451
854.72	22398
854.854	22592
854.988	22455
855.122	22344
855.256	22325
855.39	22386
855.524	22371
855.658	22375
855.792	22390
855.926	22466
856.06	22599
856.194	22504
856.327	22390
856.461	22398
856.595	22318
856.729	22314
856.862	22573
856.996	22405
857.13	22493
857.263	22485
857.397	22481
857.53	22382
857.664	22360
857.797	22508
857.931	22542
858.064	22519
858.197	22447
858.331	22447
858.464	22382
858.597	22402
858.731	22447
858.864	22382
858.997	22417
859.13	22481
859.263	22535
859.396	22295
859.529	22352
859.662	22333
859.795	22265
859.928	22413
860.061	22679
860.194	22516
860.327	22455
860.46	22466
860.592	22626
860.725	22599
860.858	22561
860.99	22398
861.123	22470
861.256	22413
861.388	22421
861.521	23204
861.653	22344
861.786	22265
861.918	22261
862.05	22223
862.183	22352
862.315	22451
862.447	22375
862.58	22333
862.712	22109
862.844	22268
862.976	22173
863.108	22124
863.24	22588
863.372	22051
863.504	22188
863.636	22162
863.768	22120
863.9	22207
864.032	22093
864.164	22162
864.296	22093
864.428	22120
864.559	22169
864.691	22207
864.823	22207
864.954	22131
865.086	22090
865.217	22006
865.349	22010
865.48	21964
865.612	22166
865.743	22265
865.875	22048
866.006	21922
866.137	21991
866.269	22017
866.4	21956
866.531	21918
866.662	21778
866.793	21964
866.924	22025
867.055	21987
867.186	21975
867.317	21918
867.448	21880
867.579	21945
867.71	21873
867.841	21865
867.972	22059
868.103	22124
868.233	21941
868.364	21934
868.495	21994
868.625	22192
868.756	22344
868.886	22143
869.017	22173
869.147	22299
869.278	22276
869.408	22112
869.539	22147
869.669	22223
869.799	22291
869.929	22348
870.06	22265
870.19	22481
870.32	22371
870.45	22451
870.58	22542
870.71	22790
870.84	22584
870.97	22561
871.1	22580
871.23	22828
871.36	22809
871.489	22637
871.619	22793
871.749	22816
871.879	22786
872.008	22953
872.138	22873
872.267	22930
872.397	22660
872.526	22538
872.656	22656
872.785	22656
872.915	22736
873.044	22885
873.173	22793
873.303	22972
873.432	22839
873.561	22961
873.69	22801
873.819	22839
873.948	22850
874.077	22850
874.206	22691
874.335	22782
874.464	22987
874.593	23010
874.722	23029
874.851	23083
874.979	23124
875.108	23037
875.237	22953
875.365	22919
875.494	22896
875.623	23086
875.751	22946
875.88	22972
876.008	23212
876.136	23159
876.265	23482
876.393	23516
876.521	23414
876.65	23531
876.778	23436
876.906	23383
877.034	23391
877.162	23341
877.29	23220
877.418	23379
877.546	23467
877.674	23318
877.802	23258
877.93	23277
878.058	23341
878.185	23212
878.313	23159
878.441	23368
878.568	23098
878.696	23299
878.824	23406
878.951	23444
879.079	23505
879.206	23600
879.333	23630
879.461	23459
879.588	23478
879.715	23490
879.842	23623
879.97	23436
880.097	23178
880.224	23147
880.351	23277
880.478	23246
880.605	23094
880.732	23143
880.859	23368
880.986	23261
881.112	23223
881.239	23006
881.366	22927
881.493	22824
881.619	22664
881.746	22824
881.872	22850
881.999	22653
882.125	22649
882.252	22694
882.378	22759
882.505	22782
882.631	22550
882.757	22478
882.883	22512
883.01	22382
883.136	22291
883.262	22246
883.388	22238
883.514	22451
883.64	22573
883.766	22314
883.892	22200
884.018	22048
884.143	22341
884.269	22421
884.395	22048
884.52	21956
884.646	22055
884.772	22040
884.897	21922
885.023	22105
885.148	22128
885.274	22139
885.399	22082
885.524	22021
885.65	22124
885.775	22013
885.9	22040
886.025	22158
886.15	22101
886.275	21956
886.4	21953
886.525	22040
886.65	21987
886.775	22044
886.9	22093
887.025	22200
887.149	22044
887.274	21812
887.399	21850
887.523	21854
887.648	21804
887.773	21793
887.897	21949
888.021	21774
888.146	21728
888.27	21956
888.395	21918
888.519	21892
888.643	21907
888.767	21759
888.891	21705
889.015	21568
889.139	21637
889.263	21576
889.387	21667
889.511	21819
889.635	21720
889.759	21530
889.883	21610
890.006	21686
890.13	21675
890.254	21557
890.377	21557
890.501	21252
890.624	21408
890.748	21466
890.871	21306
890.995	21150
891.118	21161
891.241	21108
891.364	21184
891.488	21249
891.611	21184
891.734	21260
891.857	21112
891.98	21268
892.103	21165
892.226	21131
892.349	21199
892.471	21062
892.594	21017
892.717	21195
892.839	21039
892.962	21036
893.085	21142
893.207	21009
893.33	21047
893.452	21024
893.575	21074
893.697	21066
893.819	21264
893.941	21218
894.064	21245
894.186	21039
894.308	20887
894.43	21150
894.552	21230
894.674	21100
894.796	20960
894.918	20963
895.04	21058
895.161	21192
895.283	21039
895.405	20963
895.526	21005
895.648	21013
895.769	21024
895.891	21020
896.012	21036
896.134	21093
896.255	21081
896.376	21074
896.498	20944
896.619	21013
896.74	20998
896.861	21089
896.982	21237
897.103	21523
897.224	21397
897.345	21199
897.466	21226
897.587	21241
897.708	21447
897.828	21226
897.949	21138
898.07	21013
898.19	21112
898.311	21142
898.431	21112
898.552	21218
898.672	21264
898.792	21405
898.913	21195
899.033	21173
899.153	21024
899.273	20823
899.393	20815
899.513	21043
899.633	20963
899.753	21074
899.873	20967
899.993	20937
900.113	20941
900.232	20842
900.352	20853
900.472	20788
900.591	20697
900.711	20743
900.83	20701
900.95	20792
901.069	20746
901.189	20640
901.308	20442
901.427	20214
901.546	20328
901.665	20199
901.784	20275
901.904	20081
902.023	20058
902.141	19803
902.26	19791
902.379	19772
902.498	19883
902.617	19776
902.735	19715
902.854	19750
902.973	19700
903.091	19575
903.21	19449
903.328	19537
903.446	19324
903.565	19331
903.683	19228
903.801	19114
903.919	19236
904.038	19213
904.156	19042
904.274	19160
904.392	19012
904.51	18920
904.627	18993
904.745	19133
904.863	19122
904.981	18848
905.098	18738
905.216	18745
905.334	18696
905.451	18673
905.569	18684
905.686	18764
905.803	18711
905.921	18521
906.038	18544
906.155	18612
906.272	18323
906.389	18353
906.506	18174
906.623	18323
906.74	18140
906.857	18216
906.974	18121
907.091	18262
907.208	18281
907.324	18209
907.441	18079
907.557	17958
907.674	17996
907.79	17798
907.907	17847
908.023	17863
908.139	17939
908.256	17866
908.372	17843
908.488	17817
908.604	17680
908.72	17623
908.836	17661
908.952	17600
909.068	17733
909.184	17729
909.3	17539
909.415	17695
909.531	17539
909.647	17406
909.762	17349
909.878	17284
909.993	17402
910.108	17334
910.224	17170
910.339	17261
910.454	17174
910.57	17166
910.685	17094
910.8	17349
910.915	17303
911.03	17124
911.145	16965
911.259	16850
911.374	16889
911.489	16740
911.604	16759
911.718	16653
911.833	16721
911.947	16634
912.062	16447
912.176	16710
912.291	16683
912.405	16649
912.519	16805
912.633	16869
912.748	16649
912.862	16599
912.976	16417
913.09	16371
913.204	16386
913.318	16561
913.431	16466
913.545	16538
913.659	16493
913.772	16379
913.886	16333
914	16261
914.113	16367
914.226	16466
914.34	16341
914.453	16131
914.566	16253
914.68	16120
914.793	16055
914.906	15918
915.019	15827
915.132	15759
915.245	15766
915.358	15804
915.47	15823
915.583	15793
915.696	15827
915.809	15876
915.921	15972
916.034	15686
916.146	15728
916.259	15667
916.371	15785
916.483	15827
916.595	15572
916.708	15682
916.82	15622
916.932	15523
917.044	15561
917.156	15557
917.268	15454
917.38	15504
917.491	15515
917.603	15526
917.715	15504
917.826	15485
917.938	15397
918.049	15302
918.161	15374
918.272	15462
918.384	15496
918.495	15389
918.606	15214
918.717	15070
918.828	15260
918.939	15184
919.05	15142
919.161	15169
919.272	15028
919.383	15043
919.494	15192
919.604	15351
919.715	15203
919.826	15039
919.936	15214
920.047	15138
920.157	15138
920.267	15325
920.378	15142
920.488	15005
920.598	15321
920.708	15393
920.818	15256
920.928	15287
921.038	15473
921.148	15393
921.258	15093
921.368	14906
921.477	14868
921.587	14853
921.697	14811
921.806	14819
921.916	14655
922.025	14590
922.134	14594
922.244	14571
922.353	14545
922.462	14423
922.571	14298
922.68	14107
922.789	14115
922.898	14164
923.007	14054
923.116	14145
923.224	14256
923.333	14081
923.442	14012
923.55	13913
923.659	13898
923.767	13944
923.876	14035
923.984	14043
924.092	13837
924.201	13913
924.309	13830
924.417	13837
924.525	13841
924.633	13818
924.741	14670
924.849	13658
924.956	13704
925.064	13578
925.172	13487
925.279	13506
925.387	13499
925.494	13559
925.602	13666
925.709	13537
925.816	13464
925.924	13453
926.031	13586
926.138	13422
926.245	13438
926.352	13396
926.459	13544
926.566	13510
926.673	13453
926.779	13285
926.886	13255
926.993	13126
927.099	13141
927.206	12981
927.312	12993
927.419	13084
927.525	12989
927.631	13050
927.737	12985
927.843	12878
927.95	12779
928.056	12791
928.162	12905
928.267	12966
928.373	13529
928.479	12985
928.585	12696
928.69	12745
928.796	12916
928.901	12779
929.007	12620
929.112	12749
929.218	12715
929.323	12517
929.428	12559
929.533	12715
929.638	12551
929.743	12551
929.848	12585
929.953	12475
930.058	12433
930.163	12292
930.267	12338
930.372	12372
930.477	12163
930.581	12418
930.685	12270
930.79	12182
930.894	12163
930.998	12087
931.103	12209
931.207	11901
931.311	11935
931.415	11676
931.519	11543
931.623	11452
