Data from test_V78500241_1086.txt Node
Date: Fri Mar 25 15:49:19 CST 2022
User: usil
Spectrometer: V785-0024
Trigger mode: 0
Integration Time (sec): 4.000000E-1
Scans to average: 1
Nonlinearity correction enabled: false
Boxcar width: 0
Storing dark spectrum: false
XAxis mode: Wavelengths
Number of Pixels in Spectrum: 1024
>>>>>Begin Spectral Data<<<<<
801.071	28386
801.214	28390
801.356	27941
801.499	27850
801.641	27827
801.783	27861
801.926	27789
802.068	27816
802.211	27808
802.353	27789
802.496	27694
802.638	27553
802.78	27492
802.923	27382
803.065	27405
803.208	27519
803.35	27530
803.492	27599
803.635	27720
803.777	27736
803.919	27816
804.061	28124
804.204	27732
804.346	27709
804.488	27660
804.63	27667
804.773	27641
804.915	27774
805.057	27869
805.199	27633
805.341	27842
805.483	27934
805.626	27907
805.768	27717
805.91	27804
806.052	27907
806.194	27827
806.336	28013
806.478	27937
806.62	27934
806.762	28059
806.904	28188
807.046	28268
807.188	28394
807.33	28257
807.472	28303
807.614	28329
807.756	28287
807.898	28219
808.04	28162
808.182	28257
808.324	28185
808.465	28371
808.607	28417
808.749	28577
808.891	28565
809.033	28599
809.174	28542
809.316	28470
809.458	28504
809.6	28504
809.741	28782
809.883	28675
810.025	28854
810.166	28984
810.308	28942
810.45	28752
810.591	28702
810.733	28561
810.875	28580
811.016	28622
811.158	28607
811.299	28698
811.441	28820
811.582	28778
811.724	28759
811.865	28603
812.007	28672
812.148	28759
812.29	28618
812.431	28710
812.573	28892
812.714	29109
812.855	29075
812.997	29208
813.138	29311
813.279	29303
813.421	29292
813.562	29056
813.703	28961
813.845	28801
813.986	28573
814.127	28459
814.268	28306
814.41	28310
814.551	28238
814.692	28474
814.833	28169
814.974	28226
815.115	28306
815.256	28211
815.397	28101
815.539	28078
815.68	28177
815.821	27960
815.962	28196
816.103	28086
816.244	28093
816.385	27949
816.526	27732
816.666	27766
816.807	27568
816.948	27637
817.089	27648
817.23	27583
817.371	27568
817.512	27652
817.653	27519
817.793	27408
817.934	27450
818.075	27587
818.216	27770
818.356	27629
818.497	27682
818.638	27279
818.778	27534
818.919	27313
819.06	27526
819.2	27599
819.341	27557
819.481	27545
819.622	27789
819.762	28025
819.903	27865
820.043	27660
820.184	27762
820.324	27831
820.465	27774
820.605	27576
820.746	27793
820.886	27557
821.026	27656
821.167	27751
821.307	27770
821.447	27583
821.588	27557
821.728	27519
821.868	27370
822.008	27093
822.149	27180
822.289	27089
822.429	26849
822.569	26724
822.709	26758
822.849	26560
822.99	26678
823.13	26514
823.27	26533
823.41	26423
823.55	26332
823.69	26320
823.83	26511
823.97	26381
824.11	26138
824.25	26134
824.389	26389
824.529	26320
824.669	26218
824.809	26446
824.949	26446
825.089	26412
825.228	26244
825.368	26134
825.508	26092
825.648	26100
825.787	26122
825.927	26229
826.067	26130
826.206	26157
826.346	26218
826.485	26191
826.625	26103
826.765	26084
826.904	26043
827.044	25917
827.183	25868
827.323	25875
827.462	25841
827.601	25704
827.741	25887
827.88	25826
828.02	25784
828.159	25818
828.298	25917
828.437	25818
828.577	25765
828.716	25947
828.855	25803
828.994	25548
829.134	25381
829.273	25495
829.412	25571
829.551	25464
829.69	25422
829.829	25518
829.968	25430
830.107	25666
830.246	25601
830.385	25567
830.524	25422
830.663	25358
830.802	25354
830.941	25095
831.08	25122
831.219	25209
831.357	25202
831.496	25381
831.635	25175
831.774	25019
831.913	24924
832.051	24916
832.19	24760
832.329	24985
832.467	24882
832.606	24741
832.744	24837
832.883	24833
833.022	24753
833.16	24856
833.299	24779
833.437	24741
833.576	24833
833.714	24932
833.852	24863
833.991	24894
834.129	24890
834.267	24970
834.406	24863
834.544	24932
834.682	24856
834.821	24833
834.959	24962
835.097	24616
835.235	24821
835.373	24905
835.511	24882
835.65	24517
835.788	24707
835.926	24566
836.064	24601
836.202	24612
836.34	24734
836.478	24688
836.615	24669
836.753	24604
836.891	24787
837.029	24745
837.167	24623
837.305	24544
837.443	24532
837.58	24528
837.718	24658
837.856	24604
837.993	24445
838.131	24616
838.269	24505
838.406	24391
838.544	24357
838.681	24136
838.819	24174
838.956	24068
839.094	24087
839.231	23958
839.369	24125
839.506	24426
839.643	24285
839.781	24041
839.918	23885
840.055	23946
840.193	24102
840.33	23904
840.467	23973
840.604	23977
840.742	24220
840.879	23840
841.016	23828
841.153	23843
841.29	24022
841.427	23859
841.564	23889
841.701	23897
841.838	23847
841.975	23760
842.112	23866
842.249	23726
842.385	23737
842.522	23878
842.659	23752
842.796	23733
842.933	23604
843.069	23714
843.206	23630
843.343	23684
843.479	23649
843.616	23646
843.752	23486
843.889	23444
844.025	23630
844.162	23512
844.298	23433
844.435	23410
844.571	23345
844.708	23585
844.844	23558
844.98	23543
845.117	23627
845.253	23265
845.389	23277
845.525	23326
845.661	23318
845.798	23162
845.934	23242
846.07	23178
846.206	23250
846.342	23265
846.478	23094
846.614	23044
846.75	22862
846.886	22911
847.022	22889
847.158	22987
847.294	22866
847.429	22976
847.565	22831
847.701	22984
847.837	22607
847.972	22577
848.108	22752
848.244	22687
848.379	22462
848.515	22405
848.65	22504
848.786	22390
848.921	22386
849.057	22672
849.192	22550
849.328	22489
849.463	22379
849.598	22466
849.734	22417
849.869	22333
850.004	22200
850.14	22367
850.275	22219
850.41	22200
850.545	22268
850.68	22188
850.815	22143
850.95	22223
851.085	22535
851.22	22306
851.355	22265
851.49	22249
851.625	22162
851.76	22120
851.895	22234
852.03	22147
852.165	22284
852.299	22147
852.434	22333
852.569	22295
852.703	22173
852.838	22287
852.973	22287
853.107	22428
853.242	22147
853.376	22036
853.511	21895
853.645	22059
853.78	22055
853.914	22063
854.048	22013
854.183	22112
854.317	22013
854.451	22166
854.585	22112
854.72	22109
854.854	22169
854.988	21930
855.122	21964
855.256	21956
855.39	22090
855.524	22074
855.658	22090
855.792	22093
855.926	22067
856.06	22128
856.194	22162
856.327	22086
856.461	22002
856.595	22025
856.729	22074
856.862	22162
856.996	21953
857.13	22070
857.263	22162
857.397	22162
857.53	22029
857.664	22120
857.797	22006
857.931	22181
858.064	22067
858.197	22188
858.331	22032
858.464	22059
858.597	21979
858.731	21964
858.864	21987
858.997	21994
859.13	22067
859.263	22032
859.396	22131
859.529	21968
859.662	22063
859.795	21854
859.928	22048
860.061	22143
860.194	22215
860.327	22109
860.46	22150
860.592	22230
860.725	22268
860.858	22074
860.99	22044
861.123	21915
861.256	22017
861.388	22097
861.521	22831
861.653	21823
861.786	21915
861.918	21857
862.05	22002
862.183	22105
862.315	21922
862.447	21968
862.58	21983
862.712	21755
862.844	21800
862.976	21842
863.108	21781
863.24	22181
863.372	21739
863.504	21644
863.636	21759
863.768	21804
863.9	21785
864.032	21534
864.164	21766
864.296	21850
864.428	21979
864.559	21789
864.691	21774
864.823	21774
864.954	21667
865.086	21720
865.217	21759
865.349	21595
865.48	21759
865.612	21591
865.743	21793
865.875	21644
866.006	21603
866.137	21679
866.269	21603
866.4	21507
866.531	21591
866.662	21557
866.793	21580
866.924	21591
867.055	21576
867.186	21599
867.317	21477
867.448	21530
867.579	21496
867.71	21454
867.841	21603
867.972	21530
868.103	21534
868.233	21629
868.364	21606
868.495	21694
868.625	21739
868.756	21979
868.886	21812
869.017	21838
869.147	22048
869.278	21983
869.408	21907
869.539	21804
869.669	21884
869.799	21842
869.929	21892
870.06	21968
870.19	22105
870.32	22036
870.45	22234
870.58	22204
870.71	22360
870.84	22257
870.97	22200
871.1	22272
871.23	22470
871.36	22344
871.489	22230
871.619	22341
871.749	22337
871.879	22382
872.008	22470
872.138	22436
872.267	22417
872.397	22246
872.526	22192
872.656	22116
872.785	22242
872.915	22481
873.044	22554
873.173	22386
873.303	22455
873.432	22424
873.561	22424
873.69	22382
873.819	22402
873.948	22550
874.077	22478
874.206	22432
874.335	22371
874.464	22580
874.593	22675
874.722	22721
874.851	22801
874.979	22691
875.108	22649
875.237	22660
875.365	22527
875.494	22523
875.623	22656
875.751	22584
875.88	22691
876.008	22691
876.136	22877
876.265	23083
876.393	23155
876.521	23151
876.65	23117
876.778	23048
876.906	22965
877.034	23056
877.162	23037
877.29	22930
877.418	23041
877.546	22919
877.674	22987
877.802	22980
877.93	22991
878.058	23014
878.185	22889
878.313	22812
878.441	22957
878.568	22771
878.696	22774
878.824	22972
878.951	23109
879.079	23185
879.206	23200
879.333	23303
879.461	23006
879.588	23174
879.715	23010
879.842	23334
879.97	23105
880.097	22942
880.224	22767
880.351	22942
880.478	22930
880.605	22717
880.732	22854
880.859	22938
880.986	22790
881.112	22790
881.239	22637
881.366	22596
881.493	22508
881.619	22417
881.746	22379
881.872	22398
881.999	22314
882.125	22329
882.252	22409
882.378	22402
882.505	22409
882.631	22253
882.757	22112
882.883	22051
883.01	22276
883.136	22036
883.262	21915
883.388	21960
883.514	21991
883.64	22128
883.766	21926
883.892	21736
884.018	21739
884.143	21922
884.269	22055
884.395	21819
884.52	21618
884.646	21743
884.772	21648
884.897	21587
885.023	21671
885.148	21743
885.274	21911
885.399	21770
885.524	21770
885.65	21743
885.775	21759
885.9	21686
886.025	21846
886.15	21800
886.275	21656
886.4	21633
886.525	21629
886.65	21648
886.775	21671
886.9	21663
887.025	21907
887.149	21717
887.274	21515
887.399	21469
887.523	21408
887.648	21249
887.773	21405
887.897	21428
888.021	21374
888.146	21469
888.27	21595
888.395	21496
888.519	21603
888.643	21450
888.767	21542
888.891	21351
889.015	21325
889.139	21207
889.263	21256
889.387	21351
889.511	21370
889.635	21321
889.759	21287
889.883	21313
890.006	21142
890.13	21252
890.254	21245
890.377	21298
890.501	21081
890.624	20921
890.748	20986
890.871	20800
890.995	20743
891.118	20845
891.241	20701
891.364	20849
891.488	20952
891.611	20891
891.734	20804
891.857	20731
891.98	20750
892.103	20967
892.226	20716
892.349	20743
892.471	20617
892.594	20781
892.717	20648
892.839	20701
892.962	20674
893.085	20796
893.207	20594
893.33	20507
893.452	20640
893.575	20686
893.697	20632
893.819	20864
893.941	20834
894.064	20758
894.186	20670
894.308	20571
894.43	20781
894.552	20880
894.674	20792
894.796	20590
894.918	20587
895.04	20632
895.161	20678
895.283	20632
895.405	20705
895.526	20682
895.648	20788
895.769	20670
895.891	20697
896.012	20765
896.134	20743
896.255	20678
896.376	20644
896.498	20796
896.619	20617
896.74	20682
896.861	20716
896.982	20918
897.103	21096
897.224	21062
897.345	20845
897.466	20750
897.587	20849
897.708	21043
897.828	20880
897.949	20861
898.07	20777
898.19	20819
898.311	21036
898.431	20823
898.552	20853
898.672	20941
898.792	20914
898.913	20952
899.033	20769
899.153	20731
899.273	20693
899.393	20568
899.513	20568
899.633	20697
899.753	20663
899.873	20613
899.993	20712
900.113	20457
900.232	20571
900.352	20602
900.472	20492
900.591	20328
900.711	20476
900.83	20328
900.95	20530
901.069	20415
901.189	20263
901.308	20084
901.427	19925
901.546	20001
901.665	20069
901.784	19902
901.904	19822
902.023	19799
902.141	19658
902.26	19510
902.379	19620
902.498	19559
902.617	19567
902.735	19487
902.854	19362
902.973	19308
903.091	19175
903.21	19168
903.328	19175
903.446	19110
903.565	18829
903.683	18844
903.801	18738
903.919	18947
904.038	18947
904.156	18741
904.274	18878
904.392	18768
904.51	18525
904.627	18738
904.745	18817
904.863	18677
904.981	18566
905.098	18437
905.216	18426
905.334	18479
905.451	18441
905.569	18372
905.686	18391
905.803	18315
905.921	18190
906.038	18197
906.155	18182
906.272	18110
906.389	18079
906.506	17893
906.623	17935
906.74	17916
906.857	17805
906.974	17824
907.091	17901
907.208	17942
907.324	17870
907.441	17889
907.557	17611
907.674	17627
907.79	17512
907.907	17657
908.023	17619
908.139	17627
908.256	17581
908.372	17532
908.488	17414
908.604	17406
908.72	17311
908.836	17307
908.952	17387
909.068	17383
909.184	17364
909.3	17246
909.415	17406
909.531	17372
909.647	17109
909.762	17071
909.878	16866
909.993	17025
910.108	16999
910.224	16999
910.339	16972
910.454	16930
910.57	16812
910.685	16782
910.8	17006
910.915	17037
911.03	16835
911.145	16706
911.259	16649
911.374	16653
911.489	16550
911.604	16512
911.718	16405
911.833	16337
911.947	16344
912.062	16299
912.176	16318
912.291	16443
912.405	16356
912.519	16592
912.633	16531
912.748	16379
912.862	16356
912.976	16093
913.09	16078
913.204	16067
913.318	16128
913.431	16246
913.545	16287
913.659	16322
913.772	16177
913.886	15972
914	15918
914.113	16086
914.226	15998
914.34	16055
914.453	15854
914.566	16059
914.68	15884
914.793	15800
914.906	15766
915.019	15515
915.132	15561
915.245	15637
915.358	15542
915.47	15584
915.583	15663
915.696	15511
915.809	15713
915.921	15679
916.034	15523
916.146	15450
916.259	15504
916.371	15561
916.483	15553
916.595	15408
916.708	15462
916.82	15332
916.932	15332
917.044	15370
917.156	15230
917.268	15157
917.38	15146
917.491	15173
917.603	15211
917.715	15245
917.826	15355
917.938	15085
918.049	15074
918.161	15218
918.272	15199
918.384	15188
918.495	15135
918.606	14921
918.717	14960
918.828	14929
918.939	14956
919.05	14952
919.161	14910
919.272	14689
919.383	14834
919.494	14975
919.604	15077
919.715	15001
919.826	14823
919.936	14750
920.047	15036
920.157	14948
920.267	14967
920.378	14891
920.488	14864
920.598	15081
920.708	15230
920.818	15009
920.928	14979
921.038	15146
921.148	15100
921.258	14868
921.368	14762
921.477	14636
921.587	14655
921.697	14480
921.806	14636
921.916	14492
922.025	14381
922.134	14237
922.244	14221
922.353	14377
922.462	14153
922.571	14142
922.68	13849
922.789	13906
922.898	13986
923.007	13856
923.116	13978
923.224	13913
923.333	13871
923.442	13734
923.55	13761
923.659	13784
923.767	13909
923.876	13643
923.984	13708
924.092	13681
924.201	13620
924.309	13689
924.417	13658
924.525	13609
924.633	13540
924.741	14332
924.849	13365
924.956	13529
925.064	13392
925.172	13274
925.279	13358
925.387	13297
925.494	13301
925.602	13400
925.709	13274
925.816	13213
925.924	13297
926.031	13377
926.138	13228
926.245	13274
926.352	13175
926.459	13339
926.566	13274
926.673	13129
926.779	13198
926.886	13053
926.993	12973
927.099	12913
927.206	12878
927.312	12837
927.419	12852
927.525	12867
927.631	12791
927.737	12798
927.843	12730
927.95	12536
928.056	12623
928.162	12703
928.267	12806
928.373	13247
928.479	12738
928.585	12601
928.69	12559
928.796	12650
928.901	12570
929.007	12414
929.112	12460
929.218	12414
929.323	12433
929.428	12334
929.533	12555
929.638	12334
929.743	12311
929.848	12350
929.953	12289
930.058	12308
930.163	12064
930.267	12064
930.372	12258
930.477	12003
930.581	12304
930.685	12110
930.79	11916
930.894	11992
930.998	11958
931.103	12076
931.207	11733
931.311	11577
931.415	11558
931.519	11315
931.623	11368
