Data from test_V78500241_1301.txt Node
Date: Fri Mar 25 15:50:48 CST 2022
User: usil
Spectrometer: V785-0024
Trigger mode: 0
Integration Time (sec): 4.000000E-1
Scans to average: 1
Nonlinearity correction enabled: false
Boxcar width: 0
Storing dark spectrum: false
XAxis mode: Wavelengths
Number of Pixels in Spectrum: 1024
>>>>>Begin Spectral Data<<<<<
801.071	28428
801.214	28401
801.356	28276
801.499	28013
801.641	27964
801.783	27987
801.926	28006
802.068	28013
802.211	27945
802.353	27911
802.496	27774
802.638	27671
802.78	27759
802.923	27564
803.065	27644
803.208	27595
803.35	27660
803.492	27861
803.635	27842
803.777	27679
803.919	27926
804.061	28105
804.204	28055
804.346	27895
804.488	27766
804.63	27842
804.773	27781
804.915	28006
805.057	28059
805.199	27903
805.341	27899
805.483	28021
805.626	27979
805.768	27827
805.91	28040
806.052	28215
806.194	28006
806.336	28295
806.478	28147
806.62	27975
806.762	28169
806.904	28322
807.046	28538
807.188	28489
807.33	28504
807.472	28618
807.614	28447
807.756	28516
807.898	28451
808.04	28268
808.182	28299
808.324	28436
808.465	28398
808.607	28478
808.749	28812
808.891	28816
809.033	28725
809.174	28752
809.316	28664
809.458	28752
809.6	28664
809.741	28748
809.883	28869
810.025	28980
810.166	29014
810.308	29029
810.45	28987
810.591	29010
810.733	28759
810.875	28759
811.016	28672
811.158	28588
811.299	28953
811.441	28866
811.582	28949
811.724	28679
811.865	28702
812.007	28771
812.148	28767
812.29	28828
812.431	28801
812.573	29060
812.714	29037
812.855	29307
812.997	29356
813.138	29448
813.279	29280
813.421	29117
813.562	29208
813.703	29242
813.845	29041
813.986	28706
814.127	28512
814.268	28284
814.41	28485
814.551	28375
814.692	28417
814.833	28432
814.974	28295
815.115	28516
815.256	28276
815.397	28299
815.539	28417
815.68	28261
815.821	28207
815.962	28215
816.103	28249
816.244	28166
816.385	28048
816.526	28036
816.666	27808
816.807	27660
816.948	27846
817.089	27835
817.23	27644
817.371	27637
817.512	27694
817.653	27663
817.793	27587
817.934	27644
818.075	27720
818.216	27778
818.356	27530
818.497	27629
818.638	27564
818.778	27534
818.919	27496
819.06	27549
819.2	27732
819.341	27774
819.481	27736
819.622	27918
819.762	28185
819.903	27922
820.043	27884
820.184	27953
820.324	27888
820.465	27793
820.605	27846
820.746	27895
820.886	27713
821.026	27869
821.167	27759
821.307	27869
821.447	27774
821.588	27713
821.728	27485
821.868	27359
822.008	27249
822.149	27207
822.289	27226
822.429	27001
822.569	26891
822.709	26864
822.849	26762
822.99	26693
823.13	26648
823.27	26651
823.41	26575
823.55	26252
823.69	26473
823.83	26526
823.97	26568
824.11	26336
824.25	26362
824.389	26434
824.529	26499
824.669	26434
824.809	26473
824.949	26594
825.089	26499
825.228	26484
825.368	26301
825.508	26305
825.648	26290
825.787	26309
825.927	26362
826.067	26172
826.206	26488
826.346	26404
826.485	26400
826.625	26290
826.765	26370
826.904	26355
827.044	26145
827.183	26043
827.323	25963
827.462	26046
827.601	25970
827.741	26027
827.88	25986
828.02	25731
828.159	26027
828.298	26035
828.437	26050
828.577	25875
828.716	26130
828.855	25822
828.994	25613
829.134	25719
829.273	25784
829.412	25746
829.551	25738
829.69	25784
829.829	25811
829.968	25742
830.107	25674
830.246	25742
830.385	25552
830.524	25731
830.663	25441
830.802	25563
830.941	25259
831.08	25194
831.219	25251
831.357	25255
831.496	25632
831.635	25392
831.774	25247
831.913	25141
832.051	25110
832.19	25107
832.329	25118
832.467	24958
832.606	24844
832.744	24852
832.883	25012
833.022	24916
833.16	24970
833.299	25057
833.437	25034
833.576	25031
833.714	25057
833.852	24939
833.991	25156
834.129	25099
834.267	25088
834.406	25023
834.544	25122
834.682	25091
834.821	25012
834.959	25129
835.097	24939
835.235	25148
835.373	24905
835.511	24928
835.65	24970
835.788	24829
835.926	24749
836.064	24601
836.202	24661
836.34	24848
836.478	24924
836.615	24768
836.753	24913
836.891	24916
837.029	24882
837.167	24715
837.305	24726
837.443	24768
837.58	24673
837.718	24783
837.856	24707
837.993	24536
838.131	24570
838.269	24585
838.406	24711
838.544	24582
838.681	24300
838.819	24338
838.956	24190
839.094	24144
839.231	24083
839.369	24452
839.506	24452
839.643	24403
839.781	24140
839.918	24102
840.055	24091
840.193	24144
840.33	24030
840.467	24091
840.604	24083
840.742	24346
840.879	23927
841.016	24003
841.153	23912
841.29	24171
841.427	24049
841.564	24133
841.701	23984
841.838	23927
841.975	23923
842.112	24034
842.249	23836
842.385	23859
842.522	23946
842.659	23843
842.796	23798
842.933	23878
843.069	23779
843.206	23760
843.343	23741
843.479	23767
843.616	23802
843.752	23627
843.889	23554
844.025	23691
844.162	23497
844.298	23558
844.435	23653
844.571	23467
844.708	23627
844.844	23764
844.98	23687
845.117	23794
845.253	23463
845.389	23414
845.525	23482
845.661	23410
845.798	23379
845.934	23528
846.07	23322
846.206	23288
846.342	23296
846.478	23353
846.614	23010
846.75	22957
846.886	22953
847.022	23094
847.158	23067
847.294	23083
847.429	23132
847.565	23060
847.701	23288
847.837	22759
847.972	22736
848.108	22839
848.244	22805
848.379	22634
848.515	22535
848.65	22588
848.786	22607
848.921	22516
849.057	22725
849.192	22691
849.328	22622
849.463	22538
849.598	22668
849.734	22470
849.869	22592
850.004	22291
850.14	22417
850.275	22367
850.41	22344
850.545	22272
850.68	22352
850.815	22466
850.95	22443
851.085	22466
851.22	22375
851.355	22402
851.49	22284
851.625	22367
851.76	22341
851.895	22181
852.03	22261
852.165	22356
852.299	22325
852.434	22363
852.569	22409
852.703	22386
852.838	22455
852.973	22497
853.107	22436
853.242	22299
853.376	22188
853.511	22029
853.645	22124
853.78	22272
853.914	22295
854.048	22192
854.183	22261
854.317	22249
854.451	22337
854.585	22158
854.72	22181
854.854	22382
854.988	21983
855.122	22128
855.256	22074
855.39	22166
855.524	22295
855.658	22211
855.792	22223
855.926	22135
856.06	22230
856.194	22135
856.327	22147
856.461	22162
856.595	22112
856.729	22090
856.862	22291
856.996	22154
857.13	22257
857.263	22348
857.397	22242
857.53	22223
857.664	22086
857.797	22200
857.931	22238
858.064	22173
858.197	22230
858.331	22139
858.464	22063
858.597	22063
858.731	22131
858.864	22101
858.997	22135
859.13	22147
859.263	22166
859.396	22200
859.529	22219
859.662	22131
859.795	22025
859.928	22177
860.061	22185
860.194	22337
860.327	22223
860.46	22139
860.592	22337
860.725	22409
860.858	22280
860.99	22272
861.123	22112
861.256	22002
861.388	22154
861.521	22820
861.653	22116
861.786	21869
861.918	22078
862.05	22200
862.183	22044
862.315	22044
862.447	22204
862.58	22093
862.712	21895
862.844	21869
862.976	21960
863.108	21956
863.24	22215
863.372	21717
863.504	21865
863.636	21835
863.768	21903
863.9	21994
864.032	21751
864.164	21755
864.296	21778
864.428	21956
864.559	22101
864.691	22029
864.823	21930
864.954	21842
865.086	21842
865.217	21884
865.349	21633
865.48	21842
865.612	21720
865.743	21823
865.875	21770
866.006	21614
866.137	21755
866.269	21747
866.4	21641
866.531	21728
866.662	21599
866.793	21644
866.924	21762
867.055	21728
867.186	21671
867.317	21652
867.448	21641
867.579	21652
867.71	21785
867.841	21576
867.972	21705
868.103	21713
868.233	21663
868.364	21637
868.495	21694
868.625	21854
868.756	22029
868.886	21945
869.017	21827
869.147	22139
869.278	22029
869.408	22059
869.539	22017
869.669	21892
869.799	21994
869.929	22101
870.06	22013
870.19	22207
870.32	22200
870.45	22299
870.58	22230
870.71	22375
870.84	22402
870.97	22265
871.1	22360
871.23	22508
871.36	22580
871.489	22523
871.619	22512
871.749	22527
871.879	22508
872.008	22683
872.138	22554
872.267	22527
872.397	22386
872.526	22451
872.656	22478
872.785	22303
872.915	22554
873.044	22603
873.173	22618
873.303	22459
873.432	22672
873.561	22691
873.69	22512
873.819	22493
873.948	22653
874.077	22557
874.206	22455
874.335	22474
874.464	22672
874.593	22835
874.722	22740
874.851	22717
874.979	22725
875.108	22816
875.237	22729
875.365	22786
875.494	22740
875.623	22809
875.751	22740
875.88	22778
876.008	23033
876.136	22869
876.265	23155
876.393	23303
876.521	23216
876.65	23193
876.778	23060
876.906	23086
877.034	23075
877.162	23143
877.29	23022
877.418	23109
877.546	23143
877.674	23041
877.802	23033
877.93	22980
878.058	23064
878.185	23033
878.313	23029
878.441	23090
878.568	22942
878.696	22927
878.824	23250
878.951	23147
879.079	23151
879.206	23349
879.333	23242
879.461	23178
879.588	23223
879.715	23273
879.842	23402
879.97	23094
880.097	22949
880.224	22885
880.351	22957
880.478	22984
880.605	22873
880.732	22900
880.859	22980
880.986	22892
881.112	23041
881.239	22801
881.366	22820
881.493	22706
881.619	22607
881.746	22440
881.872	22565
881.999	22409
882.125	22440
882.252	22546
882.378	22470
882.505	22649
882.631	22500
882.757	22177
882.883	22196
883.01	22261
883.136	22074
883.262	21994
883.388	22051
883.514	22211
883.64	22219
883.766	22162
883.892	21972
884.018	21922
884.143	22101
884.269	22265
884.395	21835
884.52	21846
884.646	21823
884.772	21755
884.897	21770
885.023	21835
885.148	21968
885.274	21968
885.399	21831
885.524	21755
885.65	21785
885.775	21835
885.9	21622
886.025	22021
886.15	21873
886.275	21682
886.4	21701
886.525	21797
886.65	21648
886.775	21705
886.9	22017
887.025	21994
887.149	21724
887.274	21523
887.399	21610
887.523	21595
887.648	21538
887.773	21389
887.897	21572
888.021	21542
888.146	21458
888.27	21576
888.395	21720
888.519	21492
888.643	21599
888.767	21561
888.891	21587
889.015	21344
889.139	21439
889.263	21302
889.387	21534
889.511	21500
889.635	21485
889.759	21367
889.883	21382
890.006	21428
890.13	21477
890.254	21416
890.377	21291
890.501	21077
890.624	21062
890.748	21135
890.871	21161
890.995	20921
891.118	20792
891.241	20986
891.364	20967
891.488	20998
891.611	20967
891.734	20876
891.857	20929
891.98	21036
892.103	20929
892.226	20902
892.349	20788
892.471	20735
892.594	20849
892.717	20769
892.839	20807
892.962	20807
893.085	20804
893.207	20800
893.33	20826
893.452	20746
893.575	20724
893.697	20785
893.819	20982
893.941	21009
894.064	20925
894.186	20727
894.308	20705
894.43	20781
894.552	20857
894.674	20777
894.796	20781
894.918	20731
895.04	20830
895.161	20735
895.283	20769
895.405	20853
895.526	20819
895.648	20788
895.769	20765
895.891	20872
896.012	20731
896.134	20853
896.255	20785
896.376	20853
896.498	20743
896.619	20659
896.74	20720
896.861	20872
896.982	21127
897.103	21272
897.224	21192
897.345	21055
897.466	20842
897.587	20967
897.708	21119
897.828	21138
897.949	20990
898.07	21055
898.19	21043
898.311	21055
898.431	20937
898.552	21074
898.672	21127
898.792	21138
898.913	21024
899.033	20998
899.153	20651
899.273	20773
899.393	20701
899.513	20880
899.633	20823
899.753	20807
899.873	20716
899.993	20731
900.113	20659
900.232	20754
900.352	20697
900.472	20560
900.591	20484
900.711	20488
900.83	20339
900.95	20640
901.069	20507
901.189	20427
901.308	20187
901.427	20122
901.546	20035
901.665	20172
901.784	20065
901.904	19959
902.023	19860
902.141	19647
902.26	19540
902.379	19693
902.498	19552
902.617	19575
902.735	19605
902.854	19499
902.973	19483
903.091	19373
903.21	19209
903.328	19152
903.446	19057
903.565	19168
903.683	19061
903.801	18901
903.919	19088
904.038	18954
904.156	18844
904.274	18753
904.392	18837
904.51	18821
904.627	18753
904.745	18875
904.863	18909
904.981	18604
905.098	18532
905.216	18494
905.334	18502
905.451	18547
905.569	18433
905.686	18395
905.803	18426
905.921	18273
906.038	18323
906.155	18346
906.272	18144
906.389	18174
906.506	17969
906.623	18030
906.74	18030
906.857	17939
906.974	17855
907.091	18076
907.208	18079
907.324	18095
907.441	17901
907.557	17843
907.674	17657
907.79	17634
907.907	17722
908.023	17718
908.139	17767
908.256	17653
908.372	17589
908.488	17547
908.604	17516
908.72	17421
908.836	17429
908.952	17455
909.068	17341
909.184	17547
909.3	17512
909.415	17497
909.531	17406
909.647	17170
909.762	17060
909.878	17056
909.993	17246
910.108	17006
910.224	17041
910.339	16987
910.454	16919
910.57	16972
910.685	16877
910.8	17193
910.915	17113
911.03	16938
911.145	16733
911.259	16740
911.374	16831
911.489	16588
911.604	16592
911.718	16535
911.833	16531
911.947	16398
912.062	16211
912.176	16405
912.291	16554
912.405	16363
912.519	16512
912.633	16679
912.748	16558
912.862	16428
912.976	16276
913.09	16226
913.204	16147
913.318	16177
913.431	16204
913.545	16348
913.659	16322
913.772	16265
913.886	16109
914	16025
914.113	16185
914.226	16154
914.34	16120
914.453	15975
914.566	16086
914.68	15953
914.793	15861
914.906	15713
915.019	15587
915.132	15622
915.245	15561
915.358	15663
915.47	15606
915.583	15610
915.696	15644
915.809	15584
915.921	15720
916.034	15545
916.146	15542
916.259	15618
916.371	15553
916.483	15481
916.595	15473
916.708	15481
916.82	15450
916.932	15412
917.044	15431
917.156	15431
917.268	15317
917.38	15287
917.491	15249
917.603	15211
917.715	15416
917.826	15374
917.938	15157
918.049	15100
918.161	15264
918.272	15386
918.384	15317
918.495	15176
918.606	15142
918.717	14990
918.828	15051
918.939	15024
919.05	14960
919.161	14925
919.272	14891
919.383	14910
919.494	15024
919.604	15173
919.715	14982
919.826	14883
919.936	14975
920.047	15108
920.157	14899
920.267	15138
920.378	15013
920.488	15047
920.598	15150
920.708	15256
920.818	15211
920.928	15085
921.038	15203
921.148	15226
921.258	14956
921.368	14796
921.477	14708
921.587	14777
921.697	14575
921.806	14739
921.916	14537
922.025	14385
922.134	14328
922.244	14313
922.353	14328
922.462	14206
922.571	14062
922.68	13909
922.789	13959
922.898	13963
923.007	13925
923.116	14119
923.224	13944
923.333	13951
923.442	13875
923.55	13776
923.659	13818
923.767	13837
923.876	13772
923.984	13921
924.092	13670
924.201	13738
924.309	13719
924.417	13685
924.525	13662
924.633	13616
924.741	14541
924.849	13426
924.956	13590
925.064	13453
925.172	13343
925.279	13384
925.387	13396
925.494	13327
925.602	13510
925.709	13449
925.816	13198
925.924	13316
926.031	13384
926.138	13247
926.245	13381
926.352	13198
926.459	13377
926.566	13339
926.673	13244
926.779	13183
926.886	13122
926.993	12989
927.099	12871
927.206	12905
927.312	12951
927.419	12920
927.525	12943
927.631	12916
927.737	12791
927.843	12734
927.95	12738
928.056	12707
928.162	12760
928.267	12764
928.373	13190
928.479	12802
928.585	12551
928.69	12696
928.796	12738
928.901	12544
929.007	12426
929.112	12566
929.218	12604
929.323	12467
929.428	12395
929.533	12601
929.638	12414
929.743	12327
929.848	12437
929.953	12399
930.058	12296
930.163	12228
930.267	12079
930.372	12148
930.477	11969
930.581	12330
930.685	12129
930.79	12083
930.894	12064
930.998	11996
931.103	12159
931.207	11634
931.311	11703
931.415	11554
931.519	11372
931.623	11334
