Data from test_V78500241_1251.txt Node
Date: Fri Mar 25 15:50:28 CST 2022
User: usil
Spectrometer: V785-0024
Trigger mode: 0
Integration Time (sec): 4.000000E-1
Scans to average: 1
Nonlinearity correction enabled: false
Boxcar width: 0
Storing dark spectrum: false
XAxis mode: Wavelengths
Number of Pixels in Spectrum: 1024
>>>>>Begin Spectral Data<<<<<
801.071	28637
801.214	28550
801.356	28523
801.499	28436
801.641	28154
801.783	28325
801.926	28284
802.068	28329
802.211	28223
802.353	27979
802.496	28105
802.638	27903
802.78	27945
802.923	27854
803.065	27846
803.208	27884
803.35	27930
803.492	28036
803.635	28215
803.777	28078
803.919	28101
804.061	28478
804.204	28207
804.346	28147
804.488	27949
804.63	28082
804.773	28207
804.915	28078
805.057	28200
805.199	28265
805.341	28333
805.483	28325
805.626	28337
805.768	28348
805.91	28352
806.052	28242
806.194	28284
806.336	28497
806.478	28329
806.62	28413
806.762	28341
806.904	28599
807.046	28919
807.188	28687
807.33	28797
807.472	28885
807.614	28736
807.756	28759
807.898	28668
808.04	28569
808.182	28656
808.324	28577
808.465	28679
808.607	28972
808.749	29006
808.891	29041
809.033	29140
809.174	29064
809.316	28873
809.458	28995
809.6	29025
809.741	29079
809.883	29159
810.025	29372
810.166	29315
810.308	29387
810.45	29353
810.591	29174
810.733	29216
810.875	29083
811.016	28930
811.158	28892
811.299	29071
811.441	29242
811.582	29345
811.724	29162
811.865	28888
812.007	29029
812.148	29060
812.29	28972
812.431	29231
812.573	29410
812.714	29474
812.855	29585
812.997	29691
813.138	29748
813.279	29638
813.421	29486
813.562	29596
813.703	29402
813.845	29242
813.986	29094
814.127	28911
814.268	28782
814.41	28915
814.551	28740
814.692	28934
814.833	28759
814.974	28721
815.115	28744
815.256	28748
815.397	28500
815.539	28634
815.68	28451
815.821	28527
815.962	28618
816.103	28596
816.244	28348
816.385	28398
816.526	28238
816.666	28093
816.807	28116
816.948	28223
817.089	28135
817.23	28200
817.371	27968
817.512	28067
817.653	28116
817.793	27960
817.934	28120
818.075	27972
818.216	27998
818.356	27975
818.497	27964
818.638	27812
818.778	27804
818.919	27759
819.06	27846
819.2	28090
819.341	28143
819.481	28006
819.622	28150
819.762	28493
819.903	28375
820.043	28303
820.184	28242
820.324	28287
820.465	28284
820.605	28295
820.746	28318
820.886	28070
821.026	28234
821.167	28253
821.307	28207
821.447	28070
821.588	28040
821.728	27991
821.868	27857
822.008	27576
822.149	27637
822.289	27519
822.429	27260
822.569	27279
822.709	27344
822.849	27119
822.99	27165
823.13	27036
823.27	27020
823.41	26800
823.55	26804
823.69	27039
823.83	26830
823.97	26842
824.11	26686
824.25	26708
824.389	26674
824.529	26796
824.669	26720
824.809	26918
824.949	26853
825.089	26826
825.228	26785
825.368	26613
825.508	26404
825.648	26594
825.787	26724
825.927	26598
826.067	26560
826.206	26644
826.346	26765
826.485	26651
826.625	26480
826.765	26701
826.904	26606
827.044	26263
827.183	26381
827.323	26237
827.462	26351
827.601	26320
827.741	26374
827.88	26278
828.02	26237
828.159	26290
828.298	26309
828.437	26362
828.577	26218
828.716	26427
828.855	26286
828.994	26008
829.134	26020
829.273	26088
829.412	25963
829.551	26031
829.69	26046
829.829	25993
829.968	26035
830.107	26024
830.246	25989
830.385	26046
830.524	25986
830.663	25780
830.802	25799
830.941	25571
831.08	25518
831.219	25666
831.357	25693
831.496	25856
831.635	25556
831.774	25445
831.913	25502
832.051	25441
832.19	25270
832.329	25392
832.467	25259
832.606	25346
832.744	25164
832.883	25232
833.022	25198
833.16	25183
833.299	25221
833.437	25331
833.576	25419
833.714	25293
833.852	25441
833.991	25388
834.129	25445
834.267	25285
834.406	25358
834.544	25270
834.682	25236
834.821	25221
834.959	25506
835.097	25247
835.235	25426
835.373	25278
835.511	25316
835.65	25084
835.788	25183
835.926	25034
836.064	24867
836.202	24992
836.34	25103
836.478	25194
836.615	25156
836.753	25065
836.891	25156
837.029	25160
837.167	25042
837.305	24989
837.443	24981
837.58	24977
837.718	25076
837.856	24966
837.993	24920
838.131	25012
838.269	24779
838.406	24795
838.544	24757
838.681	24616
838.819	24479
838.956	24494
839.094	24448
839.231	24521
839.369	24677
839.506	24871
839.643	24730
839.781	24486
839.918	24376
840.055	24509
840.193	24429
840.33	24441
840.467	24350
840.604	24407
840.742	24620
840.879	24182
841.016	24376
841.153	24186
841.29	24448
841.427	24441
841.564	24232
841.701	24262
841.838	24486
841.975	24296
842.112	24277
842.249	24125
842.385	24041
842.522	24422
842.659	24133
842.796	24045
842.933	24030
843.069	24038
843.206	23999
843.343	24228
843.479	24235
843.616	24068
843.752	23897
843.889	23901
844.025	23954
844.162	23904
844.298	23958
844.435	23809
844.571	23885
844.708	23920
844.844	23950
844.98	24148
845.117	23935
845.253	23832
845.389	23722
845.525	23729
845.661	23729
845.798	23592
845.934	23653
846.07	23634
846.206	23707
846.342	23642
846.478	23611
846.614	23368
846.75	23303
846.886	23239
847.022	23406
847.158	23356
847.294	23326
847.429	23292
847.565	23261
847.701	23516
847.837	23018
847.972	23071
848.108	23109
848.244	23181
848.379	22968
848.515	22854
848.65	22793
848.786	22889
848.921	22991
849.057	22999
849.192	22984
849.328	22866
849.463	22847
849.598	22858
849.734	22949
849.869	22816
850.004	22752
850.14	22710
850.275	22634
850.41	22607
850.545	22565
850.68	22481
850.815	22641
850.95	22596
851.085	22801
851.22	22820
851.355	22729
851.49	22615
851.625	22679
851.76	22634
851.895	22497
852.03	22603
852.165	22592
852.299	22748
852.434	22923
852.569	22755
852.703	22577
852.838	22847
852.973	22828
853.107	22809
853.242	22675
853.376	22561
853.511	22478
853.645	22500
853.78	22641
853.914	22542
854.048	22481
854.183	22432
854.317	22493
854.451	22748
854.585	22470
854.72	22481
854.854	22588
854.988	22417
855.122	22474
855.256	22329
855.39	22459
855.524	22485
855.658	22516
855.792	22577
855.926	22519
856.06	22440
856.194	22523
856.327	22440
856.461	22344
856.595	22379
856.729	22382
856.862	22729
856.996	22557
857.13	22421
857.263	22546
857.397	22577
857.53	22432
857.664	22489
857.797	22565
857.931	22721
858.064	22424
858.197	22436
858.331	22443
858.464	22398
858.597	22409
858.731	22390
858.864	22470
858.997	22371
859.13	22516
859.263	22478
859.396	22649
859.529	22405
859.662	22432
859.795	22481
859.928	22569
860.061	22592
860.194	22694
860.327	22641
860.46	22523
860.592	22713
860.725	22691
860.858	22596
860.99	22656
861.123	22523
861.256	22500
861.388	22550
861.521	23132
861.653	22440
861.786	22234
861.918	22177
862.05	22325
862.183	22413
862.315	22440
862.447	22421
862.58	22432
862.712	22147
862.844	22162
862.976	22253
863.108	22261
863.24	22588
863.372	22097
863.504	22215
863.636	22276
863.768	22226
863.9	22154
864.032	22226
864.164	22280
864.296	22238
864.428	22287
864.559	22261
864.691	22348
864.823	22185
864.954	22055
865.086	22097
865.217	22021
865.349	21975
865.48	22010
865.612	22059
865.743	22322
865.875	22017
866.006	22070
866.137	22067
866.269	22154
866.4	22101
866.531	22021
866.662	21911
866.793	22021
866.924	22051
867.055	21991
867.186	22055
867.317	21949
867.448	21838
867.579	22021
867.71	21945
867.841	21884
867.972	21998
868.103	21960
868.233	21930
868.364	21941
868.495	22112
868.625	22219
868.756	22303
868.886	22268
869.017	22177
869.147	22242
869.278	22352
869.408	22284
869.539	22257
869.669	22322
869.799	22291
869.929	22291
870.06	22398
870.19	22557
870.32	22542
870.45	22634
870.58	22634
870.71	22691
870.84	22668
870.97	22710
871.1	22694
871.23	22782
871.36	22767
871.489	22752
871.619	22869
871.749	22725
871.879	22755
872.008	22938
872.138	22721
872.267	22831
872.397	22752
872.526	22649
872.656	22691
872.785	22634
872.915	22816
873.044	22946
873.173	22805
873.303	22976
873.432	22900
873.561	23014
873.69	22987
873.819	22809
873.948	22866
874.077	23003
874.206	22873
874.335	22896
874.464	23033
874.593	23052
874.722	23022
874.851	23022
874.979	23166
875.108	23200
875.237	22923
875.365	22866
875.494	23121
875.623	23105
875.751	23109
875.88	23052
876.008	23189
876.136	23185
876.265	23562
876.393	23577
876.521	23364
876.65	23573
876.778	23490
876.906	23360
877.034	23505
877.162	23356
877.29	23311
877.418	23337
877.546	23509
877.674	23341
877.802	23410
877.93	23345
878.058	23433
878.185	23322
878.313	23334
878.441	23318
878.568	23277
878.696	23452
878.824	23433
878.951	23421
879.079	23520
879.206	23638
879.333	23486
879.461	23467
879.588	23539
879.715	23619
879.842	23604
879.97	23490
880.097	23181
880.224	23315
880.351	23200
880.478	23223
880.605	23166
880.732	23235
880.859	23512
880.986	23254
881.112	23117
881.239	23079
881.366	22953
881.493	22965
881.619	22896
881.746	22710
881.872	22774
881.999	22812
882.125	22596
882.252	22752
882.378	22733
882.505	22824
882.631	22565
882.757	22542
882.883	22462
883.01	22424
883.136	22360
883.262	22382
883.388	22291
883.514	22440
883.64	22527
883.766	22402
883.892	22223
884.018	22177
884.143	22390
884.269	22474
884.395	22196
884.52	22032
884.646	22169
884.772	22067
884.897	21838
885.023	22063
885.148	22215
885.274	22230
885.399	22284
885.524	22063
885.65	22128
885.775	22097
885.9	22002
886.025	22185
886.15	22097
886.275	22063
886.4	21998
886.525	22074
886.65	21865
886.775	21941
886.9	22211
887.025	22177
887.149	22051
887.274	21911
887.399	21854
887.523	22017
887.648	21690
887.773	21743
887.897	21907
888.021	21926
888.146	21713
888.27	22029
888.395	21842
888.519	21759
888.643	21968
888.767	21922
888.891	21660
889.015	21583
889.139	21694
889.263	21523
889.387	21778
889.511	21793
889.635	21823
889.759	21515
889.883	21542
890.006	21583
890.13	21610
890.254	21576
890.377	21488
890.501	21466
890.624	21370
890.748	21424
890.871	21348
890.995	21146
891.118	21051
891.241	21298
891.364	21154
891.488	21374
891.611	21214
891.734	21169
891.857	21237
891.98	21237
892.103	21283
892.226	21222
892.349	21150
892.471	20963
892.594	21051
892.717	21180
892.839	21077
892.962	20971
893.085	21017
893.207	21150
893.33	20994
893.452	21009
893.575	21127
893.697	20975
893.819	21218
893.941	21169
894.064	21245
894.186	21005
894.308	21062
894.43	21165
894.552	21241
894.674	21108
894.796	20948
894.918	21051
895.04	21055
895.161	21154
895.283	21093
895.405	20944
895.526	20948
895.648	21051
895.769	21047
895.891	21150
896.012	21154
896.134	21032
896.255	20986
896.376	21013
896.498	21055
896.619	21024
896.74	21135
896.861	21043
896.982	21408
897.103	21515
897.224	21245
897.345	21241
897.466	21066
897.587	21218
897.708	21416
897.828	21336
897.949	21203
898.07	21028
898.19	21180
898.311	21416
898.431	21154
898.552	21096
898.672	21264
898.792	21401
898.913	21260
899.033	21077
899.153	21146
899.273	20864
899.393	21032
899.513	20895
899.633	20918
899.753	21093
899.873	20834
899.993	20967
900.113	21020
900.232	20887
900.352	20872
900.472	20758
900.591	20769
900.711	20819
900.83	20739
900.95	20838
901.069	20804
901.189	20602
901.308	20362
901.427	20320
901.546	20377
901.665	20355
901.784	20362
901.904	20237
902.023	20103
902.141	19784
902.26	19883
902.379	19921
902.498	19822
902.617	19830
902.735	19871
902.854	19814
902.973	19620
903.091	19480
903.21	19419
903.328	19415
903.446	19343
903.565	19304
903.683	19320
903.801	19270
903.919	19148
904.038	19289
904.156	19023
904.274	19027
904.392	18996
904.51	18962
904.627	18932
904.745	19129
904.863	19023
904.981	18715
905.098	18642
905.216	18741
905.334	18696
905.451	18677
905.569	18696
905.686	18669
905.803	18760
905.921	18528
906.038	18593
906.155	18513
906.272	18464
906.389	18376
906.506	18224
906.623	18262
906.74	18148
906.857	18011
906.974	18041
907.091	18319
907.208	18369
907.324	18273
907.441	18159
907.557	18019
907.674	17931
907.79	17779
907.907	17980
908.023	17874
908.139	17908
908.256	17904
908.372	17855
908.488	17885
908.604	17714
908.72	17638
908.836	17649
908.952	17577
909.068	17680
909.184	17722
909.3	17604
909.415	17676
909.531	17623
909.647	17417
909.762	17318
909.878	17296
909.993	17383
910.108	17391
910.224	17288
910.339	17311
910.454	17178
910.57	17181
910.685	17083
910.8	17391
910.915	17356
911.03	17113
911.145	17071
911.259	16866
911.374	16965
911.489	16915
911.604	16793
911.718	16729
911.833	16694
911.947	16493
912.062	16527
912.176	16706
912.291	16710
912.405	16649
912.519	16847
912.633	16812
912.748	16637
912.862	16607
912.976	16512
913.09	16386
913.204	16493
913.318	16443
913.431	16569
913.545	16596
913.659	16577
913.772	16371
913.886	16360
914	16318
914.113	16348
914.226	16447
914.34	16276
914.453	16196
914.566	16261
914.68	16154
914.793	16078
914.906	15968
915.019	15823
915.132	15812
915.245	15854
915.358	15876
915.47	15812
915.583	15865
915.696	15724
915.809	15941
915.921	16036
916.034	15751
916.146	15759
916.259	15819
916.371	15892
916.483	15861
916.595	15732
916.708	15633
916.82	15675
916.932	15667
917.044	15580
917.156	15599
917.268	15515
917.38	15466
917.491	15306
917.603	15469
917.715	15545
917.826	15618
917.938	15488
918.049	15363
918.161	15359
918.272	15534
918.384	15507
918.495	15382
918.606	15256
918.717	15199
918.828	15218
918.939	15294
919.05	15207
919.161	15157
919.272	15017
919.383	15013
919.494	15313
919.604	15374
919.715	15230
919.826	15055
919.936	15165
920.047	15142
920.157	15161
920.267	15264
920.378	15211
920.488	15047
920.598	15424
920.708	15450
920.818	15245
920.928	15272
921.038	15488
921.148	15294
921.258	15077
921.368	14956
921.477	14880
921.587	14948
921.697	14750
921.806	14918
921.916	14682
922.025	14571
922.134	14571
922.244	14446
922.353	14499
922.462	14381
922.571	14385
922.68	14218
922.789	14191
922.898	14195
923.007	14161
923.116	14142
923.224	14237
923.333	14130
923.442	13978
923.55	13989
923.659	14001
923.767	13974
923.876	13986
923.984	13986
924.092	13791
924.201	13940
924.309	13864
924.417	13928
924.525	13776
924.633	13753
924.741	14724
924.849	13548
924.956	13696
925.064	13613
925.172	13499
925.279	13537
925.387	13540
925.494	13586
925.602	13666
925.709	13449
925.816	13472
925.924	13563
926.031	13609
926.138	13441
926.245	13506
926.352	13377
926.459	13468
926.566	13567
926.673	13400
926.779	13293
926.886	13236
926.993	13137
927.099	13084
927.206	13110
927.312	13034
927.419	13118
927.525	13050
927.631	13156
927.737	12966
927.843	12897
927.95	12821
928.056	12859
928.162	12905
928.267	12886
928.373	13556
928.479	13050
928.585	12795
928.69	12821
928.796	12810
928.901	12753
929.007	12536
929.112	12734
929.218	12642
929.323	12692
929.428	12620
929.533	12711
929.638	12547
929.743	12559
929.848	12623
929.953	12547
930.058	12498
930.163	12300
930.267	12281
930.372	12380
930.477	12247
930.581	12403
930.685	12346
930.79	12148
930.894	12129
930.998	12083
931.103	12258
931.207	11897
931.311	11912
931.415	11741
931.519	11638
931.623	11585
