Data from test_V78500241_3694.txt Node
Date: Fri Mar 25 16:07:23 CST 2022
User: usil
Spectrometer: V785-0024
Trigger mode: 0
Integration Time (sec): 4.000000E-1
Scans to average: 1
Nonlinearity correction enabled: false
Boxcar width: 0
Storing dark spectrum: false
XAxis mode: Wavelengths
Number of Pixels in Spectrum: 1024
>>>>>Begin Spectral Data<<<<<
801.071	28504
801.214	28489
801.356	28276
801.499	28219
801.641	28101
801.783	28128
801.926	28230
802.068	28196
802.211	27949
802.353	27979
802.496	27797
802.638	27686
802.78	27793
802.923	27648
803.065	27572
803.208	27671
803.35	27880
803.492	28032
803.635	27884
803.777	27972
803.919	28055
804.061	28276
804.204	28025
804.346	28006
804.488	27899
804.63	27979
804.773	27876
804.915	27998
805.057	28223
805.199	27964
805.341	28120
805.483	28112
805.626	28074
805.768	27953
805.91	28006
806.052	28284
806.194	28070
806.336	28390
806.478	28219
806.62	28192
806.762	28291
806.904	28386
807.046	28862
807.188	28630
807.33	28622
807.472	28721
807.614	28611
807.756	28584
807.898	28459
808.04	28466
808.182	28443
808.324	28356
808.465	28512
808.607	28710
808.749	28946
808.891	29014
809.033	29071
809.174	28972
809.316	28866
809.458	28782
809.6	28809
809.741	29014
809.883	29033
810.025	29174
810.166	29056
810.308	29143
810.45	29033
810.591	29037
810.733	28809
810.875	29071
811.016	28839
811.158	28809
811.299	28908
811.441	29018
811.582	29052
811.724	28965
811.865	28984
812.007	28850
812.148	28957
812.29	28984
812.431	29052
812.573	29288
812.714	29292
812.855	29330
812.997	29493
813.138	29668
813.279	29539
813.421	29501
813.562	29353
813.703	29231
813.845	29162
813.986	28801
814.127	28660
814.268	28557
814.41	28691
814.551	28702
814.692	28793
814.833	28451
814.974	28443
815.115	28565
815.256	28466
815.397	28424
815.539	28443
815.68	28443
815.821	28329
815.962	28329
816.103	28295
816.244	28325
816.385	28131
816.526	28032
816.666	27914
816.807	27964
816.948	27937
817.089	28074
817.23	27831
817.371	27854
817.512	27846
817.653	27857
817.793	27903
817.934	28032
818.075	27991
818.216	27857
818.356	27846
818.497	27812
818.638	27698
818.778	27629
818.919	27781
819.06	27747
819.2	28013
819.341	27930
819.481	27892
819.622	28074
819.762	28188
819.903	28105
820.043	28017
820.184	28097
820.324	28055
820.465	28150
820.605	28021
820.746	28021
820.886	27903
821.026	27998
821.167	27960
821.307	28158
821.447	27975
821.588	27884
821.728	27717
821.868	27504
822.008	27458
822.149	27310
822.289	27454
822.429	27157
822.569	27005
822.709	27062
822.849	26933
822.99	26963
823.13	26876
823.27	26857
823.41	26830
823.55	26568
823.69	26727
823.83	26750
823.97	26705
824.11	26575
824.25	26492
824.389	26560
824.529	26640
824.669	26427
824.809	26629
824.949	26541
825.089	26613
825.228	26549
825.368	26248
825.508	26419
825.648	26492
825.787	26484
825.927	26560
826.067	26332
826.206	26355
826.346	26385
826.485	26351
826.625	26404
826.765	26560
826.904	26450
827.044	26317
827.183	26195
827.323	26138
827.462	26267
827.601	26084
827.741	26168
827.88	26237
828.02	25913
828.159	26119
828.298	26168
828.437	26229
828.577	26149
828.716	26294
828.855	26081
828.994	25837
829.134	25982
829.273	25894
829.412	25791
829.551	25742
829.69	25651
829.829	25959
829.968	25951
830.107	25932
830.246	25856
830.385	25807
830.524	25811
830.663	25620
830.802	25601
830.941	25358
831.08	25495
831.219	25495
831.357	25594
831.496	25723
831.635	25350
831.774	25396
831.913	25331
832.051	25282
832.19	25152
832.329	25240
832.467	25156
832.606	25129
832.744	25107
832.883	25164
833.022	25027
833.16	25141
833.299	25133
833.437	25099
833.576	25358
833.714	25053
833.852	25171
833.991	25244
834.129	25274
834.267	25190
834.406	25202
834.544	25354
834.682	25358
834.821	25270
834.959	25430
835.097	25217
835.235	25251
835.373	25145
835.511	25114
835.65	25050
835.788	24943
835.926	24928
836.064	24772
836.202	24954
836.34	24901
836.478	25107
836.615	25046
836.753	24932
836.891	25141
837.029	25050
837.167	24985
837.305	25023
837.443	24795
837.58	24810
837.718	25027
837.856	24795
837.993	24741
838.131	24897
838.269	24894
838.406	24882
838.544	24719
838.681	24494
838.819	24429
838.956	24372
839.094	24330
839.231	24357
839.369	24585
839.506	24779
839.643	24578
839.781	24273
839.918	24243
840.055	24350
840.193	24129
840.33	24068
840.467	24194
840.604	24194
840.742	24547
840.879	24205
841.016	24129
841.153	24121
841.29	24311
841.427	24243
841.564	24281
841.701	24228
841.838	24114
841.975	24091
842.112	24174
842.249	24003
842.385	24083
842.522	24315
842.659	24045
842.796	24038
842.933	23923
843.069	23942
843.206	23942
843.343	23901
843.479	23927
843.616	23901
843.752	23840
843.889	23748
844.025	23916
844.162	23813
844.298	23821
844.435	23733
844.571	23668
844.708	23855
844.844	23935
844.98	23889
845.117	23832
845.253	23764
845.389	23619
845.525	23695
845.661	23634
845.798	23505
845.934	23478
846.07	23524
846.206	23585
846.342	23558
846.478	23387
846.614	23311
846.75	23071
846.886	23212
847.022	23372
847.158	23360
847.294	23318
847.429	23170
847.565	23166
847.701	23455
847.837	22942
847.972	22881
848.108	23140
848.244	22987
848.379	22824
848.515	22771
848.65	22889
848.786	22858
848.921	22729
849.057	22949
849.192	22816
849.328	22892
849.463	22873
849.598	22915
849.734	22744
849.869	22713
850.004	22611
850.14	22607
850.275	22706
850.41	22455
850.545	22645
850.68	22535
850.815	22523
850.95	22634
851.085	22706
851.22	22611
851.355	22626
851.49	22455
851.625	22485
851.76	22523
851.895	22497
852.03	22504
852.165	22557
852.299	22683
852.434	22611
852.569	22596
852.703	22668
852.838	22577
852.973	22755
853.107	22740
853.242	22542
853.376	22459
853.511	22268
853.645	22390
853.78	22466
853.914	22599
854.048	22314
854.183	22318
854.317	22341
854.451	22672
854.585	22512
854.72	22455
854.854	22531
854.988	22352
855.122	22481
855.256	22284
855.39	22459
855.524	22344
855.658	22447
855.792	22356
855.926	22394
856.06	22474
856.194	22535
856.327	22443
856.461	22352
856.595	22470
856.729	22432
856.862	22470
856.996	22523
857.13	22557
857.263	22519
857.397	22451
857.53	22577
857.664	22478
857.797	22584
857.931	22603
858.064	22489
858.197	22462
858.331	22382
858.464	22348
858.597	22360
858.731	22478
858.864	22405
858.997	22257
859.13	22325
859.263	22424
859.396	22493
859.529	22379
859.662	22356
859.795	22348
859.928	22451
860.061	22478
860.194	22523
860.327	22432
860.46	22474
860.592	22535
860.725	22592
860.858	22626
860.99	22409
861.123	22322
861.256	22417
861.388	22489
861.521	23178
861.653	22230
861.786	22272
861.918	22181
862.05	22295
862.183	22280
862.315	22314
862.447	22481
862.58	22303
862.712	22169
862.844	22135
862.976	22295
863.108	22226
863.24	22683
863.372	22055
863.504	22074
863.636	22124
863.768	22074
863.9	22074
864.032	22097
864.164	22135
864.296	22154
864.428	22131
864.559	22226
864.691	22200
864.823	22188
864.954	22070
865.086	22143
865.217	22078
865.349	21903
865.48	21994
865.612	21968
865.743	22139
865.875	22036
866.006	22006
866.137	21979
866.269	22025
866.4	21945
866.531	21934
866.662	21873
866.793	21915
866.924	21998
867.055	21994
867.186	22078
867.317	21899
867.448	21781
867.579	21888
867.71	21827
867.841	21854
867.972	21876
868.103	21934
868.233	21945
868.364	21930
868.495	22116
868.625	22067
868.756	22318
868.886	22082
869.017	22143
869.147	22337
869.278	22314
869.408	22185
869.539	22025
869.669	22268
869.799	22318
869.929	22371
870.06	22284
870.19	22409
870.32	22607
870.45	22645
870.58	22527
870.71	22683
870.84	22656
870.97	22603
871.1	22618
871.23	22656
871.36	22911
871.489	22698
871.619	22763
871.749	22873
871.879	22812
872.008	22946
872.138	22828
872.267	22877
872.397	22668
872.526	22573
872.656	22691
872.785	22523
872.915	22927
873.044	22839
873.173	22991
873.303	22908
873.432	22835
873.561	22919
873.69	22759
873.819	22805
873.948	22858
874.077	22782
874.206	22630
874.335	22831
874.464	22862
874.593	22987
874.722	22949
874.851	23041
874.979	23029
875.108	22968
875.237	23006
875.365	22866
875.494	23029
875.623	23090
875.751	23010
875.88	23029
876.008	23147
876.136	23102
876.265	23353
876.393	23551
876.521	23570
876.65	23474
876.778	23512
876.906	23299
877.034	23436
877.162	23280
877.29	23307
877.418	23322
877.546	23299
877.674	23296
877.802	23322
877.93	23376
878.058	23254
878.185	23242
878.313	23307
878.441	23299
878.568	23258
878.696	23376
878.824	23265
878.951	23478
879.079	23558
879.206	23630
879.333	23467
879.461	23387
879.588	23619
879.715	23634
879.842	23604
879.97	23444
880.097	23239
880.224	23235
880.351	23181
880.478	23166
880.605	23265
880.732	23113
880.859	23444
880.986	23307
881.112	23159
881.239	22987
881.366	22942
881.493	22782
881.619	22774
881.746	22904
881.872	22767
881.999	22713
882.125	22782
882.252	22653
882.378	22668
882.505	22862
882.631	22615
882.757	22440
882.883	22409
883.01	22478
883.136	22421
883.262	22249
883.388	22280
883.514	22295
883.64	22413
883.766	22284
883.892	22093
884.018	22329
884.143	22314
884.269	22394
884.395	22147
884.52	22059
884.646	22086
884.772	21968
884.897	21888
885.023	22063
885.148	22272
885.274	22230
885.399	22070
885.524	21979
885.65	22048
885.775	22097
885.9	22063
886.025	22021
886.15	22215
886.275	22010
886.4	21994
886.525	22002
886.65	21937
886.775	21968
886.9	22070
887.025	22192
887.149	22029
887.274	21895
887.399	21755
887.523	21808
887.648	21812
887.773	21766
887.897	21892
888.021	21918
888.146	21713
888.27	21755
888.395	21907
888.519	21823
888.643	21641
888.767	21774
888.891	21698
889.015	21682
889.139	21682
889.263	21656
889.387	21644
889.511	21831
889.635	21876
889.759	21610
889.883	21553
890.006	21633
890.13	21637
890.254	21545
890.377	21443
890.501	21382
890.624	21382
890.748	21447
890.871	21233
890.995	21142
891.118	21017
891.241	21150
891.364	21108
891.488	21207
891.611	21142
891.734	21180
891.857	21165
891.98	21089
892.103	21100
892.226	21108
892.349	21089
892.471	20956
892.594	21192
892.717	21005
892.839	20910
892.962	21017
893.085	21127
893.207	21081
893.33	20956
893.452	20918
893.575	21055
893.697	21009
893.819	21135
893.941	21264
894.064	21218
894.186	20998
894.308	20891
894.43	21123
894.552	21180
894.674	21104
894.796	20902
894.918	20849
895.04	20994
895.161	21108
895.283	21013
895.405	20895
895.526	21058
895.648	20933
895.769	21089
895.891	21112
896.012	21085
896.134	21165
896.255	21077
896.376	20971
896.498	21043
896.619	20979
896.74	21001
896.861	21036
896.982	21291
897.103	21492
897.224	21214
897.345	21104
897.466	21272
897.587	21226
897.708	21207
897.828	21359
897.949	21135
898.07	20910
898.19	21146
898.311	21241
898.431	21165
898.552	21157
898.672	21401
898.792	21256
898.913	21241
899.033	21047
899.153	20925
899.273	20963
899.393	21032
899.513	21135
899.633	20967
899.753	20975
899.873	20834
899.993	20986
900.113	20929
900.232	20910
900.352	20819
900.472	20727
900.591	20651
900.711	20739
900.83	20632
900.95	20929
901.069	20906
901.189	20667
901.308	20317
901.427	20362
901.546	20301
901.665	20202
901.784	20332
901.904	20103
902.023	20035
902.141	19887
902.26	19795
902.379	19879
902.498	19723
902.617	19795
902.735	19784
902.854	19776
902.973	19651
903.091	19525
903.21	19403
903.328	19476
903.446	19365
903.565	19202
903.683	19194
903.801	19122
903.919	19263
904.038	19122
904.156	19091
904.274	19076
904.392	18913
904.51	18932
904.627	18951
904.745	19038
904.863	18996
904.981	18821
905.098	18753
905.216	18612
905.334	18730
905.451	18612
905.569	18665
905.686	18669
905.803	18738
905.921	18460
906.038	18597
906.155	18521
906.272	18350
906.389	18338
906.506	18072
906.623	18262
906.74	18235
906.857	18015
906.974	18110
907.091	18304
907.208	18277
907.324	18216
907.441	18110
907.557	17977
907.674	17954
907.79	17809
907.907	17805
908.023	17927
908.139	18026
908.256	17805
908.372	17779
908.488	17665
908.604	17608
908.72	17600
908.836	17623
908.952	17684
909.068	17699
909.184	17718
909.3	17623
909.415	17547
909.531	17687
909.647	17414
909.762	17376
909.878	17410
909.993	17299
910.108	17265
910.224	17288
910.339	17204
910.454	17223
910.57	17071
910.685	17102
910.8	17280
910.915	17220
911.03	17018
911.145	16984
911.259	16965
911.374	16843
911.489	16782
911.604	16622
911.718	16675
911.833	16710
911.947	16527
912.062	16413
912.176	16561
912.291	16664
912.405	16588
912.519	16812
912.633	16778
912.748	16683
912.862	16558
912.976	16367
913.09	16249
913.204	16478
913.318	16508
913.431	16508
913.545	16535
913.659	16569
913.772	16375
913.886	16291
914	16295
914.113	16424
914.226	16352
914.34	16268
914.453	16166
914.566	16261
914.68	16124
914.793	16090
914.906	15991
915.019	15808
915.132	15816
915.245	15679
915.358	15789
915.47	15800
915.583	15781
915.696	15823
915.809	15945
915.921	15987
916.034	15709
916.146	15713
916.259	15686
916.371	15797
916.483	15736
916.595	15553
916.708	15781
916.82	15682
916.932	15656
917.044	15561
917.156	15591
917.268	15447
917.38	15511
917.491	15485
917.603	15523
917.715	15492
917.826	15618
917.938	15435
918.049	15279
918.161	15469
918.272	15496
918.384	15526
918.495	15447
918.606	15222
918.717	15233
918.828	15264
918.939	15294
919.05	15237
919.161	15180
919.272	14956
919.383	15001
919.494	15302
919.604	15382
919.715	15252
919.826	15138
919.936	15077
920.047	15317
920.157	15176
920.267	15287
920.378	15230
920.488	15123
920.598	15272
920.708	15458
920.818	15188
920.928	15370
921.038	15447
921.148	15393
921.258	15017
921.368	14990
921.477	14925
921.587	14925
921.697	14735
921.806	14823
921.916	14807
922.025	14602
922.134	14545
922.244	14545
922.353	14564
922.462	14389
922.571	14355
922.68	14286
922.789	14180
922.898	14142
923.007	14161
923.116	14218
923.224	14218
923.333	14164
923.442	13940
923.55	13993
923.659	14016
923.767	14024
923.876	13997
923.984	13974
924.092	13833
924.201	13875
924.309	13928
924.417	13822
924.525	13795
924.633	13940
924.741	14689
924.849	13613
924.956	13757
925.064	13658
925.172	13510
925.279	13529
925.387	13552
925.494	13487
925.602	13616
925.709	13472
925.816	13449
925.924	13460
926.031	13597
926.138	13529
926.245	13639
926.352	13449
926.459	13495
926.566	13616
926.673	13460
926.779	13343
926.886	13320
926.993	13126
927.099	13114
927.206	13057
927.312	13057
927.419	13164
927.525	13027
927.631	13152
927.737	13008
927.843	12973
927.95	12814
928.056	12829
928.162	13000
928.267	13069
928.373	13616
928.479	13023
928.585	12703
928.69	12802
928.796	12909
928.901	12741
929.007	12662
929.112	12726
929.218	12730
929.323	12681
929.428	12608
929.533	12741
929.638	12448
929.743	12612
929.848	12635
929.953	12623
930.058	12399
930.163	12239
930.267	12311
930.372	12506
930.477	12235
930.581	12471
930.685	12334
930.79	12129
930.894	12213
930.998	12171
931.103	12403
931.207	11912
931.311	11832
931.415	11798
931.519	11547
931.623	11543
