Data from test_V78500241_1825.txt Node
Date: Fri Mar 25 15:54:26 CST 2022
User: usil
Spectrometer: V785-0024
Trigger mode: 0
Integration Time (sec): 4.000000E-1
Scans to average: 1
Nonlinearity correction enabled: false
Boxcar width: 0
Storing dark spectrum: false
XAxis mode: Wavelengths
Number of Pixels in Spectrum: 1024
>>>>>Begin Spectral Data<<<<<
801.071	28630
801.214	28523
801.356	28405
801.499	28318
801.641	28219
801.783	28253
801.926	28394
802.068	28204
802.211	28116
802.353	28158
802.496	27922
802.638	27975
802.78	28021
802.923	27846
803.065	27751
803.208	27797
803.35	27968
803.492	28143
803.635	28067
803.777	28131
803.919	28223
804.061	28318
804.204	28314
804.346	28090
804.488	28021
804.63	28215
804.773	28093
804.915	28166
805.057	28314
805.199	28120
805.341	28287
805.483	28337
805.626	28150
805.768	28143
805.91	28447
806.052	28382
806.194	28246
806.336	28554
806.478	28344
806.62	28215
806.762	28440
806.904	28565
807.046	28923
807.188	28702
807.33	28702
807.472	28843
807.614	28634
807.756	28672
807.898	28641
808.04	28626
808.182	28573
808.324	28527
808.465	28835
808.607	28911
808.749	29064
808.891	28976
809.033	28999
809.174	29159
809.316	29033
809.458	28987
809.6	28885
809.741	29018
809.883	29174
810.025	29223
810.166	29212
810.308	29250
810.45	29273
810.591	29231
810.733	29105
810.875	29037
811.016	28885
811.158	28927
811.299	29166
811.441	29258
811.582	29208
811.724	28961
811.865	28938
812.007	29014
812.148	29003
812.29	29121
812.431	29121
812.573	29326
812.714	29395
812.855	29501
812.997	29566
813.138	29634
813.279	29653
813.421	29463
813.562	29383
813.703	29414
813.845	29330
813.986	28991
814.127	28759
814.268	28733
814.41	28790
814.551	28706
814.692	28668
814.833	28577
814.974	28656
815.115	28778
815.256	28675
815.397	28516
815.539	28550
815.68	28485
815.821	28421
815.962	28596
816.103	28634
816.244	28398
816.385	28306
816.526	28158
816.666	28093
816.807	28010
816.948	28074
817.089	28006
817.23	27888
817.371	28029
817.512	28048
817.653	28040
817.793	27941
817.934	27873
818.075	28070
818.216	28036
818.356	27937
818.497	27892
818.638	27698
818.778	27823
818.919	27884
819.06	27709
819.2	27937
819.341	27975
819.481	28010
819.622	28200
819.762	28428
819.903	28249
820.043	28322
820.184	28112
820.324	28287
820.465	28325
820.605	28070
820.746	28238
820.886	27979
821.026	28082
821.167	28284
821.307	28162
821.447	28116
821.588	27994
821.728	27907
821.868	27728
822.008	27572
822.149	27625
822.289	27386
822.429	27249
822.569	27112
822.709	27150
822.849	26921
822.99	26963
823.13	26944
823.27	26849
823.41	26853
823.55	26792
823.69	26788
823.83	26842
823.97	26769
824.11	26564
824.25	26621
824.389	26629
824.529	26663
824.669	26686
824.809	26739
824.949	26731
825.089	26598
825.228	26727
825.368	26545
825.508	26507
825.648	26579
825.787	26568
825.927	26609
826.067	26594
826.206	26556
826.346	26484
826.485	26552
826.625	26526
826.765	26800
826.904	26552
827.044	26221
827.183	26301
827.323	26309
827.462	26347
827.601	26168
827.741	26317
827.88	26328
828.02	26149
828.159	26229
828.298	26290
828.437	26210
828.577	26248
828.716	26389
828.855	26221
828.994	25845
829.134	25894
829.273	25887
829.412	25936
829.551	25894
829.69	25913
829.829	26050
829.968	25959
830.107	26020
830.246	25902
830.385	25898
830.524	25845
830.663	25769
830.802	25746
830.941	25609
831.08	25529
831.219	25601
831.357	25518
831.496	25712
831.635	25419
831.774	25415
831.913	25453
832.051	25274
832.19	25304
832.329	25308
832.467	25225
832.606	25263
832.744	25221
832.883	25320
833.022	25194
833.16	25206
833.299	25365
833.437	25247
833.576	25320
833.714	25240
833.852	25362
833.991	25266
834.129	25403
834.267	25354
834.406	25206
834.544	25350
834.682	25343
834.821	25350
834.959	25392
835.097	25274
835.235	25343
835.373	25308
835.511	25206
835.65	25168
835.788	25152
835.926	25031
836.064	24932
836.202	24943
836.34	25164
836.478	25110
836.615	24985
836.753	25133
836.891	25168
837.029	25213
837.167	25156
837.305	24981
837.443	24935
837.58	24977
837.718	25000
837.856	25004
837.993	24825
838.131	24894
838.269	24711
838.406	24810
838.544	24791
838.681	24566
838.819	24570
838.956	24414
839.094	24429
839.231	24456
839.369	24631
839.506	24810
839.643	24700
839.781	24376
839.918	24350
840.055	24308
840.193	24372
840.33	24330
840.467	24346
840.604	24437
840.742	24623
840.879	24232
841.016	24224
841.153	24232
841.29	24517
841.427	24292
841.564	24365
841.701	24289
841.838	24186
841.975	24254
842.112	24167
842.249	24053
842.385	23950
842.522	24361
842.659	24167
842.796	24034
842.933	24106
843.069	24022
843.206	24091
843.343	24186
843.479	23977
843.616	24159
843.752	23878
843.889	23817
844.025	23916
844.162	23771
844.298	23977
844.435	23729
844.571	23870
844.708	23885
844.844	24026
844.98	24030
845.117	23942
845.253	23680
845.389	23714
845.525	23684
845.661	23619
845.798	23493
845.934	23611
846.07	23543
846.206	23566
846.342	23630
846.478	23573
846.614	23216
846.75	23269
846.886	23360
847.022	23410
847.158	23334
847.294	23261
847.429	23288
847.565	23318
847.701	23452
847.837	23041
847.972	22866
848.108	23113
848.244	23041
848.379	22949
848.515	22812
848.65	22847
848.786	22824
848.921	22915
849.057	22980
849.192	22953
849.328	22995
849.463	22900
849.598	22752
849.734	22824
849.869	22797
850.004	22641
850.14	22584
850.275	22660
850.41	22531
850.545	22691
850.68	22656
850.815	22706
850.95	22645
851.085	22733
851.22	22748
851.355	22603
851.49	22599
851.625	22622
851.76	22668
851.895	22577
852.03	22618
852.165	22573
852.299	22748
852.434	22710
852.569	22656
852.703	22607
852.838	22713
852.973	22740
853.107	22683
853.242	22626
853.376	22516
853.511	22348
853.645	22371
853.78	22584
853.914	22607
854.048	22455
854.183	22462
854.317	22531
854.451	22675
854.585	22398
854.72	22451
854.854	22611
854.988	22424
855.122	22466
855.256	22329
855.39	22417
855.524	22557
855.658	22402
855.792	22325
855.926	22459
856.06	22497
856.194	22500
856.327	22402
856.461	22303
856.595	22466
856.729	22451
856.862	22474
856.996	22451
857.13	22489
857.263	22485
857.397	22599
857.53	22557
857.664	22497
857.797	22478
857.931	22561
858.064	22318
858.197	22519
858.331	22314
858.464	22451
858.597	22284
858.731	22390
858.864	22402
858.997	22386
859.13	22451
859.263	22443
859.396	22512
859.529	22527
859.662	22409
859.795	22462
859.928	22485
860.061	22679
860.194	22721
860.327	22580
860.46	22466
860.592	22519
860.725	22679
860.858	22565
860.99	22356
861.123	22584
861.256	22394
861.388	22409
861.521	23197
861.653	22276
861.786	22188
861.918	22249
862.05	22306
862.183	22428
862.315	22371
862.447	22466
862.58	22306
862.712	22200
862.844	22181
862.976	22295
863.108	22139
863.24	22660
863.372	22059
863.504	22219
863.636	22173
863.768	22143
863.9	22162
864.032	22116
864.164	22074
864.296	22246
864.428	22348
864.559	22200
864.691	22154
864.823	22063
864.954	22181
865.086	22036
865.217	22139
865.349	22044
865.48	22124
865.612	22055
865.743	22181
865.875	22032
866.006	22029
866.137	22059
866.269	21991
866.4	22044
866.531	21975
866.662	21937
866.793	21998
866.924	21975
867.055	21975
867.186	21915
867.317	21857
867.448	21827
867.579	22048
867.71	21789
867.841	21930
867.972	22051
868.103	21994
868.233	22002
868.364	21918
868.495	22074
868.625	22200
868.756	22360
868.886	22059
869.017	22192
869.147	22405
869.278	22333
869.408	22204
869.539	22204
869.669	22276
869.799	22265
869.929	22375
870.06	22272
870.19	22504
870.32	22573
870.45	22500
870.58	22577
870.71	22698
870.84	22664
870.97	22660
871.1	22634
871.23	22790
871.36	22801
871.489	22554
871.619	22790
871.749	22763
871.879	22889
872.008	22892
872.138	22736
872.267	22748
872.397	22588
872.526	22603
872.656	22710
872.785	22725
872.915	22873
873.044	22889
873.173	22740
873.303	22923
873.432	22892
873.561	23010
873.69	22854
873.819	22816
873.948	22854
874.077	22900
874.206	22740
874.335	22862
874.464	22862
874.593	23003
874.722	22927
874.851	23113
874.979	23121
875.108	23041
875.237	23003
875.365	23037
875.494	23064
875.623	23060
875.751	22961
875.88	23033
876.008	23181
876.136	23147
876.265	23448
876.393	23543
876.521	23410
876.65	23463
876.778	23349
876.906	23269
877.034	23315
877.162	23368
877.29	23360
877.418	23421
877.546	23341
877.674	23429
877.802	23353
877.93	23425
878.058	23326
878.185	23296
878.313	23406
878.441	23334
878.568	23208
878.696	23330
878.824	23360
878.951	23398
879.079	23596
879.206	23566
879.333	23474
879.461	23311
879.588	23531
879.715	23577
879.842	23714
879.97	23383
880.097	23322
880.224	23193
880.351	23311
880.478	23246
880.605	23258
880.732	23159
880.859	23547
880.986	23197
881.112	23079
881.239	23117
881.366	22923
881.493	22881
881.619	22717
881.746	22828
881.872	22797
881.999	22649
882.125	22615
882.252	22710
882.378	22698
882.505	22854
882.631	22653
882.757	22489
882.883	22512
883.01	22421
883.136	22440
883.262	22329
883.388	22200
883.514	22432
883.64	22451
883.766	22447
883.892	22181
884.018	22204
884.143	22318
884.269	22440
884.395	22051
884.52	21964
884.646	22097
884.772	22044
884.897	21922
885.023	22147
885.148	22036
885.274	22188
885.399	22074
885.524	22059
885.65	22017
885.775	22063
885.9	22070
886.025	22150
886.15	22063
886.275	22051
886.4	21964
886.525	22109
886.65	22002
886.775	21873
886.9	22192
887.025	22306
887.149	21949
887.274	21857
887.399	21816
887.523	21816
887.648	21774
887.773	21766
887.897	21975
888.021	21808
888.146	21759
888.27	21937
888.395	21945
888.519	21804
888.643	21888
888.767	21888
888.891	21793
889.015	21663
889.139	21728
889.263	21648
889.387	21728
889.511	21812
889.635	21854
889.759	21606
889.883	21637
890.006	21538
890.13	21694
890.254	21363
890.377	21557
890.501	21386
890.624	21393
890.748	21359
890.871	21226
890.995	21116
891.118	21085
891.241	21233
891.364	21188
891.488	21332
891.611	21161
891.734	21123
891.857	21249
891.98	21203
892.103	21218
892.226	21252
892.349	21058
892.471	20944
892.594	21104
892.717	21184
892.839	21043
892.962	21104
893.085	21112
893.207	21009
893.33	20921
893.452	21009
893.575	20982
893.697	21051
893.819	21157
893.941	21203
894.064	21173
894.186	20941
894.308	20876
894.43	21146
894.552	21161
894.674	21123
894.796	20944
894.918	21131
895.04	20952
895.161	21062
895.283	21070
895.405	21024
895.526	21070
895.648	21104
895.769	21047
895.891	21062
896.012	21135
896.134	21146
896.255	21055
896.376	20948
896.498	20975
896.619	21009
896.74	21028
896.861	21108
896.982	21405
897.103	21397
897.224	21408
897.345	21104
897.466	21344
897.587	21062
897.708	21340
897.828	21173
897.949	21188
898.07	21127
898.19	21180
898.311	21329
898.431	21100
898.552	21252
898.672	21275
898.792	21344
898.913	21214
899.033	21005
899.153	21119
899.273	20925
899.393	20933
899.513	20937
899.633	20914
899.753	20956
899.873	20906
899.993	21074
900.113	20853
900.232	20941
900.352	20834
900.472	20792
900.591	20731
900.711	20735
900.83	20636
900.95	20788
901.069	20834
901.189	20625
901.308	20522
901.427	20275
901.546	20339
901.665	20259
901.784	20259
901.904	20172
902.023	20073
902.141	19864
902.26	19723
902.379	19902
902.498	19769
902.617	19734
902.735	19845
902.854	19814
902.973	19750
903.091	19483
903.21	19373
903.328	19434
903.446	19396
903.565	19213
903.683	19266
903.801	19160
903.919	19247
904.038	19156
904.156	18867
904.274	19114
904.392	18909
904.51	18924
904.627	19080
904.745	19069
904.863	19099
904.981	18764
905.098	18688
905.216	18658
905.334	18798
905.451	18829
905.569	18570
905.686	18719
905.803	18692
905.921	18506
906.038	18620
906.155	18479
906.272	18365
906.389	18399
906.506	18209
906.623	18243
906.74	18197
906.857	18087
906.974	18129
907.091	18251
907.208	18407
907.324	18205
907.441	18106
907.557	18015
907.674	17973
907.79	17843
907.907	17904
908.023	17935
908.139	17836
908.256	17843
908.372	17802
908.488	17737
908.604	17573
908.72	17649
908.836	17619
908.952	17566
909.068	17649
909.184	17668
909.3	17615
909.415	17653
909.531	17493
909.647	17235
909.762	17360
909.878	17360
909.993	17395
910.108	17246
910.224	17307
910.339	17303
910.454	17151
910.57	17075
910.685	17094
910.8	17387
910.915	17299
911.03	17136
911.145	17006
911.259	16869
911.374	16873
911.489	16713
911.604	16850
911.718	16626
911.833	16656
911.947	16561
912.062	16565
912.176	16622
912.291	16634
912.405	16637
912.519	16889
912.633	16767
912.748	16702
912.862	16573
912.976	16322
913.09	16424
913.204	16421
913.318	16432
913.431	16497
913.545	16626
913.659	16558
913.772	16390
913.886	16333
914	16181
914.113	16291
914.226	16375
914.34	16337
914.453	16154
914.566	16306
914.68	16120
914.793	16128
914.906	15812
915.019	15922
915.132	15846
915.245	15766
915.358	15823
915.47	15838
915.583	15793
915.696	15797
915.809	15892
915.921	16032
916.034	15808
916.146	15781
916.259	15690
916.371	15816
916.483	15755
916.595	15675
916.708	15637
916.82	15637
916.932	15648
917.044	15648
917.156	15515
917.268	15511
917.38	15538
917.491	15496
917.603	15561
917.715	15561
917.826	15515
917.938	15367
918.049	15302
918.161	15348
918.272	15545
918.384	15511
918.495	15401
918.606	15207
918.717	15097
918.828	15180
918.939	15268
919.05	15142
919.161	15283
919.272	15009
919.383	15123
919.494	15222
919.604	15348
919.715	15192
919.826	15020
919.936	15047
920.047	15218
920.157	15211
920.267	15230
920.378	15245
920.488	15150
920.598	15370
920.708	15443
920.818	15355
920.928	15367
921.038	15355
921.148	15412
921.258	15165
921.368	14948
921.477	15009
921.587	14838
921.697	14739
921.806	14891
921.916	14712
922.025	14518
922.134	14556
922.244	14484
922.353	14568
922.462	14377
922.571	14305
922.68	14176
922.789	14168
922.898	14062
923.007	14077
923.116	14267
923.224	14176
923.333	14092
923.442	13993
923.55	14008
923.659	14046
923.767	14062
923.876	13936
923.984	14024
924.092	13841
924.201	13986
924.309	13925
924.417	13833
924.525	13731
924.633	13830
924.741	14552
924.849	13540
924.956	13776
925.064	13510
925.172	13499
925.279	13499
925.387	13613
925.494	13502
925.602	13670
925.709	13597
925.816	13403
925.924	13506
926.031	13609
926.138	13407
926.245	13407
926.352	13339
926.459	13487
926.566	13533
926.673	13327
926.779	13255
926.886	13244
926.993	13133
927.099	13118
927.206	13050
927.312	12973
927.419	13084
927.525	13038
927.631	13179
927.737	12935
927.843	12882
927.95	12871
928.056	12848
928.162	12852
928.267	12916
928.373	13529
928.479	12856
928.585	12760
928.69	12768
928.796	12886
928.901	12783
929.007	12604
929.112	12768
929.218	12696
929.323	12650
929.428	12589
929.533	12757
929.638	12464
929.743	12582
929.848	12574
929.953	12551
930.058	12350
930.163	12216
930.267	12338
930.372	12384
930.477	12262
930.581	12422
930.685	12308
930.79	12034
930.894	12155
930.998	12091
931.103	12205
931.207	11935
931.311	11805
931.415	11767
931.519	11577
931.623	11558
