Data from test_V78500241_341.txt Node
Date: Fri Mar 25 15:44:09 CST 2022
User: usil
Spectrometer: V785-0024
Trigger mode: 0
Integration Time (sec): 4.000000E-1
Scans to average: 1
Nonlinearity correction enabled: false
Boxcar width: 0
Storing dark spectrum: false
XAxis mode: Wavelengths
Number of Pixels in Spectrum: 1024
>>>>>Begin Spectral Data<<<<<
801.071	29923
801.214	29802
801.356	29600
801.499	29638
801.641	29444
801.783	29448
801.926	29493
802.068	29414
802.211	29185
802.353	29292
802.496	29041
802.638	29200
802.78	29098
802.923	29003
803.065	28995
803.208	28957
803.35	29124
803.492	29204
803.635	29307
803.777	29181
803.919	29254
804.061	29497
804.204	29360
804.346	29269
804.488	29056
804.63	29410
804.773	29105
804.915	29402
805.057	29337
805.199	29280
805.341	29345
805.483	29410
805.626	29242
805.768	29349
805.91	29444
806.052	29486
806.194	29265
806.336	29577
806.478	29524
806.62	29444
806.762	29577
806.904	29756
807.046	29885
807.188	29969
807.33	29840
807.472	29859
807.614	29920
807.756	29821
807.898	29729
808.04	29741
808.182	29505
808.324	29687
808.465	29604
808.607	29950
808.749	30110
808.891	30197
809.033	30060
809.174	30144
809.316	30155
809.458	30049
809.6	30038
809.741	30068
809.883	30022
810.025	30330
810.166	30346
810.308	30361
810.45	30338
810.591	30243
810.733	30083
810.875	30121
811.016	29897
811.158	29916
811.299	30235
811.441	30304
811.582	30281
811.724	30060
811.865	30079
812.007	30121
812.148	29980
812.29	30186
812.431	30163
812.573	30273
812.714	30513
812.855	30582
812.997	30703
813.138	30886
813.279	30669
813.421	30551
813.562	30623
813.703	30483
813.845	30182
813.986	29999
814.127	29847
814.268	29767
814.41	29676
814.551	29642
814.692	29798
814.833	29623
814.974	29638
815.115	29828
815.256	29714
815.397	29577
815.539	29653
815.68	29573
815.821	29474
815.962	29471
816.103	29417
816.244	29387
816.385	29303
816.526	29311
816.666	29033
816.807	28987
816.948	29083
817.089	29216
817.23	29025
817.371	28999
817.512	28987
817.653	28888
817.793	28976
817.934	28934
818.075	28961
818.216	29083
818.356	28911
818.497	28888
818.638	28645
818.778	28759
818.919	28687
819.06	28774
819.2	28987
819.341	28946
819.481	28869
819.622	29178
819.762	29444
819.903	29124
820.043	29067
820.184	29041
820.324	29071
820.465	29162
820.605	29079
820.746	29067
820.886	29037
821.026	28972
821.167	29071
821.307	29075
821.447	28930
821.588	28862
821.728	28641
821.868	28440
822.008	28519
822.149	28386
822.289	28295
822.429	28116
822.569	27930
822.709	28082
822.849	27770
822.99	27827
823.13	27637
823.27	27819
823.41	27633
823.55	27534
823.69	27713
823.83	27705
823.97	27542
824.11	27367
824.25	27458
824.389	27519
824.529	27576
824.669	27389
824.809	27622
824.949	27557
825.089	27568
825.228	27526
825.368	27275
825.508	27287
825.648	27348
825.787	27367
825.927	27313
826.067	27370
826.206	27329
826.346	27344
826.485	27363
826.625	27233
826.765	27443
826.904	27374
827.044	27032
827.183	27176
827.323	26979
827.462	27047
827.601	27055
827.741	27108
827.88	26990
828.02	26952
828.159	26940
828.298	27005
828.437	26910
828.577	26948
828.716	27150
828.855	26982
828.994	26720
829.134	26720
829.273	26708
829.412	26621
829.551	26564
829.69	26674
829.829	26644
829.968	26701
830.107	26693
830.246	26583
830.385	26549
830.524	26579
830.663	26442
830.802	26263
830.941	26134
831.08	26183
831.219	26168
831.357	26240
831.496	26309
831.635	26278
831.774	26142
831.913	26206
832.051	26001
832.19	26043
832.329	25947
832.467	25879
832.606	25871
832.744	25921
832.883	25955
833.022	25837
833.16	25795
833.299	25909
833.437	25928
833.576	25925
833.714	25887
833.852	26024
833.991	25978
834.129	25978
834.267	25845
834.406	25963
834.544	25750
834.682	25902
834.821	25811
834.959	26077
835.097	25978
835.235	26050
835.373	25852
835.511	25902
835.65	25871
835.788	25715
835.926	25495
836.064	25479
836.202	25590
836.34	25742
836.478	25795
836.615	25772
836.753	25734
836.891	25738
837.029	25685
837.167	25670
837.305	25628
837.443	25540
837.58	25491
837.718	25620
837.856	25529
837.993	25529
838.131	25540
838.269	25339
838.406	25445
838.544	25308
838.681	25152
838.819	25027
838.956	24890
839.094	25103
839.231	24981
839.369	25091
839.506	25392
839.643	25232
839.781	24901
839.918	24970
840.055	24817
840.193	25053
840.33	24726
840.467	24947
840.604	24989
840.742	25042
840.879	24715
841.016	24829
841.153	24707
841.29	24886
841.427	24844
841.564	24810
841.701	24715
841.838	24760
841.975	24646
842.112	24749
842.249	24635
842.385	24608
842.522	24852
842.659	24623
842.796	24494
842.933	24559
843.069	24502
843.206	24456
843.343	24597
843.479	24418
843.616	24517
843.752	24270
843.889	24235
844.025	24475
844.162	24220
844.298	24376
844.435	24380
844.571	24258
844.708	24334
844.844	24467
844.98	24498
845.117	24327
845.253	24125
845.389	24129
845.525	24087
845.661	24026
845.798	23946
845.934	24178
846.07	23954
846.206	23885
846.342	24007
846.478	24114
846.614	23680
846.75	23543
846.886	23714
847.022	23707
847.158	23783
847.294	23710
847.429	23813
847.565	23771
847.701	24121
847.837	23406
847.972	23425
848.108	23570
848.244	23467
848.379	23265
848.515	23284
848.65	23178
848.786	23265
848.921	23239
849.057	23349
849.192	23334
849.328	23277
849.463	23254
849.598	23197
849.734	23079
849.869	23056
850.004	23018
850.14	23090
850.275	23117
850.41	22961
850.545	22930
850.68	22904
850.815	22961
850.95	22980
851.085	23109
851.22	22942
851.355	23037
851.49	22965
851.625	22892
851.76	22923
851.895	22843
852.03	22862
852.165	22957
852.299	23064
852.434	23128
852.569	23006
852.703	22957
852.838	23056
852.973	23056
853.107	23075
853.242	22987
853.376	22900
853.511	22660
853.645	22793
853.78	22790
853.914	22824
854.048	22660
854.183	22805
854.317	22778
854.451	23022
854.585	22759
854.72	22790
854.854	22915
854.988	22752
855.122	22797
855.256	22679
855.39	22801
855.524	22961
855.658	22847
855.792	22816
855.926	22786
856.06	22896
856.194	22820
856.327	22801
856.461	22668
856.595	22706
856.729	22679
856.862	22908
856.996	22771
857.13	22733
857.263	22919
857.397	22980
857.53	22736
857.664	22885
857.797	22919
857.931	22873
858.064	22824
858.197	23029
858.331	22774
858.464	22717
858.597	22618
858.731	22801
858.864	22664
858.997	22740
859.13	22828
859.263	22877
859.396	22927
859.529	22790
859.662	22763
859.795	22607
859.928	22744
860.061	22835
860.194	22995
860.327	22755
860.46	22744
860.592	22790
860.725	22984
860.858	22869
860.99	22774
861.123	22588
861.256	22653
861.388	22752
861.521	23421
861.653	22618
861.786	22519
861.918	22580
862.05	22535
862.183	22752
862.315	22725
862.447	22824
862.58	22554
862.712	22561
862.844	22428
862.976	22561
863.108	22573
863.24	22850
863.372	22481
863.504	22466
863.636	22329
863.768	22497
863.9	22371
864.032	22390
864.164	22455
864.296	22299
864.428	22565
864.559	22436
864.691	22538
864.823	22474
864.954	22432
865.086	22451
865.217	22390
865.349	22280
865.48	22333
865.612	22310
865.743	22459
865.875	22177
866.006	22318
866.137	22223
866.269	22177
866.4	22291
866.531	22314
866.662	22242
866.793	22154
866.924	22284
867.055	22310
867.186	22314
867.317	22242
867.448	22196
867.579	22135
867.71	22211
867.841	22196
867.972	22196
868.103	22234
868.233	22253
868.364	22322
868.495	22363
868.625	22409
868.756	22569
868.886	22348
869.017	22417
869.147	22569
869.278	22641
869.408	22440
869.539	22352
869.669	22497
869.799	22554
869.929	22622
870.06	22603
870.19	22763
870.32	22713
870.45	22759
870.58	22904
870.71	23067
870.84	22873
870.97	22786
871.1	22892
871.23	23052
871.36	23079
871.489	22900
871.619	23022
871.749	23018
871.879	23025
872.008	23204
872.138	23181
872.267	23159
872.397	22923
872.526	22790
872.656	22923
872.785	22908
872.915	23041
873.044	23288
873.173	23159
873.303	23181
873.432	23185
873.561	23220
873.69	23235
873.819	22949
873.948	23299
874.077	23204
874.206	23041
874.335	23159
874.464	23159
874.593	23330
874.722	23269
874.851	23216
874.979	23379
875.108	23649
875.237	23174
875.365	23242
875.494	23345
875.623	23299
875.751	23174
875.88	23387
876.008	23421
876.136	23433
876.265	23794
876.393	23908
876.521	23764
876.65	23752
876.778	23676
876.906	23558
877.034	23646
877.162	23866
877.29	23638
877.418	23695
877.546	23623
877.674	23691
877.802	23604
877.93	23687
878.058	23638
878.185	23562
878.313	23558
878.441	23577
878.568	23341
878.696	23566
878.824	23722
878.951	23676
879.079	23855
879.206	23904
879.333	23882
879.461	23672
879.588	23790
879.715	23771
879.842	23893
879.97	23760
880.097	23467
880.224	23539
880.351	23600
880.478	23554
880.605	23322
880.732	23353
880.859	23703
880.986	23421
881.112	23493
881.239	23311
881.366	23140
881.493	23090
881.619	23044
881.746	23113
881.872	23079
881.999	23060
882.125	23094
882.252	23041
882.378	23029
882.505	23075
882.631	22885
882.757	22713
882.883	22816
883.01	22782
883.136	22744
883.262	22580
883.388	22493
883.514	22759
883.64	22687
883.766	22599
883.892	22512
884.018	22462
884.143	22599
884.269	22752
884.395	22367
884.52	22409
884.646	22409
884.772	22169
884.897	22207
885.023	22405
885.148	22417
885.274	22489
885.399	22337
885.524	22356
885.65	22226
885.775	22287
885.9	22268
886.025	22462
886.15	22344
886.275	22242
886.4	22192
886.525	22291
886.65	22226
886.775	22234
886.9	22421
887.025	22504
887.149	22348
887.274	22139
887.399	22070
887.523	22143
887.648	21991
887.773	22082
887.897	22097
888.021	22238
888.146	21983
888.27	22051
888.395	22135
888.519	22181
888.643	22112
888.767	22040
888.891	21979
889.015	21816
889.139	21835
889.263	21873
889.387	21823
889.511	22150
889.635	21915
889.759	21778
889.883	21724
890.006	21759
890.13	21819
890.254	21641
890.377	21739
890.501	21538
890.624	21652
890.748	21656
890.871	21526
890.995	21389
891.118	21252
891.241	21542
891.364	21485
891.488	21557
891.611	21454
891.734	21443
891.857	21370
891.98	21389
892.103	21382
892.226	21386
892.349	21386
892.471	21211
892.594	21256
892.717	21359
892.839	21161
892.962	21245
893.085	21355
893.207	21256
893.33	21294
893.452	21169
893.575	21283
893.697	21275
893.819	21462
893.941	21408
894.064	21389
894.186	21230
894.308	21226
894.43	21450
894.552	21428
894.674	21252
894.796	21184
894.918	21226
895.04	21310
895.161	21192
895.283	21249
895.405	21096
895.526	21302
895.648	21195
895.769	21294
895.891	21298
896.012	21268
896.134	21252
896.255	21321
896.376	21176
896.498	21279
896.619	21389
896.74	21256
896.861	21283
896.982	21663
897.103	21778
897.224	21572
897.345	21561
897.466	21420
897.587	21564
897.708	21534
897.828	21458
897.949	21523
898.07	21237
898.19	21378
898.311	21466
898.431	21378
898.552	21469
898.672	21519
898.792	21507
898.913	21564
899.033	21321
899.153	21252
899.273	21093
899.393	21218
899.513	21195
899.633	21214
899.753	21260
899.873	21146
899.993	21150
900.113	21123
900.232	21104
900.352	21051
900.472	20937
900.591	20967
900.711	20998
900.83	20864
900.95	20990
901.069	21062
901.189	20769
901.308	20667
901.427	20541
901.546	20457
901.665	20560
901.784	20511
901.904	20400
902.023	20286
902.141	20084
902.26	20024
902.379	20100
902.498	19993
902.617	19978
902.735	20016
902.854	19947
902.973	19944
903.091	19537
903.21	19677
903.328	19487
903.446	19457
903.565	19487
903.683	19449
903.801	19304
903.919	19430
904.038	19335
904.156	19232
904.274	19285
904.392	19122
904.51	19187
904.627	19072
904.745	19301
904.863	19232
904.981	19110
905.098	18810
905.216	18821
905.334	18894
905.451	18859
905.569	18867
905.686	18928
905.803	18810
905.921	18601
906.038	18734
906.155	18669
906.272	18483
906.389	18597
906.506	18437
906.623	18414
906.74	18388
906.857	18315
906.974	18232
907.091	18391
907.208	18372
907.324	18410
907.441	18281
907.557	18133
907.674	18098
907.79	18060
907.907	18041
908.023	18102
908.139	18011
908.256	17973
908.372	17988
908.488	17935
908.604	17832
908.72	17745
908.836	17866
908.952	17821
909.068	17707
909.184	17710
909.3	17642
909.415	17771
909.531	17699
909.647	17566
909.762	17372
909.878	17478
909.993	17341
910.108	17406
910.224	17486
910.339	17436
910.454	17326
910.57	17121
910.685	17208
910.8	17379
910.915	17360
911.03	17227
911.145	17140
911.259	17064
911.374	17048
911.489	17022
911.604	16927
911.718	16698
911.833	16866
911.947	16702
912.062	16504
912.176	16793
912.291	16774
912.405	16725
912.519	16854
912.633	16889
912.748	16763
912.862	16656
912.976	16489
913.09	16455
913.204	16440
913.318	16481
913.431	16687
913.545	16580
913.659	16656
913.772	16527
913.886	16310
914	16287
914.113	16409
914.226	16455
914.34	16497
914.453	16230
914.566	16322
914.68	16291
914.793	16230
914.906	15949
915.019	15964
915.132	15926
915.245	15854
915.358	15911
915.47	15873
915.583	15907
915.696	15972
915.809	16051
915.921	16078
916.034	15797
916.146	15827
916.259	15797
916.371	15880
916.483	15880
916.595	15835
916.708	15701
916.82	15652
916.932	15671
917.044	15667
917.156	15610
917.268	15557
917.38	15610
917.491	15447
917.603	15481
917.715	15492
917.826	15526
917.938	15428
918.049	15302
918.161	15408
918.272	15538
918.384	15523
918.495	15466
918.606	15317
918.717	15264
918.828	15230
918.939	15340
919.05	15173
919.161	15203
919.272	15036
919.383	15017
919.494	15256
919.604	15466
919.715	15313
919.826	15131
919.936	15203
920.047	15161
920.157	15279
920.267	15397
920.378	15233
920.488	15157
920.598	15275
920.708	15481
920.818	15317
920.928	15279
921.038	15477
921.148	15374
921.258	15146
921.368	15036
921.477	14967
921.587	14834
921.697	14807
921.806	14895
921.916	14670
922.025	14537
922.134	14575
922.244	14438
922.353	14556
922.462	14446
922.571	14320
922.68	14218
922.789	14176
922.898	14237
923.007	14115
923.116	14191
923.224	14142
923.333	14081
923.442	13986
923.55	13925
923.659	13982
923.767	14016
923.876	13852
923.984	14020
924.092	13845
924.201	13947
924.309	13917
924.417	13833
924.525	13776
924.633	13784
924.741	14499
924.849	13670
924.956	13795
925.064	13586
925.172	13514
925.279	13628
925.387	13563
925.494	13571
925.602	13712
925.709	13601
925.816	13525
925.924	13533
926.031	13594
926.138	13422
926.245	13624
926.352	13400
926.459	13441
926.566	13483
926.673	13388
926.779	13297
926.886	13225
926.993	13118
927.099	13217
927.206	12985
927.312	12981
927.419	13046
927.525	13088
927.631	13126
927.737	13031
927.843	12962
927.95	12833
928.056	12848
928.162	12970
928.267	12973
928.373	13521
928.479	13012
928.585	12707
928.69	12734
928.796	12863
928.901	12745
929.007	12517
929.112	12745
929.218	12730
929.323	12563
929.428	12597
929.533	12665
929.638	12631
929.743	12528
929.848	12513
929.953	12559
930.058	12467
930.163	12304
930.267	12384
930.372	12369
930.477	12232
930.581	12509
930.685	12304
930.79	12117
930.894	12163
930.998	12114
931.103	12235
931.207	11870
931.311	11745
931.415	11630
931.519	11467
931.623	11505
