Data from test_V78500241_2859.txt Node
Date: Fri Mar 25 16:01:36 CST 2022
User: usil
Spectrometer: V785-0024
Trigger mode: 0
Integration Time (sec): 4.000000E-1
Scans to average: 1
Nonlinearity correction enabled: false
Boxcar width: 0
Storing dark spectrum: false
XAxis mode: Wavelengths
Number of Pixels in Spectrum: 1024
>>>>>Begin Spectral Data<<<<<
801.071	29018
801.214	28987
801.356	28961
801.499	28729
801.641	28607
801.783	28702
801.926	28809
802.068	28660
802.211	28622
802.353	28462
802.496	28333
802.638	28333
802.78	28462
802.923	28409
803.065	28120
803.208	28371
803.35	28333
803.492	28573
803.635	28531
803.777	28440
803.919	28569
804.061	28710
804.204	28759
804.346	28470
804.488	28459
804.63	28637
804.773	28375
804.915	28771
805.057	28733
805.199	28554
805.341	28771
805.483	28835
805.626	28721
805.768	28561
805.91	28744
806.052	28858
806.194	28725
806.336	28991
806.478	28881
806.62	28721
806.762	28908
806.904	29014
807.046	29269
807.188	29239
807.33	29216
807.472	29284
807.614	29185
807.756	29086
807.898	29029
808.04	29121
808.182	28900
808.324	29098
808.465	29113
808.607	29478
808.749	29421
808.891	29535
809.033	29547
809.174	29646
809.316	29429
809.458	29452
809.6	29490
809.741	29585
809.883	29680
810.025	29802
810.166	29775
810.308	29687
810.45	29722
810.591	29600
810.733	29604
810.875	29444
811.016	29246
811.158	29474
811.299	29604
811.441	29448
811.582	29570
811.724	29562
811.865	29531
812.007	29353
812.148	29448
812.29	29490
812.431	29661
812.573	29775
812.714	29954
812.855	29973
812.997	30007
813.138	30247
813.279	30053
813.421	30129
813.562	29893
813.703	29809
813.845	29756
813.986	29421
814.127	29170
814.268	29181
814.41	29235
814.551	29121
814.692	29299
814.833	29200
814.974	29193
815.115	29136
815.256	29033
815.397	29155
815.539	29121
815.68	29060
815.821	28972
815.962	28949
816.103	28987
816.244	28953
816.385	28675
816.526	28786
816.666	28702
816.807	28459
816.948	28557
817.089	28698
817.23	28603
817.371	28550
817.512	28527
817.653	28440
817.793	28436
817.934	28455
818.075	28527
818.216	28542
818.356	28447
818.497	28443
818.638	28238
818.778	28253
818.919	28318
819.06	28348
819.2	28596
819.341	28443
819.481	28542
819.622	28698
819.762	28843
819.903	28656
820.043	28729
820.184	28626
820.324	28790
820.465	28672
820.605	28683
820.746	28672
820.886	28603
821.026	28672
821.167	28516
821.307	28812
821.447	28580
821.588	28455
821.728	28314
821.868	28143
822.008	27979
822.149	28040
822.289	27926
822.429	27660
822.569	27709
822.709	27797
822.849	27488
822.99	27408
823.13	27667
823.27	27496
823.41	27374
823.55	27203
823.69	27386
823.83	27325
823.97	27313
824.11	27135
824.25	27272
824.389	27142
824.529	27408
824.669	27135
824.809	27279
824.949	27264
825.089	27321
825.228	27195
825.368	27024
825.508	27123
825.648	27058
825.787	27226
825.927	27245
826.067	26960
826.206	27161
826.346	27283
826.485	27199
826.625	27096
826.765	27260
826.904	27104
827.044	26807
827.183	26823
827.323	26876
827.462	26899
827.601	26921
827.741	26838
827.88	26952
828.02	26682
828.159	26807
828.298	26925
828.437	26754
828.577	26792
828.716	26796
828.855	26697
828.994	26526
829.134	26571
829.273	26537
829.412	26507
829.551	26488
829.69	26366
829.829	26499
829.968	26579
830.107	26412
830.246	26263
830.385	26362
830.524	26453
830.663	26290
830.802	26164
830.941	26035
831.08	26122
831.219	26210
831.357	26176
831.496	26381
831.635	26111
831.774	26054
831.913	26016
832.051	25894
832.19	25989
832.329	25997
832.467	25769
832.606	25734
832.744	25807
832.883	25837
833.022	25632
833.16	25879
833.299	25742
833.437	25814
833.576	25852
833.714	25890
833.852	25822
833.991	25902
834.129	25833
834.267	25993
834.406	25807
834.544	25894
834.682	25944
834.821	25875
834.959	25959
835.097	25753
835.235	25871
835.373	25750
835.511	25887
835.65	25750
835.788	25742
835.926	25533
836.064	25487
836.202	25491
836.34	25635
836.478	25875
836.615	25670
836.753	25643
836.891	25609
837.029	25666
837.167	25586
837.305	25616
837.443	25392
837.58	25552
837.718	25388
837.856	25449
837.993	25430
838.131	25373
838.269	25373
838.406	25438
838.544	25198
838.681	25129
838.819	25240
838.956	25080
839.094	25023
839.231	24939
839.369	25137
839.506	25441
839.643	25164
839.781	24970
839.918	24947
840.055	24947
840.193	24909
840.33	24802
840.467	24905
840.604	24996
840.742	25061
840.879	24639
841.016	24897
841.153	24631
841.29	24932
841.427	24745
841.564	24901
841.701	24844
841.838	24753
841.975	24665
842.112	24821
842.249	24692
842.385	24570
842.522	24730
842.659	24604
842.796	24502
842.933	24589
843.069	24563
843.206	24585
843.343	24654
843.479	24559
843.616	24673
843.752	24365
843.889	24502
844.025	24486
844.162	24315
844.298	24437
844.435	24399
844.571	24308
844.708	24403
844.844	24479
844.98	24601
845.117	24258
845.253	24258
845.389	24133
845.525	24258
845.661	24201
845.798	24136
845.934	24072
846.07	24163
846.206	24144
846.342	24273
846.478	24068
846.614	23836
846.75	23790
846.886	23851
847.022	23821
847.158	23889
847.294	23684
847.429	23809
847.565	23756
847.701	23980
847.837	23505
847.972	23516
848.108	23653
848.244	23649
848.379	23497
848.515	23425
848.65	23471
848.786	23368
848.921	23448
849.057	23452
849.192	23528
849.328	23448
849.463	23490
849.598	23455
849.734	23356
849.869	23277
850.004	23208
850.14	23159
850.275	23288
850.41	23090
850.545	23056
850.68	22961
850.815	23277
850.95	23197
851.085	23383
851.22	23307
851.355	23159
851.49	23041
851.625	23086
851.76	23166
851.895	23067
852.03	23060
852.165	23185
852.299	23208
852.434	23326
852.569	23200
852.703	23075
852.838	23174
852.973	23326
853.107	23334
853.242	23143
853.376	23018
853.511	22877
853.645	22816
853.78	23174
853.914	22877
854.048	22869
854.183	23094
854.317	23060
854.451	23189
854.585	23094
854.72	23025
854.854	23147
854.988	22839
855.122	23071
855.256	22885
855.39	22995
855.524	22938
855.658	23044
855.792	23086
855.926	23044
856.06	22995
856.194	22991
856.327	22862
856.461	23003
856.595	23033
856.729	22919
856.862	23041
856.996	22999
857.13	23102
857.263	22942
857.397	23086
857.53	22965
857.664	23037
857.797	22946
857.931	23067
858.064	22961
858.197	23147
858.331	22934
858.464	23071
858.597	22744
858.731	22885
858.864	23010
858.997	22824
859.13	23037
859.263	22976
859.396	23056
859.529	22900
859.662	22843
859.795	22869
859.928	23014
860.061	23140
860.194	23265
860.327	23140
860.46	23006
860.592	23071
860.725	23140
860.858	23216
860.99	22995
861.123	22915
861.256	22976
861.388	22862
861.521	23741
861.653	22881
861.786	22847
861.918	22687
862.05	22812
862.183	22877
862.315	22957
862.447	22957
862.58	22889
862.712	22660
862.844	22656
862.976	22778
863.108	22645
863.24	23018
863.372	22698
863.504	22748
863.636	22653
863.768	22755
863.9	22744
864.032	22573
864.164	22573
864.296	22664
864.428	22812
864.559	22668
864.691	22710
864.823	22626
864.954	22672
865.086	22630
865.217	22634
865.349	22436
865.48	22527
865.612	22497
865.743	22668
865.875	22474
866.006	22489
866.137	22565
866.269	22554
866.4	22573
866.531	22455
866.662	22466
866.793	22489
866.924	22481
867.055	22565
867.186	22523
867.317	22451
867.448	22356
867.579	22428
867.71	22405
867.841	22398
867.972	22485
868.103	22489
868.233	22413
868.364	22428
868.495	22672
868.625	22630
868.756	22839
868.886	22630
869.017	22729
869.147	22774
869.278	22835
869.408	22641
869.539	22706
869.669	22774
869.799	22725
869.929	22911
870.06	22816
870.19	22965
870.32	22835
870.45	23075
870.58	23105
870.71	23200
870.84	23216
870.97	23109
871.1	23067
871.23	23322
871.36	23341
871.489	23113
871.619	23277
871.749	23376
871.879	23356
872.008	23402
872.138	23292
872.267	23391
872.397	23128
872.526	23159
872.656	23159
872.785	23273
872.915	23307
873.044	23425
873.173	23296
873.303	23376
873.432	23349
873.561	23463
873.69	23322
873.819	23322
873.948	23398
874.077	23223
874.206	23231
874.335	23299
874.464	23387
874.593	23406
874.722	23402
874.851	23543
874.979	23630
875.108	23547
875.237	23425
875.365	23391
875.494	23459
875.623	23642
875.751	23497
875.88	23486
876.008	23604
876.136	23710
876.265	23901
876.393	24022
876.521	24030
876.65	23992
876.778	23961
876.906	23908
877.034	23828
877.162	23809
877.29	23821
877.418	23866
877.546	23973
877.674	23821
877.802	23847
877.93	23836
878.058	23901
878.185	23748
878.313	23737
878.441	23893
878.568	23767
878.696	23767
878.824	23961
878.951	23893
879.079	23939
879.206	24159
879.333	24022
879.461	23855
879.588	24018
879.715	23992
879.842	24117
879.97	23904
880.097	23726
880.224	23665
880.351	23855
880.478	23649
880.605	23672
880.732	23653
880.859	23863
880.986	23680
881.112	23638
881.239	23531
881.366	23452
881.493	23235
881.619	23258
881.746	23254
881.872	23318
881.999	23174
882.125	23246
882.252	23292
882.378	23212
882.505	23364
882.631	23121
882.757	22904
882.883	22911
883.01	23014
883.136	22946
883.262	22618
883.388	22710
883.514	22824
883.64	22923
883.766	22831
883.892	22683
884.018	22710
884.143	22778
884.269	22873
884.395	22721
884.52	22596
884.646	22550
884.772	22634
884.897	22440
885.023	22588
885.148	22523
885.274	22592
885.399	22569
885.524	22466
885.65	22649
885.775	22440
885.9	22436
886.025	22767
886.15	22557
886.275	22603
886.4	22489
886.525	22470
886.65	22409
886.775	22512
886.9	22725
887.025	22786
887.149	22561
887.274	22344
887.399	22299
887.523	22287
887.648	22192
887.773	22188
887.897	22352
888.021	22318
888.146	22215
888.27	22424
888.395	22409
888.519	22261
888.643	22386
888.767	22299
888.891	22070
889.015	22048
889.139	22143
889.263	21998
889.387	22162
889.511	22344
889.635	22067
889.759	22067
889.883	22025
890.006	22135
890.13	22265
890.254	22044
890.377	22048
890.501	21884
890.624	21751
890.748	21846
890.871	21686
890.995	21713
891.118	21572
891.241	21595
891.364	21606
891.488	21732
891.611	21656
891.734	21709
891.857	21743
891.98	21629
892.103	21656
892.226	21686
892.349	21500
892.471	21416
892.594	21492
892.717	21622
892.839	21500
892.962	21511
893.085	21671
893.207	21477
893.33	21382
893.452	21424
893.575	21348
893.697	21458
893.819	21576
893.941	21652
894.064	21610
894.186	21329
894.308	21340
894.43	21545
894.552	21606
894.674	21553
894.796	21435
894.918	21382
895.04	21416
895.161	21564
895.283	21492
895.405	21348
895.526	21458
895.648	21466
895.769	21610
895.891	21416
896.012	21690
896.134	21454
896.255	21504
896.376	21370
896.498	21393
896.619	21367
896.74	21523
896.861	21671
896.982	21694
897.103	21895
897.224	21895
897.345	21663
897.466	21599
897.587	21622
897.708	21759
897.828	21720
897.949	21599
898.07	21485
898.19	21587
898.311	21698
898.431	21492
898.552	21564
898.672	21709
898.792	21660
898.913	21686
899.033	21591
899.153	21454
899.273	21283
899.393	21325
899.513	21435
899.633	21405
899.753	21382
899.873	21329
899.993	21325
900.113	21355
900.232	21325
900.352	21287
900.472	21233
900.591	21222
900.711	21329
900.83	21199
900.95	21165
901.069	21203
901.189	21017
901.308	20777
901.427	20693
901.546	20689
901.665	20735
901.784	20705
901.904	20530
902.023	20522
902.141	20309
902.26	20278
902.379	20111
902.498	20199
902.617	20183
902.735	20221
902.854	20202
902.973	20058
903.091	19826
903.21	19906
903.328	19818
903.446	19860
903.565	19715
903.683	19582
903.801	19609
903.919	19609
904.038	19563
904.156	19407
904.274	19373
904.392	19324
904.51	19388
904.627	19396
904.745	19354
904.863	19419
904.981	19232
905.098	19118
905.216	19122
905.334	19129
905.451	19038
905.569	19107
905.686	19164
905.803	19031
905.921	18844
906.038	18924
906.155	18973
906.272	18722
906.389	18856
906.506	18753
906.623	18631
906.74	18585
906.857	18547
906.974	18494
907.091	18700
907.208	18711
907.324	18547
907.441	18372
907.557	18350
907.674	18296
907.79	18216
907.907	18239
908.023	18395
908.139	18266
908.256	18289
908.372	18266
908.488	18216
908.604	17992
908.72	17927
908.836	17965
908.952	17977
909.068	18060
909.184	18129
909.3	18003
909.415	18076
909.531	17977
909.647	17703
909.762	17760
909.878	17703
909.993	17687
910.108	17608
910.224	17646
910.339	17638
910.454	17634
910.57	17551
910.685	17429
910.8	17657
910.915	17634
911.03	17395
911.145	17353
911.259	17273
911.374	17330
911.489	17151
911.604	17200
911.718	17094
911.833	16942
911.947	16938
912.062	16972
912.176	17064
912.291	17041
912.405	17045
912.519	17181
912.633	17075
912.748	17006
912.862	16961
912.976	16862
913.09	16748
913.204	16774
913.318	16885
913.431	16858
913.545	16889
913.659	16904
913.772	16771
913.886	16687
914	16580
914.113	16725
914.226	16698
914.34	16759
914.453	16622
914.566	16668
914.68	16470
914.793	16455
914.906	16249
915.019	16177
915.132	16143
915.245	16128
915.358	16188
915.47	16135
915.583	16204
915.696	16044
915.809	16261
915.921	16257
916.034	16112
916.146	16181
916.259	16112
916.371	16139
916.483	16150
916.595	16036
916.708	15949
916.82	16021
916.932	15934
917.044	16048
917.156	15895
917.268	15800
917.38	15846
917.491	15789
917.603	15652
917.715	15895
917.826	15846
917.938	15713
918.049	15637
918.161	15720
918.272	15770
918.384	15835
918.495	15641
918.606	15660
918.717	15469
918.828	15504
918.939	15603
919.05	15507
919.161	15481
919.272	15351
919.383	15382
919.494	15488
919.604	15667
919.715	15542
919.826	15466
919.936	15557
920.047	15587
920.157	15477
920.267	15614
920.378	15500
920.488	15416
920.598	15698
920.708	15785
920.818	15519
920.928	15663
921.038	15724
921.148	15671
921.258	15447
921.368	15397
921.477	15161
921.587	15173
921.697	15085
921.806	15173
921.916	15024
922.025	14876
922.134	14754
922.244	14796
922.353	14887
922.462	14686
922.571	14556
922.68	14476
922.789	14495
922.898	14461
923.007	14324
923.116	14484
923.224	14408
923.333	14396
923.442	14324
923.55	14221
923.659	14229
923.767	14229
923.876	14138
923.984	14233
924.092	14164
924.201	14142
924.309	14149
924.417	14210
924.525	14039
924.633	14130
924.741	14933
924.849	13894
924.956	13989
925.064	13830
925.172	13765
925.279	13833
925.387	13791
925.494	13791
925.602	13890
925.709	13849
925.816	13700
925.924	13719
926.031	13814
926.138	13643
926.245	13727
926.352	13655
926.459	13742
926.566	13871
926.673	13674
926.779	13544
926.886	13521
926.993	13312
927.099	13426
927.206	13259
927.312	13259
927.419	13377
927.525	13350
927.631	13282
927.737	13259
927.843	13198
927.95	13076
928.056	13198
928.162	13171
928.267	13164
928.373	13803
928.479	13217
928.585	12913
928.69	13198
928.796	13190
928.901	13015
929.007	12890
929.112	13023
929.218	12924
929.323	12886
929.428	12852
929.533	12947
929.638	12806
929.743	12810
929.848	12916
929.953	12783
930.058	12658
930.163	12578
930.267	12547
930.372	12688
930.477	12437
930.581	12684
930.685	12525
930.79	12376
930.894	12464
930.998	12372
931.103	12528
931.207	12087
931.311	12041
931.415	11999
931.519	11764
931.623	11729
