Data from test_V78500241_2623.txt Node
Date: Fri Mar 25 15:59:58 CST 2022
User: usil
Spectrometer: V785-0024
Trigger mode: 0
Integration Time (sec): 4.000000E-1
Scans to average: 1
Nonlinearity correction enabled: false
Boxcar width: 0
Storing dark spectrum: false
XAxis mode: Wavelengths
Number of Pixels in Spectrum: 1024
>>>>>Begin Spectral Data<<<<<
801.071	29003
801.214	28904
801.356	28740
801.499	28702
801.641	28489
801.783	28489
801.926	28462
802.068	28519
802.211	28656
802.353	28424
802.496	28348
802.638	28291
802.78	28322
802.923	28287
803.065	28188
803.208	28322
803.35	28333
803.492	28409
803.635	28531
803.777	28409
803.919	28542
804.061	28831
804.204	28569
804.346	28538
804.488	28565
804.63	28470
804.773	28577
804.915	28683
805.057	28622
805.199	28531
805.341	28744
805.483	28778
805.626	28637
805.768	28561
805.91	28805
806.052	28793
806.194	28656
806.336	28938
806.478	28752
806.62	28733
806.762	28793
806.904	29109
807.046	29193
807.188	29159
807.33	29204
807.472	29140
807.614	29200
807.756	29162
807.898	28888
808.04	29018
808.182	28927
808.324	29269
808.465	29204
808.607	29383
808.749	29341
808.891	29463
809.033	29638
809.174	29398
809.316	29471
809.458	29474
809.6	29501
809.741	29436
809.883	29589
810.025	29710
810.166	29661
810.308	29729
810.45	29585
810.591	29703
810.733	29452
810.875	29528
811.016	29398
811.158	29364
811.299	29627
811.441	29512
811.582	29482
811.724	29558
811.865	29375
812.007	29455
812.148	29467
812.29	29493
812.431	29547
812.573	29809
812.714	29783
812.855	30011
812.997	29984
813.138	30213
813.279	30060
813.421	29885
813.562	29946
813.703	29703
813.845	29543
813.986	29246
814.127	29193
814.268	29159
814.41	29303
814.551	29178
814.692	29098
814.833	29098
814.974	29083
815.115	29128
815.256	29094
815.397	29064
815.539	28930
815.68	28942
815.821	28759
815.962	29025
816.103	29014
816.244	28957
816.385	28801
816.526	28679
816.666	28432
816.807	28500
816.948	28519
817.089	28664
817.23	28538
817.371	28500
817.512	28470
817.653	28443
817.793	28303
817.934	28459
818.075	28428
818.216	28493
818.356	28481
818.497	28371
818.638	28325
818.778	28162
818.919	28238
819.06	28310
819.2	28337
819.341	28443
819.481	28516
819.622	28577
819.762	28767
819.903	28736
820.043	28721
820.184	28569
820.324	28622
820.465	28649
820.605	28698
820.746	28603
820.886	28607
821.026	28557
821.167	28466
821.307	28599
821.447	28546
821.588	28432
821.728	28207
821.868	28021
822.008	27983
822.149	28078
822.289	28032
822.429	27857
822.569	27648
822.709	27804
822.849	27595
822.99	27378
823.13	27595
823.27	27458
823.41	27302
823.55	27081
823.69	27424
823.83	27431
823.97	27249
824.11	27116
824.25	27256
824.389	27116
824.529	27287
824.669	27226
824.809	27332
824.949	27173
825.089	27329
825.228	27207
825.368	27119
825.508	26986
825.648	27074
825.787	27104
825.927	27119
826.067	26921
826.206	26940
826.346	27195
826.485	27112
826.625	27062
826.765	27119
826.904	27104
827.044	26845
827.183	26727
827.323	26644
827.462	26815
827.601	26838
827.741	26701
827.88	26838
828.02	26640
828.159	26838
828.298	26823
828.437	26811
828.577	26708
828.716	26963
828.855	26575
828.994	26507
829.134	26564
829.273	26431
829.412	26412
829.551	26442
829.69	26457
829.829	26469
829.968	26492
830.107	26522
830.246	26469
830.385	26324
830.524	26339
830.663	26358
830.802	26183
830.941	26195
831.08	26062
831.219	26024
831.357	26103
831.496	26214
831.635	26088
831.774	26027
831.913	25982
832.051	25906
832.19	25734
832.329	25883
832.467	25719
832.606	25609
832.744	25685
832.883	25647
833.022	25864
833.16	25791
833.299	25651
833.437	25757
833.576	25784
833.714	25734
833.852	25788
833.991	25887
834.129	25849
834.267	25879
834.406	25791
834.544	25887
834.682	25750
834.821	25628
834.959	25917
835.097	25772
835.235	25814
835.373	25685
835.511	25761
835.65	25635
835.788	25677
835.926	25472
836.064	25415
836.202	25400
836.34	25586
836.478	25715
836.615	25685
836.753	25655
836.891	25609
837.029	25495
837.167	25578
837.305	25392
837.443	25537
837.58	25609
837.718	25510
837.856	25510
837.993	25266
838.131	25365
838.269	25232
838.406	25419
838.544	25225
838.681	25133
838.819	25126
838.956	24977
839.094	24924
839.231	24966
839.369	25050
839.506	25343
839.643	25103
839.781	24894
839.918	24757
840.055	24798
840.193	24833
840.33	24859
840.467	24757
840.604	24814
840.742	25122
840.879	24620
841.016	24760
841.153	24589
841.29	24943
841.427	24783
841.564	24650
841.701	24741
841.838	24764
841.975	24707
842.112	24593
842.249	24505
842.385	24601
842.522	24806
842.659	24711
842.796	24460
842.933	24566
843.069	24467
843.206	24582
843.343	24582
843.479	24627
843.616	24441
843.752	24323
843.889	24372
844.025	24483
844.162	24197
844.298	24490
844.435	24292
844.571	24281
844.708	24380
844.844	24395
844.98	24399
845.117	24410
845.253	24159
845.389	24133
845.525	24232
845.661	24106
845.798	24049
845.934	24076
846.07	23950
846.206	24098
846.342	24163
846.478	24041
846.614	23904
846.75	23771
846.886	23661
847.022	23855
847.158	23821
847.294	23771
847.429	23931
847.565	23714
847.701	23973
847.837	23539
847.972	23493
848.108	23722
848.244	23634
848.379	23318
848.515	23341
848.65	23220
848.786	23402
848.921	23376
849.057	23402
849.192	23512
849.328	23330
849.463	23296
849.598	23258
849.734	23235
849.869	23231
850.004	23121
850.14	23064
850.275	23117
850.41	23079
850.545	22946
850.68	23181
850.815	23151
850.95	23132
851.085	23330
851.22	23220
851.355	23170
851.49	23075
851.625	23124
851.76	23060
851.895	23010
852.03	23132
852.165	23170
852.299	23208
852.434	23132
852.569	23189
852.703	23113
852.838	23193
852.973	23307
853.107	23181
853.242	22995
853.376	23079
853.511	22790
853.645	22987
853.78	23075
853.914	22984
854.048	22782
854.183	22949
854.317	23033
854.451	23086
854.585	22923
854.72	22968
854.854	23090
854.988	22812
855.122	22930
855.256	22896
855.39	22908
855.524	22942
855.658	23067
855.792	22919
855.926	22752
856.06	22927
856.194	23166
856.327	22911
856.461	22919
856.595	22957
856.729	22866
856.862	23189
856.996	23052
857.13	23014
857.263	23193
857.397	22972
857.53	22877
857.664	22953
857.797	22942
857.931	23033
858.064	22965
858.197	22934
858.331	22946
858.464	22957
858.597	22858
858.731	22987
858.864	23018
858.997	22892
859.13	22771
859.263	22911
859.396	23064
859.529	22862
859.662	22938
859.795	22835
859.928	22991
860.061	22999
860.194	23151
860.327	22984
860.46	22987
860.592	22987
860.725	23014
860.858	22999
860.99	22904
861.123	22839
861.256	22809
861.388	22976
861.521	23512
861.653	22801
861.786	22706
861.918	22767
862.05	22820
862.183	22847
862.315	22831
862.447	22919
862.58	22892
862.712	22649
862.844	22603
862.976	22736
863.108	22679
863.24	23079
863.372	22653
863.504	22721
863.636	22554
863.768	22656
863.9	22527
864.032	22485
864.164	22687
864.296	22531
864.428	22733
864.559	22626
864.691	22767
864.823	22626
864.954	22611
865.086	22637
865.217	22523
865.349	22405
865.48	22421
865.612	22550
865.743	22637
865.875	22596
866.006	22409
866.137	22535
866.269	22531
866.4	22599
866.531	22405
866.662	22428
866.793	22447
866.924	22497
867.055	22474
867.186	22402
867.317	22440
867.448	22550
867.579	22360
867.71	22382
867.841	22322
867.972	22379
868.103	22409
868.233	22253
868.364	22523
868.495	22497
868.625	22550
868.756	22755
868.886	22626
869.017	22733
869.147	22710
869.278	22771
869.408	22630
869.539	22599
869.669	22793
869.799	22752
869.929	22854
870.06	22702
870.19	22858
870.32	22869
870.45	23060
870.58	23014
870.71	23117
870.84	23261
870.97	23071
871.1	23162
871.23	23216
871.36	23242
871.489	23261
871.619	23174
871.749	23147
871.879	23200
872.008	23429
872.138	23170
872.267	23273
872.397	23204
872.526	23086
872.656	23071
872.785	23117
872.915	23227
873.044	23444
873.173	23311
873.303	23425
873.432	23345
873.561	23284
873.69	23318
873.819	23204
873.948	23463
874.077	23254
874.206	23204
874.335	23288
874.464	23402
874.593	23497
874.722	23520
874.851	23474
874.979	23501
875.108	23463
875.237	23440
875.365	23402
875.494	23467
875.623	23516
875.751	23577
875.88	23554
876.008	23634
876.136	23558
876.265	23942
876.393	24057
876.521	23988
876.65	23912
876.778	23904
876.906	23748
877.034	23802
877.162	23901
877.29	23817
877.418	23832
877.546	23847
877.674	23840
877.802	23859
877.93	23672
878.058	23699
878.185	23756
878.313	23718
878.441	23745
878.568	23668
878.696	23726
878.824	23912
878.951	23866
879.079	24045
879.206	24098
879.333	24072
879.461	23897
879.588	23988
879.715	23999
879.842	24015
879.97	23901
880.097	23604
880.224	23634
880.351	23779
880.478	23627
880.605	23699
880.732	23695
880.859	23889
880.986	23630
881.112	23577
881.239	23448
881.366	23372
881.493	23315
881.619	23208
881.746	23277
881.872	23174
881.999	23086
882.125	23208
882.252	23391
882.378	23311
882.505	23376
882.631	23124
882.757	22850
882.883	22869
883.01	22869
883.136	22790
883.262	22740
883.388	22786
883.514	22858
883.64	22828
883.766	22831
883.892	22675
884.018	22641
884.143	22847
884.269	22847
884.395	22497
884.52	22386
884.646	22474
884.772	22519
884.897	22402
885.023	22565
885.148	22641
885.274	22607
885.399	22504
885.524	22523
885.65	22485
885.775	22424
885.9	22466
886.025	22561
886.15	22481
886.275	22405
886.4	22474
886.525	22459
886.65	22405
886.775	22436
886.9	22531
887.025	22694
887.149	22455
887.274	22284
887.399	22325
887.523	22272
887.648	22219
887.773	22207
887.897	22242
888.021	22344
888.146	22265
888.27	22375
888.395	22436
888.519	22196
888.643	22246
888.767	22265
888.891	22093
889.015	22059
889.139	22147
889.263	22017
889.387	22059
889.511	22314
889.635	22253
889.759	21960
889.883	22105
890.006	22036
890.13	22070
890.254	21857
890.377	21964
890.501	21774
890.624	21633
890.748	21876
890.871	21709
890.995	21633
891.118	21523
891.241	21583
891.364	21580
891.488	21701
891.611	21652
891.734	21481
891.857	21515
891.98	21671
892.103	21633
892.226	21610
892.349	21564
892.471	21329
892.594	21466
892.717	21447
892.839	21431
892.962	21545
893.085	21580
893.207	21431
893.33	21447
893.452	21408
893.575	21542
893.697	21431
893.819	21671
893.941	21595
894.064	21644
894.186	21370
894.308	21397
894.43	21450
894.552	21583
894.674	21538
894.796	21412
894.918	21443
895.04	21439
895.161	21511
895.283	21500
895.405	21485
895.526	21374
895.648	21477
895.769	21515
895.891	21458
896.012	21458
896.134	21488
896.255	21500
896.376	21378
896.498	21367
896.619	21454
896.74	21492
896.861	21378
896.982	21625
897.103	21869
897.224	21785
897.345	21682
897.466	21511
897.587	21679
897.708	21705
897.828	21591
897.949	21656
898.07	21462
898.19	21564
898.311	21660
898.431	21477
898.552	21553
898.672	21686
898.792	21800
898.913	21595
899.033	21526
899.153	21504
899.273	21252
899.393	21420
899.513	21340
899.633	21370
899.753	21332
899.873	21317
899.993	21291
900.113	21348
900.232	21310
900.352	21245
900.472	21157
900.591	21150
900.711	21116
900.83	20994
900.95	21207
901.069	21180
901.189	20952
901.308	20735
901.427	20667
901.546	20651
901.665	20682
901.784	20701
901.904	20476
902.023	20457
902.141	20282
902.26	20248
902.379	20237
902.498	20199
902.617	20126
902.735	20161
902.854	20081
902.973	20001
903.091	19818
903.21	19788
903.328	19818
903.446	19769
903.565	19628
903.683	19731
903.801	19483
903.919	19647
904.038	19518
904.156	19396
904.274	19327
904.392	19266
904.51	19346
904.627	19438
904.745	19320
904.863	19278
904.981	19187
905.098	19126
905.216	19088
905.334	19198
905.451	19137
905.569	19015
905.686	19031
905.803	19034
905.921	18844
906.038	18882
906.155	18783
906.272	18722
906.389	18829
906.506	18574
906.623	18574
906.74	18525
906.857	18471
906.974	18551
907.091	18574
907.208	18623
907.324	18555
907.441	18475
907.557	18338
907.674	18239
907.79	18273
907.907	18239
908.023	18361
908.139	18262
908.256	18277
908.372	18190
908.488	18178
908.604	18159
908.72	17958
908.836	17973
908.952	17950
909.068	17992
909.184	18053
909.3	18007
909.415	17984
909.531	17931
909.647	17775
909.762	17657
909.878	17710
909.993	17691
910.108	17649
910.224	17600
910.339	17630
910.454	17528
910.57	17558
910.685	17516
910.8	17668
910.915	17691
911.03	17452
911.145	17303
911.259	17280
911.374	17277
911.489	17159
911.604	17014
911.718	16976
911.833	17075
911.947	16820
912.062	16965
912.176	16987
912.291	16923
912.405	16980
912.519	17200
912.633	17242
912.748	16991
912.862	16991
912.976	16778
913.09	16634
913.204	16679
913.318	16744
913.431	16820
913.545	16858
913.659	16889
913.772	16755
913.886	16588
914	16622
914.113	16641
914.226	16558
914.34	16698
914.453	16443
914.566	16588
914.68	16390
914.793	16310
914.906	16280
915.019	16188
915.132	16226
915.245	16192
915.358	16139
915.47	16120
915.583	16150
915.696	16093
915.809	16147
915.921	16185
916.034	16078
916.146	16032
916.259	16059
916.371	16135
916.483	16116
916.595	15960
916.708	15979
916.82	15945
916.932	15911
917.044	15903
917.156	15850
917.268	15751
917.38	15789
917.491	15774
917.603	15816
917.715	15797
917.826	15888
917.938	15656
918.049	15701
918.161	15652
918.272	15831
918.384	15755
918.495	15732
918.606	15545
918.717	15378
918.828	15545
918.939	15469
919.05	15348
919.161	15428
919.272	15272
919.383	15370
919.494	15504
919.604	15637
919.715	15523
919.826	15310
919.936	15538
920.047	15473
920.157	15386
920.267	15663
920.378	15519
920.488	15424
920.598	15568
920.708	15736
920.818	15580
920.928	15500
921.038	15660
921.148	15625
921.258	15416
921.368	15386
921.477	15214
921.587	15169
921.697	14963
921.806	15146
921.916	14979
922.025	14876
922.134	14842
922.244	14743
922.353	14826
922.462	14613
922.571	14568
922.68	14454
922.789	14434
922.898	14473
923.007	14450
923.116	14454
923.224	14423
923.333	14366
923.442	14240
923.55	14240
923.659	14313
923.767	14320
923.876	14107
923.984	14267
924.092	14103
924.201	14096
924.309	14119
924.417	14111
924.525	13986
924.633	14088
924.741	15013
924.849	13871
924.956	14020
925.064	13860
925.172	13818
925.279	13803
925.387	13830
925.494	13776
925.602	13868
925.709	13818
925.816	13586
925.924	13719
926.031	13708
926.138	13651
926.245	13712
926.352	13548
926.459	13750
926.566	13772
926.673	13620
926.779	13483
926.886	13529
926.993	13430
927.099	13388
927.206	13316
927.312	13213
927.419	13304
927.525	13255
927.631	13377
927.737	13183
927.843	13175
927.95	13076
928.056	13072
928.162	13209
928.267	13209
928.373	13639
928.479	13198
928.585	13008
928.69	13084
928.796	13084
928.901	12993
929.007	12867
929.112	12897
929.218	12905
929.323	12840
929.428	12814
929.533	12913
929.638	12760
929.743	12779
929.848	12741
929.953	12715
930.058	12582
930.163	12494
930.267	12467
930.372	12608
930.477	12544
930.581	12665
930.685	12464
930.79	12429
930.894	12376
930.998	12433
931.103	12547
931.207	12041
931.311	12057
931.415	11916
931.519	11817
931.623	11718
