Data from test_V78500241_2292.txt Node
Date: Fri Mar 25 15:57:40 CST 2022
User: usil
Spectrometer: V785-0024
Trigger mode: 0
Integration Time (sec): 4.000000E-1
Scans to average: 1
Nonlinearity correction enabled: false
Boxcar width: 0
Storing dark spectrum: false
XAxis mode: Wavelengths
Number of Pixels in Spectrum: 1024
>>>>>Begin Spectral Data<<<<<
801.071	29155
801.214	28805
801.356	28592
801.499	28660
801.641	28645
801.783	28603
801.926	28573
802.068	28557
802.211	28641
802.353	28436
802.496	28367
802.638	28246
802.78	28219
802.923	28276
803.065	28135
803.208	28192
803.35	28272
803.492	28451
803.635	28531
803.777	28421
803.919	28508
804.061	28885
804.204	28577
804.346	28557
804.488	28413
804.63	28352
804.773	28516
804.915	28554
805.057	28542
805.199	28592
805.341	28778
805.483	28866
805.626	28740
805.768	28615
805.91	28812
806.052	28744
806.194	28637
806.336	28961
806.478	28713
806.62	28767
806.762	28828
806.904	29025
807.046	29174
807.188	29136
807.33	29086
807.472	29372
807.614	29083
807.756	29174
807.898	29071
808.04	28984
808.182	28957
808.324	29003
808.465	29029
808.607	29292
808.749	29353
808.891	29551
809.033	29452
809.174	29516
809.316	29349
809.458	29387
809.6	29231
809.741	29531
809.883	29558
810.025	29714
810.166	29684
810.308	29661
810.45	29649
810.591	29646
810.733	29436
810.875	29433
811.016	29410
811.158	29292
811.299	29524
811.441	29490
811.582	29493
811.724	29459
811.865	29467
812.007	29505
812.148	29501
812.29	29440
812.431	29687
812.573	29832
812.714	29775
812.855	29901
812.997	30018
813.138	30182
813.279	29958
813.421	29942
813.562	29862
813.703	29695
813.845	29665
813.986	29421
814.127	29223
814.268	29254
814.41	29098
814.551	29037
814.692	29029
814.833	29083
814.974	29094
815.115	29174
815.256	29090
815.397	29014
815.539	29037
815.68	28923
815.821	29010
815.962	28934
816.103	28961
816.244	28843
816.385	28919
816.526	28675
816.666	28592
816.807	28394
816.948	28436
817.089	28603
817.23	28516
817.371	28363
817.512	28466
817.653	28462
817.793	28207
817.934	28310
818.075	28500
818.216	28421
818.356	28481
818.497	28367
818.638	28188
818.778	28246
818.919	28268
819.06	28356
819.2	28421
819.341	28462
819.481	28516
819.622	28637
819.762	28774
819.903	28793
820.043	28672
820.184	28443
820.324	28683
820.465	28729
820.605	28645
820.746	28759
820.886	28580
821.026	28519
821.167	28519
821.307	28672
821.447	28611
821.588	28546
821.728	28219
821.868	28162
822.008	27926
822.149	28067
822.289	27804
822.429	27800
822.569	27481
822.709	27690
822.849	27542
822.99	27504
823.13	27420
823.27	27363
823.41	27203
823.55	27062
823.69	27116
823.83	27370
823.97	27241
824.11	27089
824.25	27043
824.389	27127
824.529	27184
824.669	27119
824.809	27245
824.949	27112
825.089	27116
825.228	27157
825.368	27032
825.508	27009
825.648	27089
825.787	27062
825.927	26990
826.067	26933
826.206	26864
826.346	27058
826.485	27104
826.625	27001
826.765	27154
826.904	27070
827.044	26705
827.183	26880
827.323	26678
827.462	26800
827.601	26712
827.741	26720
827.88	26758
828.02	26587
828.159	26697
828.298	26697
828.437	26720
828.577	26674
828.716	26845
828.855	26648
828.994	26389
829.134	26488
829.273	26324
829.412	26415
829.551	26355
829.69	26465
829.829	26473
829.968	26282
830.107	26503
830.246	26400
830.385	26324
830.524	26336
830.663	26153
830.802	26043
830.941	25955
831.08	25909
831.219	26031
831.357	26012
831.496	26248
831.635	26039
831.774	25974
831.913	25917
832.051	25765
832.19	25628
832.329	25833
832.467	25696
832.606	25567
832.744	25552
832.883	25708
833.022	25613
833.16	25708
833.299	25765
833.437	25830
833.576	25681
833.714	25811
833.852	25791
833.991	25864
834.129	25837
834.267	25655
834.406	25658
834.544	25769
834.682	25693
834.821	25685
834.959	25860
835.097	25731
835.235	25757
835.373	25601
835.511	25719
835.65	25613
835.788	25655
835.926	25335
836.064	25327
836.202	25312
836.34	25601
836.478	25765
836.615	25563
836.753	25487
836.891	25552
837.029	25525
837.167	25518
837.305	25373
837.443	25582
837.58	25392
837.718	25343
837.856	25384
837.993	25240
838.131	25327
838.269	25213
838.406	25263
838.544	25107
838.681	24992
838.819	24951
838.956	24837
839.094	24901
839.231	24798
839.369	25187
839.506	25285
839.643	25088
839.781	24768
839.918	24791
840.055	24848
840.193	24722
840.33	24696
840.467	24730
840.604	24700
840.742	24935
840.879	24582
841.016	24582
841.153	24551
841.29	24779
841.427	24722
841.564	24738
841.701	24757
841.838	24620
841.975	24627
842.112	24658
842.249	24597
842.385	24460
842.522	24692
842.659	24585
842.796	24422
842.933	24467
843.069	24338
843.206	24429
843.343	24536
843.479	24620
843.616	24483
843.752	24270
843.889	24300
844.025	24513
844.162	24270
844.298	24391
844.435	24239
844.571	24216
844.708	24178
844.844	24384
844.98	24445
845.117	24376
845.253	24190
845.389	24034
845.525	24114
845.661	24068
845.798	24022
845.934	23946
846.07	24049
846.206	24060
846.342	24030
846.478	23965
846.614	23707
846.75	23581
846.886	23786
847.022	23805
847.158	23680
847.294	23672
847.429	23729
847.565	23859
847.701	23832
847.837	23524
847.972	23482
848.108	23585
848.244	23562
848.379	23440
848.515	23360
848.65	23345
848.786	23398
848.921	23330
849.057	23600
849.192	23478
849.328	23356
849.463	23292
849.598	23299
849.734	23330
849.869	23105
850.004	23265
850.14	23121
850.275	23048
850.41	22904
850.545	23067
850.68	23067
850.815	23060
850.95	23010
851.085	23239
851.22	23356
851.355	23155
851.49	23086
851.625	23071
851.76	23166
851.895	23052
852.03	23025
852.165	23071
852.299	23136
852.434	23212
852.569	23102
852.703	23094
852.838	23102
852.973	23174
853.107	23197
853.242	22991
853.376	22923
853.511	22797
853.645	23052
853.78	23029
853.914	22896
854.048	22972
854.183	22911
854.317	22991
854.451	23147
854.585	22911
854.72	22797
854.854	22908
854.988	22980
855.122	22946
855.256	22881
855.39	22835
855.524	23010
855.658	23159
855.792	22771
855.926	23018
856.06	22847
856.194	23018
856.327	22816
856.461	22854
856.595	22831
856.729	22778
856.862	23056
856.996	22946
857.13	22999
857.263	22915
857.397	22908
857.53	22885
857.664	22904
857.797	23018
857.931	23003
858.064	22896
858.197	23025
858.331	22881
858.464	22816
858.597	22771
858.731	22949
858.864	22778
858.997	22873
859.13	22828
859.263	23003
859.396	23037
859.529	22889
859.662	22915
859.795	22801
859.928	22858
860.061	23071
860.194	23102
860.327	22949
860.46	22869
860.592	23018
860.725	23170
860.858	23086
860.99	22930
861.123	22774
861.256	22858
861.388	22839
861.521	23585
861.653	22797
861.786	22694
861.918	22675
862.05	22824
862.183	22915
862.315	22843
862.447	22831
862.58	22740
862.712	22664
862.844	22615
862.976	22698
863.108	22607
863.24	22984
863.372	22557
863.504	22538
863.636	22569
863.768	22656
863.9	22691
864.032	22527
864.164	22580
864.296	22565
864.428	22630
864.559	22618
864.691	22603
864.823	22641
864.954	22565
865.086	22584
865.217	22405
865.349	22402
865.48	22546
865.612	22504
865.743	22596
865.875	22573
866.006	22497
866.137	22421
866.269	22481
866.4	22443
866.531	22436
866.662	22325
866.793	22337
866.924	22417
867.055	22451
867.186	22409
867.317	22344
867.448	22284
867.579	22405
867.71	22322
867.841	22230
867.972	22409
868.103	22382
868.233	22466
868.364	22424
868.495	22603
868.625	22599
868.756	22698
868.886	22554
869.017	22653
869.147	22675
869.278	22687
869.408	22557
869.539	22668
869.669	22713
869.799	22721
869.929	22755
870.06	22713
870.19	23022
870.32	22869
870.45	23010
870.58	22900
870.71	23105
870.84	23113
870.97	22957
871.1	22885
871.23	23220
871.36	23258
871.489	23143
871.619	23258
871.749	23220
871.879	23223
872.008	23402
872.138	23227
872.267	23220
872.397	23185
872.526	23075
872.656	23060
872.785	23079
872.915	23174
873.044	23360
873.173	23185
873.303	23303
873.432	23246
873.561	23277
873.69	23242
873.819	23269
873.948	23322
874.077	23330
874.206	23113
874.335	23197
874.464	23307
874.593	23474
874.722	23277
874.851	23611
874.979	23463
875.108	23486
875.237	23360
875.365	23197
875.494	23318
875.623	23493
875.751	23474
875.88	23463
876.008	23581
876.136	23619
876.265	23965
876.393	23961
876.521	23866
876.65	23904
876.778	23927
876.906	23847
877.034	23752
877.162	23748
877.29	23707
877.418	23874
877.546	23904
877.674	23783
877.802	23707
877.93	23710
878.058	23779
878.185	23665
878.313	23680
878.441	23779
878.568	23589
878.696	23790
878.824	23821
878.951	23927
879.079	23954
879.206	23969
879.333	23950
879.461	23798
879.588	23859
879.715	23920
879.842	24152
879.97	23870
880.097	23661
880.224	23478
880.351	23634
880.478	23497
880.605	23577
880.732	23539
880.859	23767
880.986	23718
881.112	23608
881.239	23497
881.366	23433
881.493	23242
881.619	23277
881.746	23086
881.872	23189
881.999	23132
882.125	23166
882.252	23041
882.378	23044
882.505	23235
882.631	23018
882.757	22725
882.883	23006
883.01	22854
883.136	22801
883.262	22683
883.388	22698
883.514	22797
883.64	22927
883.766	22797
883.892	22603
884.018	22710
884.143	22786
884.269	22824
884.395	22538
884.52	22436
884.646	22516
884.772	22371
884.897	22424
885.023	22557
885.148	22535
885.274	22698
885.399	22584
885.524	22371
885.65	22489
885.775	22462
885.9	22379
886.025	22523
886.15	22527
886.275	22413
886.4	22325
886.525	22291
886.65	22405
886.775	22375
886.9	22596
887.025	22519
887.149	22478
887.274	22234
887.399	22207
887.523	22177
887.648	22044
887.773	22112
887.897	22314
888.021	22147
888.146	22150
888.27	22306
888.395	22249
888.519	22265
888.643	22272
888.767	22352
888.891	22257
889.015	21972
889.139	22006
889.263	21915
889.387	22169
889.511	22120
889.635	21953
889.759	22128
889.883	21941
890.006	22002
890.13	22017
890.254	21903
890.377	21884
890.501	21907
890.624	21572
890.748	21728
890.871	21583
890.995	21553
891.118	21568
891.241	21587
891.364	21458
891.488	21682
891.611	21500
891.734	21610
891.857	21553
891.98	21542
892.103	21545
892.226	21431
892.349	21363
892.471	21306
892.594	21492
892.717	21515
892.839	21488
892.962	21370
893.085	21561
893.207	21382
893.33	21287
893.452	21351
893.575	21515
893.697	21370
893.819	21587
893.941	21599
894.064	21477
894.186	21359
894.308	21355
894.43	21492
894.552	21561
894.674	21561
894.796	21268
894.918	21340
895.04	21435
895.161	21485
895.283	21416
895.405	21252
895.526	21245
895.648	21298
895.769	21519
895.891	21321
896.012	21454
896.134	21481
896.255	21416
896.376	21325
896.498	21412
896.619	21382
896.74	21325
896.861	21397
896.982	21641
897.103	21846
897.224	21587
897.345	21652
897.466	21568
897.587	21572
897.708	21572
897.828	21720
897.949	21519
898.07	21359
898.19	21511
898.311	21622
898.431	21557
898.552	21641
898.672	21622
898.792	21690
898.913	21629
899.033	21515
899.153	21370
899.273	21340
899.393	21325
899.513	21386
899.633	21260
899.753	21344
899.873	21237
899.993	21412
900.113	21218
900.232	21268
900.352	21161
900.472	21112
900.591	21180
900.711	21108
900.83	21116
900.95	21233
901.069	21176
901.189	21020
901.308	20651
901.427	20583
901.546	20644
901.665	20667
901.784	20720
901.904	20552
902.023	20461
902.141	20202
902.26	20362
902.379	20225
902.498	20130
902.617	20065
902.735	20142
902.854	20233
902.973	20005
903.091	19780
903.21	19742
903.328	19784
903.446	19776
903.565	19670
903.683	19594
903.801	19544
903.919	19426
904.038	19529
904.156	19434
904.274	19464
904.392	19285
904.51	19301
904.627	19266
904.745	19445
904.863	19434
904.981	19190
905.098	18954
905.216	19103
905.334	18947
905.451	18981
905.569	18958
905.686	19061
905.803	18856
905.921	18848
906.038	18844
906.155	18810
906.272	18688
906.389	18642
906.506	18506
906.623	18589
906.74	18601
906.857	18361
906.974	18414
907.091	18460
907.208	18639
907.324	18570
907.441	18418
907.557	18380
907.674	18388
907.79	18262
907.907	18205
908.023	18266
908.139	18285
908.256	18133
908.372	18174
908.488	18178
908.604	18007
908.72	17931
908.836	18007
908.952	17874
909.068	18015
909.184	18034
909.3	17821
909.415	17958
909.531	17927
909.647	17767
909.762	17653
909.878	17661
909.993	17691
910.108	17566
910.224	17516
910.339	17570
910.454	17547
910.57	17433
910.685	17387
910.8	17623
910.915	17524
911.03	17444
911.145	17162
911.259	17231
911.374	17254
911.489	17277
911.604	17041
911.718	16961
911.833	16984
911.947	16885
912.062	16774
912.176	16923
912.291	16930
912.405	16896
912.519	17189
912.633	17052
912.748	16965
912.862	16930
912.976	16797
913.09	16573
913.204	16702
913.318	16721
913.431	16839
913.545	16843
913.659	16946
913.772	16702
913.886	16588
914	16565
914.113	16611
914.226	16603
914.34	16478
914.453	16447
914.566	16470
914.68	16333
914.793	16314
914.906	16287
915.019	16128
915.132	15972
915.245	16059
915.358	16162
915.47	16181
915.583	16249
915.696	16131
915.809	16242
915.921	16348
916.034	16082
916.146	16067
916.259	15930
916.371	16097
916.483	16082
916.595	15941
916.708	15861
916.82	15918
916.932	15892
917.044	15903
917.156	15880
917.268	15736
917.38	15861
917.491	15724
917.603	15648
917.715	15747
917.826	15854
917.938	15644
918.049	15564
918.161	15774
918.272	15789
918.384	15728
918.495	15701
918.606	15610
918.717	15458
918.828	15519
918.939	15606
919.05	15405
919.161	15492
919.272	15272
919.383	15431
919.494	15534
919.604	15739
919.715	15389
919.826	15397
919.936	15435
920.047	15564
920.157	15397
920.267	15587
920.378	15443
920.488	15393
920.598	15667
920.708	15713
920.818	15523
920.928	15526
921.038	15637
921.148	15675
921.258	15424
921.368	15245
921.477	15180
921.587	15112
921.697	15001
921.806	15104
921.916	15062
922.025	14807
922.134	14796
922.244	14735
922.353	14773
922.462	14655
922.571	14556
922.68	14461
922.789	14408
922.898	14446
923.007	14324
923.116	14480
923.224	14419
923.333	14381
923.442	14229
923.55	14282
923.659	14240
923.767	14298
923.876	14218
923.984	14328
924.092	14084
924.201	14142
924.309	14126
924.417	14100
924.525	14050
924.633	14024
924.741	14902
924.849	13780
924.956	14050
925.064	13917
925.172	13704
925.279	13814
925.387	13784
925.494	13807
925.602	13860
925.709	13826
925.816	13609
925.924	13712
926.031	13700
926.138	13772
926.245	13655
926.352	13655
926.459	13780
926.566	13765
926.673	13567
926.779	13540
926.886	13476
926.993	13335
927.099	13339
927.206	13251
927.312	13289
927.419	13312
927.525	13312
927.631	13301
927.737	13126
927.843	13110
927.95	13088
928.056	13133
928.162	13156
928.267	13255
928.373	13845
928.479	13198
928.585	13023
928.69	13107
928.796	13156
928.901	13008
929.007	12848
929.112	12962
929.218	12932
929.323	12764
929.428	12810
929.533	12966
929.638	12779
929.743	12779
929.848	12875
929.953	12779
930.058	12646
930.163	12467
930.267	12540
930.372	12684
930.477	12422
930.581	12753
930.685	12597
930.79	12403
930.894	12426
930.998	12372
931.103	12502
931.207	12129
931.311	12034
931.415	11950
931.519	11707
931.623	11665
