Data from test_V78500241_1454.txt Node
Date: Fri Mar 25 15:51:52 CST 2022
User: usil
Spectrometer: V785-0024
Trigger mode: 0
Integration Time (sec): 4.000000E-1
Scans to average: 1
Nonlinearity correction enabled: false
Boxcar width: 0
Storing dark spectrum: false
XAxis mode: Wavelengths
Number of Pixels in Spectrum: 1024
>>>>>Begin Spectral Data<<<<<
801.071	28044
801.214	28082
801.356	27778
801.499	27781
801.641	27656
801.783	27625
801.926	27618
802.068	27736
802.211	27663
802.353	27591
802.496	27260
802.638	27351
802.78	27218
802.923	27222
803.065	27252
803.208	27249
803.35	27302
803.492	27504
803.635	27583
803.777	27469
803.919	27523
804.061	27823
804.204	27606
804.346	27374
804.488	27561
804.63	27614
804.773	27450
804.915	27667
805.057	27603
805.199	27568
805.341	27652
805.483	27751
805.626	27610
805.768	27595
805.91	27759
806.052	27751
806.194	27671
806.336	27857
806.478	27762
806.62	27675
806.762	27793
806.904	27945
807.046	28177
807.188	28112
807.33	28112
807.472	28093
807.614	27884
807.756	27979
807.898	27975
808.04	27975
808.182	27884
808.324	28124
808.465	27949
808.607	28299
808.749	28223
808.891	28565
809.033	28352
809.174	28462
809.316	28337
809.458	28265
809.6	28284
809.741	28417
809.883	28405
810.025	28550
810.166	28580
810.308	28630
810.45	28611
810.591	28508
810.733	28280
810.875	28306
811.016	28265
811.158	28204
811.299	28447
811.441	28497
811.582	28538
811.724	28318
811.865	28268
812.007	28306
812.148	28295
812.29	28386
812.431	28584
812.573	28679
812.714	28713
812.855	28873
812.997	28892
813.138	29037
813.279	28961
813.421	28820
813.562	28843
813.703	28767
813.845	28637
813.986	28352
814.127	28112
814.268	28032
814.41	28013
814.551	28029
814.692	27922
814.833	27911
814.974	27983
815.115	28032
815.256	27884
815.397	27827
815.539	27994
815.68	27717
815.821	27747
815.962	27850
816.103	27819
816.244	27755
816.385	27622
816.526	27641
816.666	27389
816.807	27188
816.948	27340
817.089	27492
817.23	27317
817.371	27245
817.512	27367
817.653	27180
817.793	27233
817.934	27264
818.075	27241
818.216	27405
818.356	27306
818.497	27317
818.638	27146
818.778	27135
818.919	27062
819.06	27264
819.2	27199
819.341	27154
819.481	27203
819.622	27492
819.762	27557
819.903	27671
820.043	27447
820.184	27397
820.324	27549
820.465	27427
820.605	27374
820.746	27454
820.886	27252
821.026	27370
821.167	27450
821.307	27549
821.447	27317
821.588	27226
821.728	27104
821.868	27013
822.008	26731
822.149	26727
822.289	26777
822.429	26518
822.569	26465
822.709	26549
822.849	26450
822.99	26286
823.13	26240
823.27	26221
823.41	26183
823.55	26100
823.69	26134
823.83	26157
823.97	26168
824.11	25947
824.25	26016
824.389	25947
824.529	25989
824.669	25898
824.809	26103
824.949	26183
825.089	26153
825.228	26088
825.368	25818
825.508	25734
825.648	25784
825.787	25849
825.927	25917
826.067	25765
826.206	25830
826.346	25852
826.485	25978
826.625	25822
826.765	26027
826.904	25936
827.044	25499
827.183	25628
827.323	25590
827.462	25575
827.601	25518
827.741	25438
827.88	25479
828.02	25411
828.159	25445
828.298	25518
828.437	25647
828.577	25506
828.716	25571
828.855	25464
828.994	25217
829.134	25324
829.273	25282
829.412	25179
829.551	25194
829.69	25285
829.829	25236
829.968	25232
830.107	25194
830.246	25160
830.385	25133
830.524	25019
830.663	25023
830.802	24989
830.941	24848
831.08	24776
831.219	24844
831.357	24875
831.496	25008
831.635	24905
831.774	24730
831.913	24715
832.051	24627
832.19	24547
832.329	24650
832.467	24559
832.606	24582
832.744	24544
832.883	24456
833.022	24589
833.16	24494
833.299	24525
833.437	24490
833.576	24681
833.714	24715
833.852	24566
833.991	24582
834.129	24707
834.267	24570
834.406	24566
834.544	24441
834.682	24566
834.821	24403
834.959	24688
835.097	24566
835.235	24703
835.373	24536
835.511	24589
835.65	24433
835.788	24353
835.926	24194
836.064	24174
836.202	24251
836.34	24464
836.478	24422
836.615	24448
836.753	24479
836.891	24403
837.029	24372
837.167	24399
837.305	24350
837.443	24251
837.58	24209
837.718	24327
837.856	24178
837.993	24186
838.131	24159
838.269	24060
838.406	24155
838.544	23893
838.681	23946
838.819	23790
838.956	23798
839.094	23684
839.231	23745
839.369	23847
839.506	24152
839.643	23950
839.781	23726
839.918	23501
840.055	23608
840.193	23623
840.33	23676
840.467	23786
840.604	23752
840.742	23916
840.879	23528
841.016	23611
841.153	23474
841.29	23718
841.427	23573
841.564	23589
841.701	23627
841.838	23589
841.975	23452
842.112	23448
842.249	23528
842.385	23372
842.522	23558
842.659	23402
842.796	23250
842.933	23284
843.069	23277
843.206	23303
843.343	23482
843.479	23349
843.616	23193
843.752	23212
843.889	23246
844.025	23337
844.162	23102
844.298	23235
844.435	23083
844.571	23018
844.708	23102
844.844	23318
844.98	23181
845.117	23261
845.253	23170
845.389	23014
845.525	23086
845.661	22949
845.798	22900
845.934	22934
846.07	22839
846.206	22946
846.342	22984
846.478	22812
846.614	22698
846.75	22607
846.886	22584
847.022	22660
847.158	22527
847.294	22569
847.429	22561
847.565	22493
847.701	22774
847.837	22341
847.972	22276
848.108	22375
848.244	22356
848.379	22299
848.515	22105
848.65	22211
848.786	22150
848.921	22166
849.057	22230
849.192	22390
849.328	22314
849.463	22223
849.598	22234
849.734	22143
849.869	22025
850.004	21899
850.14	21991
850.275	21911
850.41	21838
850.545	21903
850.68	21945
850.815	22036
850.95	21895
851.085	22093
851.22	21972
851.355	22120
851.49	21922
851.625	21895
851.76	21873
851.895	21770
852.03	21781
852.165	21991
852.299	21964
852.434	21987
852.569	21998
852.703	21983
852.838	21972
852.973	22147
853.107	22109
853.242	21968
853.376	21778
853.511	21709
853.645	21698
853.78	21823
853.914	21762
854.048	21736
854.183	21816
854.317	21732
854.451	21945
854.585	21713
854.72	21743
854.854	21907
854.988	21545
855.122	21812
855.256	21561
855.39	21663
855.524	21857
855.658	21842
855.792	21701
855.926	21918
856.06	21827
856.194	21827
856.327	21648
856.461	21713
856.595	21747
856.729	21766
856.862	21888
856.996	21751
857.13	21766
857.263	21911
857.397	21800
857.53	21739
857.664	21857
857.797	21842
857.931	21926
858.064	21816
858.197	21819
858.331	21637
858.464	21736
858.597	21717
858.731	21717
858.864	21736
858.997	21743
859.13	21793
859.263	21728
859.396	21854
859.529	21747
859.662	21827
859.795	21724
859.928	21675
860.061	21953
860.194	22002
860.327	21766
860.46	21785
860.592	21861
860.725	21949
860.858	21873
860.99	21705
861.123	21705
861.256	21663
861.388	21797
861.521	22478
861.653	21641
861.786	21610
861.918	21553
862.05	21690
862.183	21671
862.315	21717
862.447	21808
862.58	21720
862.712	21500
862.844	21504
862.976	21583
863.108	21473
863.24	21987
863.372	21458
863.504	21447
863.636	21477
863.768	21473
863.9	21481
864.032	21367
864.164	21523
864.296	21408
864.428	21572
864.559	21625
864.691	21648
864.823	21538
864.954	21428
865.086	21485
865.217	21416
865.349	21287
865.48	21405
865.612	21348
865.743	21469
865.875	21363
866.006	21363
866.137	21408
866.269	21435
866.4	21348
866.531	21306
866.662	21336
866.793	21176
866.924	21264
867.055	21237
867.186	21302
867.317	21100
867.448	21211
867.579	21233
867.71	21272
867.841	21211
867.972	21272
868.103	21317
868.233	21298
868.364	21336
868.495	21348
868.625	21591
868.756	21606
868.886	21397
869.017	21530
869.147	21549
869.278	21663
869.408	21591
869.539	21473
869.669	21610
869.799	21603
869.929	21682
870.06	21675
870.19	21816
870.32	21827
870.45	21861
870.58	21972
870.71	21930
870.84	22006
870.97	21861
871.1	22013
871.23	21956
871.36	22215
871.489	22090
871.619	22112
871.749	22074
871.879	22226
872.008	22109
872.138	22124
872.267	21979
872.397	22173
872.526	21846
872.656	21968
872.785	21911
872.915	22200
873.044	22200
873.173	22242
873.303	22325
873.432	22272
873.561	22306
873.69	22101
873.819	22154
873.948	22196
874.077	22181
874.206	22135
874.335	22059
874.464	22207
874.593	22398
874.722	22344
874.851	22379
874.979	22382
875.108	22421
875.237	22333
875.365	22181
875.494	22413
875.623	22440
875.751	22443
875.88	22478
876.008	22489
876.136	22717
876.265	22843
876.393	22976
876.521	22782
876.65	22843
876.778	22790
876.906	22752
877.034	22725
877.162	22618
877.29	22774
877.418	22748
877.546	22797
877.674	22672
877.802	22713
877.93	22721
878.058	22702
878.185	22626
878.313	22805
878.441	22759
878.568	22626
878.696	22622
878.824	22805
878.951	22812
879.079	22946
879.206	22965
879.333	22869
879.461	22778
879.588	22816
879.715	22946
879.842	22953
879.97	22797
880.097	22637
880.224	22523
880.351	22637
880.478	22577
880.605	22478
880.732	22538
880.859	22797
880.986	22645
881.112	22603
881.239	22386
881.366	22287
881.493	22147
881.619	22135
881.746	22101
881.872	22162
881.999	22070
882.125	22143
882.252	22109
882.378	22204
882.505	22158
882.631	21899
882.757	21861
882.883	21781
883.01	21804
883.136	21736
883.262	21705
883.388	21637
883.514	21778
883.64	21804
883.766	21793
883.892	21549
884.018	21557
884.143	21899
884.269	21766
884.395	21599
884.52	21405
884.646	21332
884.772	21302
884.897	21408
885.023	21549
885.148	21500
885.274	21606
885.399	21542
885.524	21488
885.65	21576
885.775	21447
885.9	21477
886.025	21511
886.15	21511
886.275	21382
886.4	21389
886.525	21401
886.65	21382
886.775	21359
886.9	21553
887.025	21622
887.149	21382
887.274	21138
887.399	21249
887.523	21169
887.648	21192
887.773	21081
887.897	21302
888.021	21214
888.146	21123
888.27	21298
888.395	21222
888.519	21332
888.643	21142
888.767	21249
888.891	21180
889.015	21077
889.139	21085
889.263	21119
889.387	21142
889.511	21256
889.635	21096
889.759	21024
889.883	20933
890.006	20990
890.13	21108
890.254	20971
890.377	20910
890.501	20735
890.624	20788
890.748	20663
890.871	20731
890.995	20575
891.118	20507
891.241	20568
891.364	20564
891.488	20663
891.611	20571
891.734	20629
891.857	20667
891.98	20450
892.103	20625
892.226	20461
892.349	20469
892.471	20404
892.594	20499
892.717	20564
892.839	20552
892.962	20526
893.085	20469
893.207	20564
893.33	20438
893.452	20362
893.575	20457
893.697	20465
893.819	20594
893.941	20613
894.064	20629
894.186	20355
894.308	20362
894.43	20374
894.552	20606
894.674	20587
894.796	20484
894.918	20499
895.04	20434
895.161	20533
895.283	20480
895.405	20427
895.526	20446
895.648	20514
895.769	20492
895.891	20469
896.012	20530
896.134	20526
896.255	20526
896.376	20438
896.498	20484
896.619	20499
896.74	20587
896.861	20511
896.982	20792
897.103	20804
897.224	20811
897.345	20739
897.466	20575
897.587	20727
897.708	20788
897.828	20716
897.949	20583
898.07	20636
898.19	20549
898.311	20739
898.431	20590
898.552	20617
898.672	20785
898.792	20739
898.913	20731
899.033	20522
899.153	20575
899.273	20442
899.393	20374
899.513	20465
899.633	20408
899.753	20511
899.873	20465
899.993	20332
900.113	20332
900.232	20396
900.352	20374
900.472	20206
900.591	20142
900.711	20240
900.83	20149
900.95	20221
901.069	20328
901.189	20039
901.308	19837
901.427	19860
901.546	19780
901.665	19761
901.784	19795
901.904	19681
902.023	19521
902.141	19327
902.26	19373
902.379	19365
902.498	19304
902.617	19190
902.735	19304
902.854	19198
902.973	19183
903.091	19031
903.21	18977
903.328	18973
903.446	18920
903.565	18787
903.683	18867
903.801	18627
903.919	18715
904.038	18787
904.156	18521
904.274	18551
904.392	18566
904.51	18525
904.627	18441
904.745	18528
904.863	18467
904.981	18346
905.098	18174
905.216	18174
905.334	18300
905.451	18133
905.569	18239
905.686	18136
905.803	18171
905.921	18068
906.038	18068
906.155	17969
906.272	17786
906.389	17847
906.506	17737
906.623	17764
906.74	17745
906.857	17585
906.974	17691
907.091	17771
907.208	17813
907.324	17741
907.441	17600
907.557	17486
907.674	17421
907.79	17360
907.907	17444
908.023	17444
908.139	17417
908.256	17334
908.372	17265
908.488	17200
908.604	17288
908.72	17124
908.836	17113
908.952	17098
909.068	17102
909.184	17181
909.3	17052
909.415	17048
909.531	17117
909.647	16892
909.762	16843
909.878	16809
909.993	16862
910.108	16698
910.224	16812
910.339	16877
910.454	16702
910.57	16740
910.685	16596
910.8	16858
910.915	16702
911.03	16649
911.145	16565
911.259	16512
911.374	16436
911.489	16356
911.604	16272
911.718	16238
911.833	16196
911.947	16143
912.062	16040
912.176	16135
912.291	16192
912.405	16276
912.519	16314
912.633	16402
912.748	16219
912.862	16253
912.976	16040
913.09	15850
913.204	16048
913.318	15991
913.431	16010
913.545	16093
913.659	16097
913.772	15979
913.886	15823
914	15724
914.113	15785
914.226	15865
914.34	15850
914.453	15751
914.566	15838
914.68	15614
914.793	15629
914.906	15466
915.019	15420
915.132	15378
915.245	15329
915.358	15313
915.47	15405
915.583	15268
915.696	15466
915.809	15450
915.921	15515
916.034	15317
916.146	15378
916.259	15275
916.371	15332
916.483	15389
916.595	15230
916.708	15169
916.82	15214
916.932	15195
917.044	15176
917.156	15116
917.268	15058
917.38	15036
917.491	15001
917.603	15070
917.715	15176
917.826	15104
917.938	14998
918.049	14845
918.161	15036
918.272	15058
918.384	15123
918.495	15009
918.606	14876
918.717	14750
918.828	14830
918.939	14853
919.05	14651
919.161	14796
919.272	14499
919.383	14617
919.494	14838
919.604	14929
919.715	14823
919.826	14678
919.936	14724
920.047	14883
920.157	14731
920.267	14963
920.378	14781
920.488	14739
920.598	14918
920.708	14975
920.818	14876
920.928	14895
921.038	14982
921.148	14956
921.258	14724
921.368	14632
921.477	14530
921.587	14480
921.697	14343
921.806	14511
921.916	14290
922.025	14107
922.134	14065
922.244	14088
922.353	14103
922.462	14005
922.571	13898
922.68	13742
922.789	13620
922.898	13776
923.007	13700
923.116	13776
923.224	13715
923.333	13719
923.442	13639
923.55	13499
923.659	13571
923.767	13609
923.876	13510
923.984	13700
924.092	13472
924.201	13476
924.309	13434
924.417	13468
924.525	13415
924.633	13419
924.741	14195
924.849	13225
924.956	13373
925.064	13225
925.172	13129
925.279	13133
925.387	13164
925.494	13080
925.602	13282
925.709	13221
925.816	13034
925.924	13110
926.031	13198
926.138	13053
926.245	13152
926.352	12962
926.459	13152
926.566	13103
926.673	13004
926.779	12886
926.886	13023
926.993	12757
927.099	12745
927.206	12711
927.312	12627
927.419	12791
927.525	12646
927.631	12741
927.737	12639
927.843	12604
927.95	12429
928.056	12578
928.162	12547
928.267	12578
928.373	13129
928.479	12620
928.585	12380
928.69	12433
928.796	12536
928.901	12342
929.007	12228
929.112	12418
929.218	12327
929.323	12308
929.428	12247
929.533	12308
929.638	12152
929.743	12167
929.848	12243
929.953	12087
930.058	12197
930.163	11927
930.267	11973
930.372	12110
930.477	11889
930.581	12083
930.685	11961
930.79	11821
930.894	11923
930.998	11764
931.103	11920
931.207	11577
931.311	11581
931.415	11376
931.519	11201
931.623	11193
