Data from test_V78500241_1394.txt Node
Date: Fri Mar 25 15:51:27 CST 2022
User: usil
Spectrometer: V785-0024
Trigger mode: 0
Integration Time (sec): 4.000000E-1
Scans to average: 1
Nonlinearity correction enabled: false
Boxcar width: 0
Storing dark spectrum: false
XAxis mode: Wavelengths
Number of Pixels in Spectrum: 1024
>>>>>Begin Spectral Data<<<<<
801.071	28109
801.214	27751
801.356	27599
801.499	27469
801.641	27348
801.783	27466
801.926	27496
802.068	27420
802.211	27420
802.353	27435
802.496	27272
802.638	27131
802.78	27085
802.923	27047
803.065	26887
803.208	27039
803.35	27176
803.492	27157
803.635	27340
803.777	27161
803.919	27192
804.061	27679
804.204	27249
804.346	27340
804.488	27157
804.63	27287
804.773	27272
804.915	27340
805.057	27538
805.199	27348
805.341	27405
805.483	27511
805.626	27363
805.768	27332
805.91	27469
806.052	27435
806.194	27363
806.336	27739
806.478	27412
806.62	27511
806.762	27614
806.904	27797
807.046	27941
807.188	27914
807.33	27880
807.472	27895
807.614	27800
807.756	27835
807.898	27770
808.04	27686
808.182	27766
808.324	27660
808.465	27736
808.607	27964
808.749	28097
808.891	28150
809.033	28299
809.174	28124
809.316	27953
809.458	28230
809.6	28029
809.741	28177
809.883	28333
810.025	28367
810.166	28375
810.308	28474
810.45	28284
810.591	28318
810.733	28230
810.875	28059
811.016	27972
811.158	27987
811.299	28162
811.441	28234
811.582	28215
811.724	28135
811.865	28143
812.007	28021
812.148	28249
812.29	28112
812.431	28299
812.573	28440
812.714	28512
812.855	28645
812.997	28615
813.138	28767
813.279	28801
813.421	28637
813.562	28512
813.703	28314
813.845	28272
813.986	27899
814.127	27960
814.268	27774
814.41	27873
814.551	27797
814.692	27819
814.833	27694
814.974	27656
815.115	27899
815.256	27538
815.397	27770
815.539	27618
815.68	27603
815.821	27545
815.962	27610
816.103	27724
816.244	27420
816.385	27431
816.526	27329
816.666	27218
816.807	27051
816.948	26986
817.089	27184
817.23	27142
817.371	27017
817.512	27135
817.653	27188
817.793	27058
817.934	27043
818.075	26956
818.216	27043
818.356	27024
818.497	26933
818.638	26861
818.778	26921
818.919	26735
819.06	26990
819.2	26918
819.341	27058
819.481	27104
819.622	27241
819.762	27393
819.903	27268
820.043	27260
820.184	27230
820.324	27135
820.465	27226
820.605	27199
820.746	27104
820.886	27055
821.026	27173
821.167	27051
821.307	27306
821.447	27093
821.588	26826
821.728	26796
821.868	26823
822.008	26651
822.149	26640
822.289	26545
822.429	26332
822.569	26286
822.709	26324
822.849	26142
822.99	26145
823.13	25978
823.27	25898
823.41	25921
823.55	25727
823.69	25826
823.83	25928
823.97	25894
824.11	25677
824.25	25677
824.389	25677
824.529	25845
824.669	25635
824.809	25814
824.949	25734
825.089	25913
825.228	25757
825.368	25548
825.508	25548
825.648	25639
825.787	25540
825.927	25666
826.067	25746
826.206	25502
826.346	25712
826.485	25556
826.625	25666
826.765	25632
826.904	25628
827.044	25297
827.183	25354
827.323	25217
827.462	25270
827.601	25289
827.741	25126
827.88	25388
828.02	25187
828.159	25304
828.298	25251
828.437	25251
828.577	25156
828.716	25384
828.855	25289
828.994	25050
829.134	24916
829.273	25053
829.412	24905
829.551	24890
829.69	25019
829.829	24958
829.968	25114
830.107	24973
830.246	24962
830.385	24856
830.524	24916
830.663	24768
830.802	24707
830.941	24646
831.08	24494
831.219	24616
831.357	24768
831.496	24741
831.635	24608
831.774	24437
831.913	24460
832.051	24388
832.19	24266
832.329	24426
832.467	24289
832.606	24220
832.744	24178
832.883	24232
833.022	24258
833.16	24190
833.299	24304
833.437	24220
833.576	24308
833.714	24285
833.852	24334
833.991	24281
834.129	24414
834.267	24422
834.406	24216
834.544	24403
834.682	24232
834.821	24182
834.959	24475
835.097	24197
835.235	24232
835.373	24304
835.511	24319
835.65	24106
835.788	24213
835.926	24007
836.064	23821
836.202	24034
836.34	24235
836.478	24224
836.615	23999
836.753	24228
836.891	24216
837.029	24220
837.167	24087
837.305	23942
837.443	24068
837.58	24003
837.718	23954
837.856	23916
837.993	23977
838.131	24060
838.269	23783
838.406	23893
838.544	23885
838.681	23531
838.819	23531
838.956	23368
839.094	23292
839.231	23391
839.369	23619
839.506	23813
839.643	23596
839.781	23452
839.918	23402
840.055	23478
840.193	23395
840.33	23330
840.467	23429
840.604	23459
840.742	23676
840.879	23200
841.016	23383
841.153	23231
841.29	23379
841.427	23379
841.564	23356
841.701	23299
841.838	23322
841.975	23250
842.112	23239
842.249	23220
842.385	23185
842.522	23220
842.659	23189
842.796	23083
842.933	23090
843.069	23075
843.206	23235
843.343	23151
843.479	23018
843.616	23037
843.752	22934
843.889	22915
844.025	22976
844.162	22991
844.298	23056
844.435	22881
844.571	22687
844.708	22904
844.844	22919
844.98	23067
845.117	23037
845.253	22843
845.389	22645
845.525	22733
845.661	22809
845.798	22618
845.934	22626
846.07	22618
846.206	22584
846.342	22729
846.478	22584
846.614	22386
846.75	22356
846.886	22314
847.022	22459
847.158	22329
847.294	22238
847.429	22459
847.565	22337
847.701	22656
847.837	22101
847.972	22055
848.108	22048
848.244	22158
848.379	22010
848.515	21850
848.65	21953
848.786	21812
848.921	21979
849.057	22082
849.192	21983
849.328	21945
849.463	21854
849.598	21888
849.734	21926
849.869	21644
850.004	21648
850.14	21709
850.275	21618
850.41	21694
850.545	21572
850.68	21663
850.815	21835
850.95	21770
851.085	21808
851.22	21816
851.355	21675
851.49	21724
851.625	21622
851.76	21682
851.895	21705
852.03	21648
852.165	21739
852.299	21622
852.434	21831
852.569	21850
852.703	21694
852.838	21770
852.973	21968
853.107	21747
853.242	21637
853.376	21545
853.511	21485
853.645	21447
853.78	21625
853.914	21511
854.048	21561
854.183	21542
854.317	21679
854.451	21778
854.585	21561
854.72	21500
854.854	21587
854.988	21443
855.122	21576
855.256	21340
855.39	21393
855.524	21587
855.658	21599
855.792	21591
855.926	21622
856.06	21576
856.194	21625
856.327	21603
856.461	21374
856.595	21549
856.729	21488
856.862	21580
856.996	21500
857.13	21671
857.263	21724
857.397	21591
857.53	21580
857.664	21587
857.797	21504
857.931	21614
858.064	21583
858.197	21504
858.331	21507
858.464	21367
858.597	21317
858.731	21515
858.864	21515
858.997	21469
859.13	21511
859.263	21519
859.396	21492
859.529	21530
859.662	21625
859.795	21523
859.928	21397
860.061	21762
860.194	21663
860.327	21542
860.46	21382
860.592	21633
860.725	21751
860.858	21728
860.99	21633
861.123	21469
861.256	21367
861.388	21507
861.521	22242
861.653	21370
861.786	21317
861.918	21447
862.05	21462
862.183	21538
862.315	21420
862.447	21454
862.58	21393
862.712	21180
862.844	21249
862.976	21344
863.108	21260
863.24	21656
863.372	21085
863.504	21249
863.636	21211
863.768	21275
863.9	21218
864.032	21127
864.164	21184
864.296	21195
864.428	21443
864.559	21340
864.691	21374
864.823	21161
864.954	21214
865.086	21207
865.217	21051
865.349	21062
865.48	21077
865.612	21154
865.743	21157
865.875	21081
866.006	21123
866.137	21112
866.269	21161
866.4	21127
866.531	21028
866.662	21032
866.793	21192
866.924	21081
867.055	21104
867.186	21036
867.317	21001
867.448	20982
867.579	21184
867.71	21036
867.841	20910
867.972	21127
868.103	21112
868.233	21062
868.364	21199
868.495	21161
868.625	21389
868.756	21363
868.886	21146
869.017	21336
869.147	21420
869.278	21519
869.408	21313
869.539	21340
869.669	21428
869.799	21329
869.929	21348
870.06	21431
870.19	21728
870.32	21705
870.45	21614
870.58	21770
870.71	21732
870.84	21755
870.97	21690
871.1	21622
871.23	21907
871.36	21918
871.489	21766
871.619	21857
871.749	21953
871.879	21903
872.008	22021
872.138	21907
872.267	21861
872.397	21682
872.526	21724
872.656	21652
872.785	21686
872.915	21873
873.044	22116
873.173	21899
873.303	22025
873.432	22059
873.561	21998
873.69	21960
873.819	22017
873.948	22070
874.077	21854
874.206	21778
874.335	21934
874.464	22082
874.593	22158
874.722	22166
874.851	22204
874.979	22166
875.108	22097
875.237	22234
875.365	22093
875.494	22143
875.623	22207
875.751	22070
875.88	22207
876.008	22310
876.136	22440
876.265	22569
876.393	22607
876.521	22637
876.65	22687
876.778	22550
876.906	22462
877.034	22630
877.162	22565
877.29	22375
877.418	22497
877.546	22500
877.674	22531
877.802	22443
877.93	22637
878.058	22421
878.185	22409
878.313	22398
878.441	22375
878.568	22249
878.696	22500
878.824	22634
878.951	22694
879.079	22672
879.206	22873
879.333	22698
879.461	22569
879.588	22516
879.715	22641
879.842	22774
879.97	22398
880.097	22363
880.224	22428
880.351	22398
880.478	22287
880.605	22276
880.732	22280
880.859	22527
880.986	22440
881.112	22310
881.239	22268
881.366	22048
881.493	21857
881.619	21888
881.746	22017
881.872	21926
881.999	21857
882.125	21892
882.252	21949
882.378	21804
882.505	21968
882.631	21751
882.757	21538
882.883	21671
883.01	21530
883.136	21496
883.262	21481
883.388	21370
883.514	21591
883.64	21473
883.766	21351
883.892	21397
884.018	21351
884.143	21610
884.269	21564
884.395	21317
884.52	21237
884.646	21241
884.772	21165
884.897	21116
885.023	21256
885.148	21287
885.274	21443
885.399	21169
885.524	21138
885.65	21226
885.775	21298
885.9	21207
886.025	21222
886.15	21245
886.275	21203
886.4	21192
886.525	21066
886.65	21081
886.775	21161
886.9	21249
887.025	21458
887.149	21176
887.274	20979
887.399	20925
887.523	20979
887.648	20952
887.773	20887
887.897	21089
888.021	21032
888.146	20914
888.27	21150
888.395	21043
888.519	21081
888.643	21085
888.767	21005
888.891	21020
889.015	20941
889.139	20739
889.263	20777
889.387	20956
889.511	21058
889.635	20902
889.759	20819
889.883	20701
890.006	20857
890.13	20823
890.254	20754
890.377	20727
890.501	20454
890.624	20469
890.748	20644
890.871	20613
890.995	20305
891.118	20286
891.241	20339
891.364	20454
891.488	20518
891.611	20298
891.734	20389
891.857	20400
891.98	20419
892.103	20400
892.226	20415
892.349	20282
892.471	20115
892.594	20412
892.717	20275
892.839	20259
892.962	20294
893.085	20240
893.207	20183
893.33	20180
893.452	20191
893.575	20336
893.697	20145
893.819	20355
893.941	20434
894.064	20374
894.186	20206
894.308	20202
894.43	20362
894.552	20347
894.674	20332
894.796	20122
894.918	20210
895.04	20195
895.161	20332
895.283	20290
895.405	20202
895.526	20252
895.648	20400
895.769	20438
895.891	20305
896.012	20343
896.134	20282
896.255	20233
896.376	20195
896.498	20286
896.619	20301
896.74	20343
896.861	20324
896.982	20571
897.103	20743
897.224	20594
897.345	20488
897.466	20374
897.587	20495
897.708	20602
897.828	20533
897.949	20450
898.07	20259
898.19	20377
898.311	20533
898.431	20476
898.552	20476
898.672	20556
898.792	20636
898.913	20621
899.033	20282
899.153	20294
899.273	20259
899.393	20145
899.513	20237
899.633	20358
899.753	20278
899.873	20164
899.993	20233
900.113	20248
900.232	20244
900.352	20199
900.472	20065
900.591	20058
900.711	20039
900.83	20115
900.95	20122
901.069	20218
901.189	19913
901.308	19833
901.427	19559
901.546	19639
901.665	19742
901.784	19696
901.904	19502
902.023	19388
902.141	19206
902.26	19107
902.379	19225
902.498	19160
902.617	19034
902.735	19217
902.854	19160
902.973	18989
903.091	18844
903.21	18772
903.328	18749
903.446	18795
903.565	18623
903.683	18574
903.801	18494
903.919	18513
904.038	18566
904.156	18410
904.274	18437
904.392	18285
904.51	18289
904.627	18323
904.745	18422
904.863	18376
904.981	18186
905.098	18053
905.216	18136
905.334	18068
905.451	17984
905.569	18034
905.686	18007
905.803	18140
905.921	17794
906.038	17912
906.155	17901
906.272	17634
906.389	17699
906.506	17566
906.623	17566
906.74	17520
906.857	17505
906.974	17493
907.091	17604
907.208	17779
907.324	17619
907.441	17474
907.557	17269
907.674	17284
907.79	17254
907.907	17178
908.023	17364
908.139	17284
908.256	17193
908.372	17227
908.488	17246
908.604	17045
908.72	16908
908.836	17045
908.952	17041
909.068	17045
909.184	17086
909.3	17037
909.415	17033
909.531	16976
909.647	16744
909.762	16672
909.878	16759
909.993	16660
910.108	16660
910.224	16645
910.339	16694
910.454	16546
910.57	16455
910.685	16508
910.8	16698
910.915	16634
911.03	16558
911.145	16394
911.259	16295
911.374	16185
911.489	16287
911.604	16226
911.718	16017
911.833	16051
911.947	15911
912.062	15835
912.176	16105
912.291	16097
912.405	16059
912.519	16272
912.633	16257
912.748	16071
912.862	16017
912.976	15793
913.09	15800
913.204	15774
913.318	15873
913.431	16002
913.545	15838
913.659	15918
913.772	15709
913.886	15694
914	15568
914.113	15793
914.226	15724
914.34	15660
914.453	15576
914.566	15667
914.68	15553
914.793	15599
914.906	15310
915.019	15329
915.132	15306
915.245	15260
915.358	15291
915.47	15233
915.583	15218
915.696	15283
915.809	15249
915.921	15408
916.034	15150
916.146	15203
916.259	15150
916.371	15165
916.483	15161
916.595	14979
916.708	15055
916.82	15077
916.932	15089
917.044	15070
917.156	14952
917.268	14990
917.38	14921
917.491	14967
917.603	14899
917.715	15028
917.826	14941
917.938	14807
918.049	14834
918.161	14746
918.272	14994
918.384	14948
918.495	14811
918.606	14689
918.717	14541
918.828	14739
918.939	14705
919.05	14564
919.161	14625
919.272	14598
919.383	14476
919.494	14644
919.604	14807
919.715	14659
919.826	14545
919.936	14712
920.047	14781
920.157	14594
920.267	14804
920.378	14678
920.488	14617
920.598	14857
920.708	14925
920.818	14697
920.928	14651
921.038	14899
921.148	14819
921.258	14564
921.368	14499
921.477	14396
921.587	14309
921.697	14317
921.806	14332
921.916	14221
922.025	14077
922.134	14001
922.244	13951
922.353	14058
922.462	13849
922.571	13833
922.68	13700
922.789	13651
922.898	13632
923.007	13639
923.116	13689
923.224	13693
923.333	13597
923.442	13487
923.55	13506
923.659	13514
923.767	13540
923.876	13327
923.984	13449
924.092	13335
924.201	13426
924.309	13282
924.417	13460
924.525	13381
924.633	13388
924.741	14096
924.849	13107
924.956	13236
925.064	13198
925.172	13053
925.279	13042
925.387	13015
925.494	13076
925.602	13183
925.709	13072
925.816	13015
925.924	13012
926.031	13080
926.138	13084
926.245	13004
926.352	12958
926.459	13069
926.566	13061
926.673	12928
926.779	12886
926.886	12798
926.993	12612
927.099	12616
927.206	12532
927.312	12597
927.419	12612
927.525	12582
927.631	12642
927.737	12464
927.843	12467
927.95	12270
928.056	12422
928.162	12452
928.267	12452
928.373	13107
928.479	12570
928.585	12338
928.69	12380
928.796	12456
928.901	12270
929.007	12194
929.112	12281
929.218	12197
929.323	12133
929.428	12144
929.533	12285
929.638	12095
929.743	12133
929.848	12144
929.953	12144
930.058	12003
930.163	11790
930.267	11836
930.372	11992
930.477	11794
930.581	12060
930.685	11961
930.79	11813
930.894	11748
930.998	11657
931.103	11855
931.207	11414
931.311	11387
931.415	11448
931.519	11124
931.623	11045
