Data from test_V78500241_3379.txt Node
Date: Fri Mar 25 16:05:12 CST 2022
User: usil
Spectrometer: V785-0024
Trigger mode: 0
Integration Time (sec): 4.000000E-1
Scans to average: 1
Nonlinearity correction enabled: false
Boxcar width: 0
Storing dark spectrum: false
XAxis mode: Wavelengths
Number of Pixels in Spectrum: 1024
>>>>>Begin Spectral Data<<<<<
801.071	28542
801.214	28535
801.356	28128
801.499	28036
801.641	28036
801.783	28013
801.926	28093
802.068	28097
802.211	27911
802.353	27892
802.496	27732
802.638	27690
802.78	27854
802.923	27583
803.065	27622
803.208	27629
803.35	27682
803.492	27812
803.635	27842
803.777	27884
803.919	27983
804.061	28276
804.204	28036
804.346	27846
804.488	27857
804.63	27846
804.773	27842
804.915	28029
805.057	28112
805.199	27983
805.341	28097
805.483	28078
805.626	28116
805.768	27949
805.91	28093
806.052	28200
806.194	27918
806.336	28230
806.478	28067
806.62	28097
806.762	28207
806.904	28325
807.046	28694
807.188	28299
807.33	28413
807.472	28668
807.614	28527
807.756	28500
807.898	28196
808.04	28356
808.182	28344
808.324	28341
808.465	28405
808.607	28694
808.749	28694
808.891	28892
809.033	28915
809.174	28763
809.316	28713
809.458	28752
809.6	28828
809.741	28790
809.883	28900
810.025	29052
810.166	29037
810.308	29086
810.45	28930
810.591	29033
810.733	28892
810.875	28824
811.016	28683
811.158	28615
811.299	28717
811.441	28949
811.582	28927
811.724	28816
811.865	28763
812.007	28725
812.148	28847
812.29	28987
812.431	29010
812.573	29208
812.714	29231
812.855	29318
812.997	29471
813.138	29417
813.279	29307
813.421	29216
813.562	29239
813.703	29056
813.845	29044
813.986	28634
814.127	28440
814.268	28470
814.41	28565
814.551	28519
814.692	28493
814.833	28360
814.974	28329
815.115	28489
815.256	28306
815.397	28428
815.539	28466
815.68	28207
815.821	28169
815.962	28341
816.103	28173
816.244	28192
816.385	28055
816.526	28048
816.666	27827
816.807	27842
816.948	27873
817.089	27869
817.23	27789
817.371	27739
817.512	27785
817.653	27831
817.793	27766
817.934	27854
818.075	27804
818.216	27854
818.356	27720
818.497	27633
818.638	27504
818.778	27496
818.919	27568
819.06	27686
819.2	27770
819.341	27861
819.481	27762
819.622	27873
819.762	28093
819.903	28192
820.043	27922
820.184	27914
820.324	27968
820.465	27888
820.605	27926
820.746	27838
820.886	27797
821.026	27899
821.167	27785
821.307	27873
821.447	27705
821.588	27660
821.728	27644
821.868	27302
822.008	27233
822.149	27169
822.289	27241
822.429	27013
822.569	26902
822.709	27173
822.849	26754
822.99	26899
823.13	26826
823.27	26735
823.41	26590
823.55	26613
823.69	26594
823.83	26507
823.97	26530
824.11	26427
824.25	26259
824.389	26343
824.529	26476
824.669	26408
824.809	26568
824.949	26511
825.089	26518
825.228	26514
825.368	26206
825.508	26187
825.648	26358
825.787	26286
825.927	26263
826.067	26210
826.206	26286
826.346	26412
826.485	26385
826.625	26366
826.765	26389
826.904	26298
827.044	26103
827.183	26024
827.323	25868
827.462	26092
827.601	26035
827.741	25970
827.88	26164
828.02	25871
828.159	25970
828.298	25845
828.437	25982
828.577	25917
828.716	26176
828.855	25826
828.994	25837
829.134	25791
829.273	25871
829.412	25632
829.551	25715
829.69	25639
829.829	25677
829.968	25753
830.107	25639
830.246	25616
830.385	25677
830.524	25635
830.663	25491
830.802	25324
830.941	25263
831.08	25350
831.219	25339
831.357	25324
831.496	25472
831.635	25289
831.774	25164
831.913	25152
832.051	25118
832.19	25004
832.329	25190
832.467	24996
832.606	24962
832.744	24935
832.883	24905
833.022	24935
833.16	24913
833.299	25023
833.437	24962
833.576	25114
833.714	25095
833.852	25038
833.991	25107
834.129	25053
834.267	25255
834.406	25065
834.544	25046
834.682	24985
834.821	25000
834.959	25225
835.097	25061
835.235	25129
835.373	25012
835.511	24935
835.65	25015
835.788	24989
835.926	24764
836.064	24734
836.202	24753
836.34	24772
836.478	24913
836.615	24719
836.753	24783
836.891	24935
837.029	24981
837.167	24783
837.305	24715
837.443	24722
837.58	24719
837.718	24806
837.856	24768
837.993	24574
838.131	24658
838.269	24486
838.406	24616
838.544	24509
838.681	24353
838.819	24300
838.956	24136
839.094	24174
839.231	24167
839.369	24334
839.506	24521
839.643	24475
839.781	24072
839.918	24087
840.055	24045
840.193	24121
840.33	24087
840.467	24095
840.604	24079
840.742	24369
840.879	23923
841.016	24015
841.153	24015
841.29	24235
841.427	23901
841.564	24098
841.701	24140
841.838	23984
841.975	23927
842.112	23904
842.249	23984
842.385	23916
842.522	23977
842.659	23840
842.796	23798
842.933	23828
843.069	23741
843.206	23824
843.343	23866
843.479	23794
843.616	23863
843.752	23695
843.889	23642
844.025	23710
844.162	23608
844.298	23703
844.435	23570
844.571	23551
844.708	23619
844.844	23695
844.98	23748
845.117	23722
845.253	23531
845.389	23463
845.525	23474
845.661	23444
845.798	23364
845.934	23509
846.07	23383
846.206	23490
846.342	23410
846.478	23341
846.614	23159
846.75	23060
846.886	23128
847.022	23231
847.158	23113
847.294	22991
847.429	23178
847.565	22957
847.701	23181
847.837	22717
847.972	22774
848.108	22752
848.244	22713
848.379	22611
848.515	22702
848.65	22596
848.786	22733
848.921	22573
849.057	22721
849.192	22805
849.328	22626
849.463	22637
849.598	22523
849.734	22565
849.869	22569
850.004	22512
850.14	22462
850.275	22386
850.41	22470
850.545	22432
850.68	22329
850.815	22554
850.95	22462
851.085	22489
851.22	22561
851.355	22436
851.49	22527
851.625	22394
851.76	22432
851.895	22352
852.03	22325
852.165	22417
852.299	22474
852.434	22489
852.569	22474
852.703	22409
852.838	22322
852.973	22382
853.107	22542
853.242	22200
853.376	22379
853.511	22166
853.645	22185
853.78	22268
853.914	22215
854.048	22253
854.183	22253
854.317	22211
854.451	22390
854.585	22215
854.72	22188
854.854	22337
854.988	22234
855.122	22268
855.256	22200
855.39	22261
855.524	22185
855.658	22173
855.792	22223
855.926	22226
856.06	22329
856.194	22314
856.327	22329
856.461	22188
856.595	22249
856.729	22196
856.862	22325
856.996	22318
857.13	22284
857.263	22352
857.397	22421
857.53	22131
857.664	22215
857.797	22337
857.931	22329
858.064	22253
858.197	22253
858.331	22017
858.464	22120
858.597	22128
858.731	22116
858.864	22162
858.997	22150
859.13	22230
859.263	22249
859.396	22318
859.529	22204
859.662	22207
859.795	22135
859.928	22253
860.061	22379
860.194	22265
860.327	22234
860.46	22299
860.592	22363
860.725	22341
860.858	22356
860.99	22169
861.123	22211
861.256	22147
861.388	22226
861.521	22885
861.653	22059
861.786	22013
861.918	22070
862.05	22051
862.183	22021
862.315	22173
862.447	22135
862.58	22055
862.712	21945
862.844	21994
862.976	22044
863.108	21873
863.24	22519
863.372	21876
863.504	21991
863.636	21975
863.768	22032
863.9	21949
864.032	21892
864.164	21994
864.296	21983
864.428	22032
864.559	22025
864.691	21918
864.823	21918
864.954	21895
865.086	21926
865.217	21987
865.349	21823
865.48	21846
865.612	21800
865.743	21949
865.875	21797
866.006	21739
866.137	21705
866.269	21838
866.4	21728
866.531	21785
866.662	21663
866.793	21762
866.924	21724
867.055	21880
867.186	21785
867.317	21671
867.448	21759
867.579	21705
867.71	21648
867.841	21816
867.972	21812
868.103	21701
868.233	21918
868.364	21705
868.495	21892
868.625	21975
868.756	22177
868.886	21960
869.017	21903
869.147	21937
869.278	22253
869.408	22036
869.539	21960
869.669	22211
869.799	22029
869.929	22185
870.06	22036
870.19	22333
870.32	22314
870.45	22325
870.58	22386
870.71	22504
870.84	22508
870.97	22341
871.1	22417
871.23	22538
871.36	22481
871.489	22466
871.619	22634
871.749	22557
871.879	22596
872.008	22687
872.138	22542
872.267	22824
872.397	22375
872.526	22497
872.656	22440
872.785	22417
872.915	22618
873.044	22877
873.173	22702
873.303	22702
873.432	22611
873.561	22805
873.69	22698
873.819	22736
873.948	22611
874.077	22683
874.206	22557
874.335	22588
874.464	22733
874.593	22885
874.722	22759
874.851	22968
874.979	22984
875.108	22946
875.237	22839
875.365	22687
875.494	22881
875.623	22885
875.751	22965
875.88	22976
876.008	23071
876.136	23056
876.265	23189
876.393	23334
876.521	23277
876.65	23132
876.778	23250
876.906	23094
877.034	23242
877.162	23159
877.29	23121
877.418	23174
877.546	23181
877.674	23124
877.802	23170
877.93	23113
878.058	23185
878.185	23098
878.313	23151
878.441	23204
878.568	23041
878.696	23227
878.824	23132
878.951	23307
879.079	23299
879.206	23512
879.333	23360
879.461	23227
879.588	23258
879.715	23235
879.842	23478
879.97	23227
880.097	23018
880.224	23067
880.351	22904
880.478	23037
880.605	22843
880.732	22968
880.859	23242
880.986	23166
881.112	23044
881.239	22938
881.366	22748
881.493	22675
881.619	22611
881.746	22683
881.872	22504
881.999	22588
882.125	22497
882.252	22618
882.378	22542
882.505	22607
882.631	22287
882.757	22234
882.883	22337
883.01	22181
883.136	22200
883.262	22135
883.388	22070
883.514	22207
883.64	22223
883.766	22051
883.892	22116
884.018	21987
884.143	22196
884.269	22280
884.395	21953
884.52	21850
884.646	21915
884.772	21739
884.897	21800
885.023	21937
885.148	22021
885.274	22021
885.399	21941
885.524	22006
885.65	21915
885.775	21884
885.9	21899
886.025	21991
886.15	21778
886.275	21854
886.4	21770
886.525	21865
886.65	21739
886.775	21800
886.9	21934
887.025	22059
887.149	21865
887.274	21705
887.399	21690
887.523	21667
887.648	21519
887.773	21538
887.897	21633
888.021	21671
888.146	21629
888.27	21747
888.395	21778
888.519	21709
888.643	21660
888.767	21717
888.891	21557
889.015	21389
889.139	21439
889.263	21344
889.387	21591
889.511	21663
889.635	21595
889.759	21477
889.883	21397
890.006	21374
890.13	21595
890.254	21279
890.377	21294
890.501	21165
890.624	21142
890.748	21310
890.871	21062
890.995	20994
891.118	20811
891.241	20986
891.364	21100
891.488	21039
891.611	20986
891.734	21013
891.857	21081
891.98	20895
892.103	20994
892.226	21077
892.349	20956
892.471	20819
892.594	20956
892.717	20868
892.839	20834
892.962	20895
893.085	20975
893.207	20960
893.33	20705
893.452	20804
893.575	20929
893.697	20967
893.819	21055
893.941	20994
894.064	20948
894.186	20914
894.308	20769
894.43	20979
894.552	21036
894.674	20960
894.796	20800
894.918	21020
895.04	20929
895.161	20883
895.283	20838
895.405	20838
895.526	20902
895.648	20838
895.769	20910
895.891	20887
896.012	20925
896.134	20891
896.255	20849
896.376	20880
896.498	20834
896.619	20864
896.74	20819
896.861	20853
896.982	21287
897.103	21363
897.224	21165
897.345	21047
897.466	21074
897.587	20982
897.708	21218
897.828	21138
897.949	20994
898.07	20895
898.19	21017
898.311	21070
898.431	21074
898.552	21131
898.672	21123
898.792	21154
898.913	21150
899.033	21028
899.153	20830
899.273	20754
899.393	20868
899.513	20834
899.633	20712
899.753	20807
899.873	20830
899.993	20876
900.113	20644
900.232	20792
900.352	20758
900.472	20552
900.591	20735
900.711	20556
900.83	20526
900.95	20659
901.069	20655
901.189	20495
901.308	20195
901.427	20187
901.546	20149
901.665	20183
901.784	20244
901.904	19974
902.023	19879
902.141	19761
902.26	19613
902.379	19685
902.498	19609
902.617	19696
902.735	19540
902.854	19556
902.973	19571
903.091	19460
903.21	19331
903.328	19228
903.446	19137
903.565	19202
903.683	19122
903.801	19053
903.919	19038
904.038	19080
904.156	18939
904.274	19034
904.392	18840
904.51	18779
904.627	18848
904.745	18848
904.863	18783
904.981	18677
905.098	18616
905.216	18620
905.334	18616
905.451	18593
905.569	18528
905.686	18578
905.803	18555
905.921	18361
906.038	18448
906.155	18334
906.272	18292
906.389	18239
906.506	18079
906.623	18167
906.74	18117
906.857	17935
906.974	17965
907.091	18106
907.208	18117
907.324	18133
907.441	17912
907.557	17783
907.674	17737
907.79	17649
907.907	17699
908.023	17832
908.139	17798
908.256	17687
908.372	17699
908.488	17627
908.604	17573
908.72	17452
908.836	17497
908.952	17497
909.068	17623
909.184	17532
909.3	17581
909.415	17433
909.531	17433
909.647	17223
909.762	17197
909.878	17193
909.993	17166
910.108	17155
910.224	17220
910.339	17117
910.454	16957
910.57	16987
910.685	16911
910.8	17235
910.915	17136
911.03	16972
911.145	16759
911.259	16793
911.374	16706
911.489	16675
911.604	16679
911.718	16432
911.833	16546
911.947	16531
912.062	16314
912.176	16596
912.291	16535
912.405	16466
912.519	16641
912.633	16611
912.748	16565
912.862	16405
912.976	16360
913.09	16200
913.204	16363
913.318	16333
913.431	16257
913.545	16405
913.659	16455
913.772	16219
913.886	16150
914	16143
914.113	16268
914.226	16249
914.34	16158
914.453	15956
914.566	16158
914.68	15972
914.793	15861
914.906	15819
915.019	15694
915.132	15686
915.245	15656
915.358	15644
915.47	15682
915.583	15679
915.696	15781
915.809	15800
915.921	15869
916.034	15675
916.146	15599
916.259	15545
916.371	15724
916.483	15709
916.595	15519
916.708	15622
916.82	15736
916.932	15462
917.044	15462
917.156	15450
917.268	15351
917.38	15462
917.491	15230
917.603	15325
917.715	15359
917.826	15447
917.938	15291
918.049	15116
918.161	15188
918.272	15294
918.384	15424
918.495	15332
918.606	15104
918.717	15062
918.828	15093
918.939	15108
919.05	15024
919.161	15028
919.272	14823
919.383	14941
919.494	15119
919.604	15222
919.715	15119
919.826	14883
919.936	14967
920.047	15123
920.157	15028
920.267	15249
920.378	14956
920.488	15017
920.598	15226
920.708	15287
920.818	15150
920.928	15146
921.038	15279
921.148	15245
921.258	14990
921.368	14963
921.477	14735
921.587	14773
921.697	14670
921.806	14693
921.916	14640
922.025	14465
922.134	14389
922.244	14396
922.353	14480
922.462	14294
922.571	14157
922.68	14016
922.789	14111
922.898	14024
923.007	13913
923.116	14020
923.224	13951
923.333	14077
923.442	13963
923.55	13784
923.659	13864
923.767	13909
923.876	13826
923.984	13894
924.092	13765
924.201	13769
924.309	13849
924.417	13677
924.525	13693
924.633	13643
924.741	14587
924.849	13533
924.956	13586
925.064	13472
925.172	13350
925.279	13365
925.387	13426
925.494	13381
925.602	13529
925.709	13358
925.816	13285
925.924	13327
926.031	13441
926.138	13373
926.245	13411
926.352	13183
926.459	13384
926.566	13430
926.673	13270
926.779	13179
926.886	13263
926.993	13019
927.099	13008
927.206	12916
927.312	12913
927.419	13072
927.525	13008
927.631	12924
927.737	12901
927.843	12886
927.95	12757
928.056	12700
928.162	12734
928.267	12863
928.373	13346
928.479	12863
928.585	12642
928.69	12738
928.796	12776
928.901	12700
929.007	12570
929.112	12662
929.218	12555
929.323	12585
929.428	12384
929.533	12540
929.638	12376
929.743	12422
929.848	12448
929.953	12388
930.058	12304
930.163	12235
930.267	12201
930.372	12300
930.477	12102
930.581	12399
930.685	12235
930.79	12095
930.894	12041
930.998	11961
931.103	12136
931.207	11783
931.311	11767
931.415	11623
931.519	11395
931.623	11330
