Data from test_V78500241_131.txt Node
Date: Fri Mar 25 15:42:42 CST 2022
User: usil
Spectrometer: V785-0024
Trigger mode: 0
Integration Time (sec): 4.000000E-1
Scans to average: 1
Nonlinearity correction enabled: false
Boxcar width: 0
Storing dark spectrum: false
XAxis mode: Wavelengths
Number of Pixels in Spectrum: 1024
>>>>>Begin Spectral Data<<<<<
801.071	30159
801.214	30194
801.356	29965
801.499	29893
801.641	29726
801.783	29805
801.926	29836
802.068	29767
802.211	29649
802.353	29733
802.496	29421
802.638	29345
802.78	29292
802.923	29467
803.065	29334
803.208	29242
803.35	29417
803.492	29459
803.635	29608
803.777	29509
803.919	29566
804.061	29832
804.204	29630
804.346	29326
804.488	29395
804.63	29440
804.773	29402
804.915	29585
805.057	29649
805.199	29471
805.341	29581
805.483	29756
805.626	29493
805.768	29455
805.91	29703
806.052	29874
806.194	29429
806.336	29893
806.478	29695
806.62	29653
806.762	29737
806.904	29889
807.046	30148
807.188	30007
807.33	30003
807.472	30117
807.614	29904
807.756	30026
807.898	29935
808.04	29752
808.182	29840
808.324	29878
808.465	29912
808.607	30022
808.749	30285
808.891	30296
809.033	30285
809.174	30349
809.316	30167
809.458	30311
809.6	30220
809.741	30190
809.883	30273
810.025	30517
810.166	30407
810.308	30467
810.45	30330
810.591	30391
810.733	30247
810.875	30163
811.016	30171
811.158	30121
811.299	30281
811.441	30140
811.582	30330
811.724	30186
811.865	30060
812.007	30194
812.148	30117
812.29	30270
812.431	30426
812.573	30441
812.714	30540
812.855	30700
812.997	30696
813.138	30890
813.279	30757
813.421	30559
813.562	30684
813.703	30540
813.845	30216
813.986	29999
814.127	29847
814.268	29760
814.41	29745
814.551	29817
814.692	29824
814.833	29668
814.974	29672
815.115	29775
815.256	29543
815.397	29558
815.539	29570
815.68	29627
815.821	29520
815.962	29463
816.103	29421
816.244	29326
816.385	29311
816.526	29212
816.666	29094
816.807	29048
816.948	28984
817.089	29105
817.23	29041
817.371	28991
817.512	28984
817.653	28736
817.793	29064
817.934	28896
818.075	28934
818.216	28908
818.356	28782
818.497	28763
818.638	28550
818.778	28721
818.919	28611
819.06	28565
819.2	28786
819.341	28759
819.481	28672
819.622	28957
819.762	29147
819.903	29098
820.043	29086
820.184	28911
820.324	28927
820.465	28911
820.605	28934
820.746	28915
820.886	28717
821.026	28957
821.167	28778
821.307	28957
821.447	28687
821.588	28771
821.728	28535
821.868	28318
822.008	28226
822.149	28348
822.289	28337
822.429	27892
822.569	27876
822.709	27854
822.849	27736
822.99	27747
823.13	27660
823.27	27766
823.41	27519
823.55	27310
823.69	27454
823.83	27481
823.97	27473
824.11	27214
824.25	27431
824.389	27241
824.529	27340
824.669	27252
824.809	27355
824.949	27416
825.089	27298
825.228	27374
825.368	27131
825.508	27070
825.648	27077
825.787	27169
825.927	27211
826.067	27188
826.206	27058
826.346	27104
826.485	27161
826.625	27173
826.765	27348
826.904	27142
827.044	26876
827.183	26674
827.323	26693
827.462	26914
827.601	26716
827.741	26670
827.88	26849
828.02	26648
828.159	26727
828.298	26720
828.437	26826
828.577	26636
828.716	26883
828.855	26629
828.994	26393
829.134	26442
829.273	26484
829.412	26423
829.551	26453
829.69	26480
829.829	26396
829.968	26476
830.107	26613
830.246	26385
830.385	26278
830.524	26290
830.663	26138
830.802	25993
830.941	26016
831.08	25875
831.219	26138
831.357	25970
831.496	26054
831.635	25966
831.774	25940
831.913	25791
832.051	25674
832.19	25731
832.329	25746
832.467	25616
832.606	25457
832.744	25559
832.883	25518
833.022	25556
833.16	25540
833.299	25548
833.437	25537
833.576	25525
833.714	25548
833.852	25537
833.991	25563
834.129	25563
834.267	25506
834.406	25590
834.544	25578
834.682	25613
834.821	25529
834.959	25609
835.097	25422
835.235	25487
835.373	25495
835.511	25491
835.65	25377
835.788	25335
835.926	25198
836.064	25266
836.202	25088
836.34	25430
836.478	25373
836.615	25392
836.753	25324
836.891	25339
837.029	25354
837.167	25335
837.305	25312
837.443	25209
837.58	25194
837.718	25301
837.856	25194
837.993	25171
838.131	25198
838.269	25137
838.406	24973
838.544	24928
838.681	24791
838.819	24696
838.956	24608
839.094	24536
839.231	24681
839.369	24684
839.506	24943
839.643	24779
839.781	24525
839.918	24608
840.055	24593
840.193	24559
840.33	24346
840.467	24582
840.604	24467
840.742	24772
840.879	24323
841.016	24323
841.153	24426
841.29	24426
841.427	24418
841.564	24559
841.701	24388
841.838	24426
841.975	24300
842.112	24190
842.249	24323
842.385	24216
842.522	24391
842.659	24121
842.796	24136
842.933	24194
843.069	24026
843.206	23999
843.343	24232
843.479	24159
843.616	24034
843.752	23832
843.889	23874
844.025	23855
844.162	23745
844.298	23923
844.435	23798
844.571	23798
844.708	23817
844.844	23870
844.98	23935
845.117	23935
845.253	23733
845.389	23638
845.525	23733
845.661	23676
845.798	23615
845.934	23554
846.07	23440
846.206	23547
846.342	23653
846.478	23528
846.614	23269
846.75	23181
846.886	23242
847.022	23330
847.158	23406
847.294	23235
847.429	23277
847.565	23140
847.701	23364
847.837	22980
847.972	22965
848.108	23022
848.244	22908
848.379	22812
848.515	22691
848.65	22771
848.786	22645
848.921	22752
849.057	22771
849.192	22805
849.328	22858
849.463	22752
849.598	22721
849.734	22653
849.869	22691
850.004	22443
850.14	22474
850.275	22394
850.41	22432
850.545	22478
850.68	22497
850.815	22519
850.95	22550
851.085	22626
851.22	22596
851.355	22542
851.49	22489
851.625	22455
851.76	22527
851.895	22443
852.03	22363
852.165	22459
852.299	22508
852.434	22455
852.569	22508
852.703	22413
852.838	22489
852.973	22557
853.107	22626
853.242	22394
853.376	22299
853.511	22261
853.645	22246
853.78	22306
853.914	22265
854.048	22280
854.183	22219
854.317	22356
854.451	22375
854.585	22329
854.72	22314
854.854	22356
854.988	22158
855.122	22223
855.256	22181
855.39	22226
855.524	22329
855.658	22306
855.792	22390
855.926	22162
856.06	22363
856.194	22405
856.327	22318
856.461	22246
856.595	22295
856.729	22226
856.862	22310
856.996	22352
857.13	22253
857.263	22268
857.397	22352
857.53	22299
857.664	22394
857.797	22306
857.931	22382
858.064	22192
858.197	22413
858.331	22215
858.464	22226
858.597	22185
858.731	22196
858.864	22070
858.997	22048
859.13	22299
859.263	22185
859.396	22291
859.529	22128
859.662	22215
859.795	22090
859.928	22177
860.061	22367
860.194	22424
860.327	22230
860.46	22265
860.592	22325
860.725	22325
860.858	22329
860.99	22154
861.123	22051
861.256	22131
861.388	22200
861.521	22850
861.653	22128
861.786	21991
861.918	22097
862.05	22128
862.183	22318
862.315	22128
862.447	22268
862.58	22181
862.712	21835
862.844	21991
862.976	21998
863.108	21861
863.24	22261
863.372	21842
863.504	21876
863.636	21812
863.768	21953
863.9	21911
864.032	21778
864.164	21846
864.296	21793
864.428	21888
864.559	21922
864.691	21968
864.823	21915
864.954	21975
865.086	21899
865.217	21804
865.349	21656
865.48	21831
865.612	21755
865.743	21911
865.875	21675
866.006	21652
866.137	21622
866.269	21675
866.4	21686
866.531	21686
866.662	21663
866.793	21789
866.924	21694
867.055	21698
867.186	21591
867.317	21595
867.448	21618
867.579	21614
867.71	21561
867.841	21542
867.972	21663
868.103	21656
868.233	21549
868.364	21625
868.495	21728
868.625	21846
868.756	22086
868.886	21842
869.017	21793
869.147	21915
869.278	21937
869.408	21880
869.539	21831
869.669	21994
869.799	21960
869.929	21956
870.06	21918
870.19	22124
870.32	22249
870.45	22234
870.58	22306
870.71	22432
870.84	22371
870.97	22394
871.1	22299
871.23	22485
871.36	22432
871.489	22405
871.619	22367
871.749	22546
871.879	22546
872.008	22740
872.138	22462
872.267	22557
872.397	22462
872.526	22230
872.656	22379
872.785	22382
872.915	22523
873.044	22683
873.173	22531
873.303	22645
873.432	22527
873.561	22577
873.69	22386
873.819	22421
873.948	22634
874.077	22565
874.206	22561
874.335	22504
874.464	22611
874.593	22698
874.722	22691
874.851	22828
874.979	22706
875.108	22835
875.237	22740
875.365	22763
875.494	22904
875.623	22858
875.751	22774
875.88	22831
876.008	22984
876.136	22987
876.265	23124
876.393	23220
876.521	23322
876.65	23231
876.778	23162
876.906	23056
877.034	23079
877.162	23178
877.29	22976
877.418	23121
877.546	23105
877.674	23018
877.802	23174
877.93	23170
878.058	23159
878.185	22946
878.313	23121
878.441	23048
878.568	23044
878.696	23151
878.824	23124
878.951	23025
879.079	23174
879.206	23265
879.333	23345
879.461	23216
879.588	23299
879.715	23132
879.842	23356
879.97	23181
880.097	22930
880.224	22831
880.351	23014
880.478	22740
880.605	22858
880.732	22965
880.859	23159
880.986	22961
881.112	22908
881.239	22816
881.366	22702
881.493	22565
881.619	22436
881.746	22611
881.872	22668
881.999	22519
882.125	22440
882.252	22512
882.378	22474
882.505	22523
882.631	22249
882.757	22211
882.883	22428
883.01	22295
883.136	22276
883.262	22074
883.388	22006
883.514	22200
883.64	22223
883.766	22150
883.892	21907
884.018	22086
884.143	22124
884.269	22287
884.395	21850
884.52	21842
884.646	21865
884.772	21797
884.897	21724
885.023	21823
885.148	22002
885.274	21945
885.399	21854
885.524	21804
885.65	21899
885.775	21861
885.9	21930
886.025	21918
886.15	21972
886.275	21644
886.4	21736
886.525	21861
886.65	21690
886.775	21682
886.9	21861
887.025	21987
887.149	21797
887.274	21572
887.399	21587
887.523	21572
887.648	21496
887.773	21466
887.897	21614
888.021	21641
888.146	21519
888.27	21701
888.395	21724
888.519	21462
888.643	21507
888.767	21545
888.891	21488
889.015	21325
889.139	21439
889.263	21363
889.387	21466
889.511	21603
889.635	21542
889.759	21348
889.883	21336
890.006	21256
890.13	21359
890.254	21173
890.377	21256
890.501	21062
890.624	21017
890.748	21142
890.871	20994
890.995	20861
891.118	20823
891.241	20845
891.364	20811
891.488	20910
891.611	20933
891.734	20845
891.857	20864
891.98	20918
892.103	21039
892.226	20811
892.349	20777
892.471	20587
892.594	20765
892.717	20712
892.839	20705
892.962	20746
893.085	20921
893.207	20746
893.33	20678
893.452	20826
893.575	20750
893.697	20777
893.819	20948
893.941	20868
894.064	20811
894.186	20689
894.308	20701
894.43	20921
894.552	21020
894.674	20861
894.796	20724
894.918	20697
895.04	20754
895.161	20864
895.283	20720
895.405	20746
895.526	20724
895.648	20769
895.769	20838
895.891	20800
896.012	20796
896.134	20948
896.255	20750
896.376	20655
896.498	20731
896.619	20773
896.74	20716
896.861	20906
896.982	21249
897.103	21241
897.224	21085
897.345	20994
897.466	20921
897.587	20941
897.708	21150
897.828	21074
897.949	20952
898.07	20788
898.19	20868
898.311	21100
898.431	20941
898.552	20933
898.672	21009
898.792	21032
898.913	20986
899.033	20861
899.153	20800
899.273	20625
899.393	20617
899.513	20716
899.633	20655
899.753	20644
899.873	20568
899.993	20762
900.113	20609
900.232	20674
900.352	20511
900.472	20476
900.591	20282
900.711	20473
900.83	20385
900.95	20632
901.069	20644
901.189	20370
901.308	20180
901.427	19997
901.546	20012
901.665	20039
901.784	20065
901.904	19959
902.023	19791
902.141	19643
902.26	19609
902.379	19586
902.498	19468
902.617	19369
902.735	19441
902.854	19407
902.973	19400
903.091	19270
903.21	19187
903.328	19133
903.446	19027
903.565	18993
903.683	19019
903.801	18916
903.919	18894
904.038	18863
904.156	18688
904.274	18837
904.392	18779
904.51	18604
904.627	18589
904.745	18757
904.863	18798
904.981	18502
905.098	18407
905.216	18456
905.334	18388
905.451	18380
905.569	18300
905.686	18319
905.803	18327
905.921	18110
906.038	18129
906.155	18133
906.272	18091
906.389	18110
906.506	17939
906.623	17973
906.74	17798
906.857	17687
906.974	17813
907.091	17931
907.208	18076
907.324	17908
907.441	17745
907.557	17630
907.674	17490
907.79	17478
907.907	17410
908.023	17459
908.139	17634
908.256	17505
908.372	17406
908.488	17596
908.604	17239
908.72	17178
908.836	17250
908.952	17280
909.068	17200
909.184	17303
909.3	17189
909.415	17261
909.531	17200
909.647	16892
909.762	16881
909.878	16835
909.993	16904
910.108	16995
910.224	16866
910.339	16927
910.454	16763
910.57	16630
910.685	16694
910.8	16900
910.915	16854
911.03	16668
911.145	16569
911.259	16500
911.374	16451
911.489	16455
911.604	16299
911.718	16223
911.833	16219
911.947	16166
912.062	16025
912.176	16219
912.291	16261
912.405	16318
912.519	16379
912.633	16413
912.748	16246
912.862	16109
912.976	16025
913.09	15956
913.204	15975
913.318	15934
913.431	16071
913.545	16013
913.659	16166
913.772	15964
913.886	15842
914	15713
914.113	15880
914.226	15915
914.34	15915
914.453	15698
914.566	15804
914.68	15751
914.793	15622
914.906	15481
915.019	15466
915.132	15431
915.245	15351
915.358	15466
915.47	15256
915.583	15408
915.696	15496
915.809	15530
915.921	15504
916.034	15378
916.146	15363
916.259	15359
916.371	15340
916.483	15306
916.595	15275
916.708	15241
916.82	15283
916.932	15226
917.044	15241
917.156	15104
917.268	15036
917.38	15039
917.491	15127
917.603	15055
917.715	15108
917.826	15131
917.938	14960
918.049	14902
918.161	15047
918.272	15112
918.384	15108
918.495	14921
918.606	14762
918.717	14689
918.828	14899
918.939	14849
919.05	14739
919.161	14693
919.272	14549
919.383	14670
919.494	14769
919.604	14986
919.715	14739
919.826	14670
919.936	14686
920.047	14819
920.157	14731
920.267	14861
920.378	14613
920.488	14670
920.598	14902
920.708	14944
920.818	14868
920.928	14796
921.038	14929
921.148	14914
921.258	14632
921.368	14545
921.477	14370
921.587	14381
921.697	14305
921.806	14419
921.916	14263
922.025	14100
922.134	14161
922.244	14012
922.353	14153
922.462	13932
922.571	13902
922.68	13715
922.789	13658
922.898	13776
923.007	13655
923.116	13670
923.224	13666
923.333	13597
923.442	13518
923.55	13441
923.659	13571
923.767	13571
923.876	13396
923.984	13575
924.092	13411
924.201	13468
924.309	13400
924.417	13449
924.525	13301
924.633	13346
924.741	14092
924.849	13141
924.956	13282
925.064	13190
925.172	13034
925.279	13031
925.387	13179
925.494	13114
925.602	13278
925.709	13088
925.816	12939
925.924	13019
926.031	13080
926.138	12977
926.245	13118
926.352	12897
926.459	13042
926.566	13122
926.673	12909
926.779	12844
926.886	12897
926.993	12665
927.099	12669
927.206	12525
927.312	12585
927.419	12669
927.525	12601
927.631	12620
927.737	12570
927.843	12498
927.95	12380
928.056	12471
928.162	12464
928.267	12475
928.373	13164
928.479	12479
928.585	12330
928.69	12418
928.796	12494
928.901	12232
929.007	12117
929.112	12315
929.218	12273
929.323	12148
929.428	12205
929.533	12361
929.638	12076
929.743	12045
929.848	12178
929.953	12129
930.058	11927
930.163	11843
930.267	11882
930.372	11935
930.477	11805
930.581	12015
930.685	11889
930.79	11733
930.894	11703
930.998	11714
931.103	11798
931.207	11425
931.311	11330
931.415	11322
931.519	11022
931.623	11121
