Data from test_V78500241_2586.txt Node
Date: Fri Mar 25 15:59:42 CST 2022
User: usil
Spectrometer: V785-0024
Trigger mode: 0
Integration Time (sec): 4.000000E-1
Scans to average: 1
Nonlinearity correction enabled: false
Boxcar width: 0
Storing dark spectrum: false
XAxis mode: Wavelengths
Number of Pixels in Spectrum: 1024
>>>>>Begin Spectral Data<<<<<
801.071	28580
801.214	28599
801.356	28390
801.499	28207
801.641	28299
801.783	28051
801.926	28284
802.068	28059
802.211	28131
802.353	28025
802.496	27888
802.638	27907
802.78	27667
802.923	27766
803.065	27622
803.208	27679
803.35	27873
803.492	27975
803.635	28070
803.777	27979
803.919	28109
804.061	28485
804.204	28135
804.346	28090
804.488	27994
804.63	28082
804.773	28013
804.915	28181
805.057	28291
805.199	28101
805.341	28265
805.483	28226
805.626	28169
805.768	28200
805.91	28162
806.052	28295
806.194	28143
806.336	28478
806.478	28497
806.62	28200
806.762	28363
806.904	28550
807.046	28778
807.188	28637
807.33	28622
807.472	28869
807.614	28710
807.756	28546
807.898	28630
808.04	28489
808.182	28470
808.324	28535
808.465	28527
808.607	28816
808.749	28934
808.891	29105
809.033	29098
809.174	28919
809.316	28797
809.458	28862
809.6	28900
809.741	28980
809.883	29037
810.025	29208
810.166	29204
810.308	29067
810.45	29322
810.591	29067
810.733	28915
810.875	28702
811.016	28816
811.158	28847
811.299	28953
811.441	28980
811.582	29083
811.724	28942
811.865	28896
812.007	28923
812.148	29044
812.29	28908
812.431	29136
812.573	29200
812.714	29311
812.855	29452
812.997	29463
813.138	29680
813.279	29577
813.421	29490
813.562	29353
813.703	29421
813.845	29216
813.986	28946
814.127	28691
814.268	28649
814.41	28675
814.551	28672
814.692	28679
814.833	28493
814.974	28683
815.115	28649
815.256	28478
815.397	28599
815.539	28554
815.68	28455
815.821	28344
815.962	28538
816.103	28580
816.244	28417
816.385	28265
816.526	28143
816.666	28147
816.807	27892
816.948	27907
817.089	27968
817.23	28010
817.371	27922
817.512	27903
817.653	27949
817.793	27747
817.934	27739
818.075	27846
818.216	27953
818.356	27895
818.497	27739
818.638	27652
818.778	27576
818.919	27713
819.06	27846
819.2	27899
819.341	27934
819.481	27983
819.622	28124
819.762	28246
819.903	28246
820.043	28230
820.184	28116
820.324	28017
820.465	28261
820.605	28048
820.746	27972
820.886	28055
821.026	28048
821.167	28086
821.307	28150
821.447	28059
821.588	27873
821.728	27660
821.868	27599
822.008	27492
822.149	27401
822.289	27504
822.429	27077
822.569	27077
822.709	27017
822.849	26815
822.99	26891
823.13	26994
823.27	26804
823.41	26830
823.55	26594
823.69	26674
823.83	26777
823.97	26648
824.11	26613
824.25	26587
824.389	26575
824.529	26549
824.669	26511
824.809	26663
824.949	26746
825.089	26632
825.228	26465
825.368	26339
825.508	26408
825.648	26453
825.787	26518
825.927	26473
826.067	26450
826.206	26526
826.346	26537
826.485	26415
826.625	26469
826.765	26507
826.904	26503
827.044	26153
827.183	26221
827.323	26130
827.462	26119
827.601	26145
827.741	26180
827.88	26275
828.02	26103
828.159	26103
828.298	26100
828.437	26332
828.577	26027
828.716	26256
828.855	26103
828.994	25944
829.134	25769
829.273	25955
829.412	25902
829.551	25868
829.69	25883
829.829	25932
829.968	25982
830.107	25795
830.246	25932
830.385	25822
830.524	25837
830.663	25784
830.802	25449
830.941	25358
831.08	25354
831.219	25590
831.357	25559
831.496	25643
831.635	25388
831.774	25346
831.913	25346
832.051	25301
832.19	25263
832.329	25179
832.467	25225
832.606	25164
832.744	25114
832.883	25198
833.022	25168
833.16	25110
833.299	25263
833.437	25206
833.576	25225
833.714	25190
833.852	25324
833.991	25255
834.129	25289
834.267	25384
834.406	25118
834.544	25217
834.682	25145
834.821	25118
834.959	25460
835.097	25232
835.235	25266
835.373	25327
835.511	25160
835.65	25145
835.788	25019
835.926	24977
836.064	24897
836.202	24878
836.34	24951
836.478	25198
836.615	25027
836.753	25141
836.891	25053
837.029	24989
837.167	24966
837.305	24962
837.443	24928
837.58	24890
837.718	24981
837.856	24890
837.993	24768
838.131	24833
838.269	24681
838.406	24749
838.544	24764
838.681	24505
838.819	24559
838.956	24334
839.094	24308
839.231	24395
839.369	24456
839.506	24760
839.643	24639
839.781	24372
839.918	24277
840.055	24285
840.193	24357
840.33	24281
840.467	24262
840.604	24273
840.742	24563
840.879	24038
841.016	24167
841.153	24190
841.29	24327
841.427	24091
841.564	24319
841.701	24220
841.838	24220
841.975	24011
842.112	24178
842.249	24095
842.385	23946
842.522	24254
842.659	24102
842.796	23954
842.933	24018
843.069	23843
843.206	24007
843.343	23973
843.479	24076
843.616	23931
843.752	23752
843.889	23741
844.025	23992
844.162	23680
844.298	23946
844.435	23752
844.571	23733
844.708	23817
844.844	24015
844.98	23935
845.117	23904
845.253	23627
845.389	23710
845.525	23646
845.661	23589
845.798	23486
845.934	23524
846.07	23493
846.206	23463
846.342	23611
846.478	23493
846.614	23334
846.75	23140
846.886	23178
847.022	23360
847.158	23216
847.294	23166
847.429	23223
847.565	23159
847.701	23512
847.837	22919
847.972	22881
848.108	23064
848.244	23010
848.379	22843
848.515	22877
848.65	22736
848.786	22881
848.921	22771
849.057	22843
849.192	22946
849.328	22927
849.463	22626
849.598	22698
849.734	22767
849.869	22748
850.004	22565
850.14	22596
850.275	22607
850.41	22573
850.545	22512
850.68	22481
850.815	22580
850.95	22596
851.085	22736
851.22	22729
851.355	22603
851.49	22523
851.625	22569
851.76	22577
851.895	22409
852.03	22527
852.165	22493
852.299	22580
852.434	22573
852.569	22550
852.703	22679
852.838	22717
852.973	22660
853.107	22744
853.242	22481
853.376	22424
853.511	22246
853.645	22284
853.78	22489
853.914	22421
854.048	22379
854.183	22363
854.317	22363
854.451	22733
854.585	22451
854.72	22375
854.854	22455
854.988	22329
855.122	22375
855.256	22299
855.39	22360
855.524	22519
855.658	22436
855.792	22371
855.926	22386
856.06	22413
856.194	22306
856.327	22413
856.461	22310
856.595	22344
856.729	22344
856.862	22447
856.996	22424
857.13	22447
857.263	22466
857.397	22504
857.53	22356
857.664	22363
857.797	22466
857.931	22478
858.064	22459
858.197	22447
858.331	22295
858.464	22341
858.597	22341
858.731	22337
858.864	22360
858.997	22348
859.13	22485
859.263	22230
859.396	22360
859.529	22253
859.662	22367
859.795	22211
859.928	22382
860.061	22379
860.194	22561
860.327	22512
860.46	22341
860.592	22523
860.725	22523
860.858	22516
860.99	22390
861.123	22398
861.256	22322
861.388	22394
861.521	23048
861.653	22284
861.786	22162
861.918	22223
862.05	22341
862.183	22318
862.315	22398
862.447	22367
862.58	22268
862.712	22013
862.844	22120
862.976	22200
863.108	22211
863.24	22557
863.372	22101
863.504	22112
863.636	22196
863.768	22116
863.9	22090
864.032	22093
864.164	22021
864.296	22101
864.428	22261
864.559	22105
864.691	22070
864.823	22158
864.954	22093
865.086	22078
865.217	21998
865.349	21911
865.48	22040
865.612	22048
865.743	22131
865.875	22036
866.006	21861
866.137	21945
866.269	22051
866.4	21979
866.531	21998
866.662	21888
866.793	21895
866.924	21827
867.055	21907
867.186	22006
867.317	21983
867.448	21888
867.579	21960
867.71	21846
867.841	21857
867.972	21873
868.103	21926
868.233	22017
868.364	21979
868.495	22055
868.625	22013
868.756	22348
868.886	22029
869.017	22139
869.147	22219
869.278	22265
869.408	22177
869.539	22181
869.669	22204
869.799	22242
869.929	22234
870.06	22341
870.19	22371
870.32	22409
870.45	22599
870.58	22398
870.71	22713
870.84	22668
870.97	22523
871.1	22474
871.23	22710
871.36	22641
871.489	22592
871.619	22778
871.749	22664
871.879	22740
872.008	22801
872.138	22873
872.267	22736
872.397	22588
872.526	22603
872.656	22615
872.785	22451
872.915	22679
873.044	22831
873.173	22809
873.303	22729
873.432	22656
873.561	22892
873.69	22748
873.819	22843
873.948	22850
874.077	22854
874.206	22713
874.335	22637
874.464	22831
874.593	23018
874.722	22908
874.851	22976
874.979	23022
875.108	23037
875.237	22942
875.365	22972
875.494	23033
875.623	22949
875.751	22877
875.88	22930
876.008	23010
876.136	23265
876.265	23471
876.393	23581
876.521	23360
876.65	23505
876.778	23318
876.906	23265
877.034	23334
877.162	23307
877.29	23254
877.418	23318
877.546	23372
877.674	23334
877.802	23296
877.93	23398
878.058	23341
878.185	23181
878.313	23280
878.441	23242
878.568	23166
878.696	23284
878.824	23307
878.951	23246
879.079	23531
879.206	23608
879.333	23512
879.461	23280
879.588	23444
879.715	23512
879.842	23634
879.97	23417
880.097	23204
880.224	23299
880.351	23223
880.478	23174
880.605	23090
880.732	23140
880.859	23341
880.986	23178
881.112	23075
881.239	23014
881.366	22942
881.493	22816
881.619	22790
881.746	22736
881.872	22778
881.999	22717
882.125	22622
882.252	22869
882.378	22637
882.505	22835
882.631	22588
882.757	22295
882.883	22554
883.01	22424
883.136	22417
883.262	22147
883.388	22261
883.514	22405
883.64	22470
883.766	22276
883.892	22093
884.018	22109
884.143	22310
884.269	22409
884.395	22010
884.52	21949
884.646	22048
884.772	21934
884.897	21911
885.023	22090
885.148	22070
885.274	22192
885.399	22070
885.524	22044
885.65	21979
885.775	22048
885.9	21926
886.025	22101
886.15	22048
886.275	22021
886.4	22070
886.525	21899
886.65	22002
886.775	21983
886.9	22185
887.025	22181
887.149	21972
887.274	21873
887.399	21755
887.523	21861
887.648	21679
887.773	21660
887.897	21770
888.021	21816
888.146	21781
888.27	21823
888.395	21854
888.519	21835
888.643	21766
888.767	21785
888.891	21644
889.015	21587
889.139	21599
889.263	21523
889.387	21606
889.511	21766
889.635	21641
889.759	21526
889.883	21507
890.006	21610
890.13	21530
890.254	21401
890.377	21412
890.501	21428
890.624	21359
890.748	21370
890.871	21291
890.995	21085
891.118	21100
891.241	21211
891.364	21085
891.488	21294
891.611	21066
891.734	21207
891.857	21283
891.98	21161
892.103	21188
892.226	21154
892.349	21009
892.471	20853
892.594	20982
892.717	21036
892.839	20914
892.962	21055
893.085	20990
893.207	21089
893.33	20925
893.452	20880
893.575	20952
893.697	21032
893.819	21138
893.941	21264
894.064	21089
894.186	20815
894.308	20891
894.43	21066
894.552	21157
894.674	21188
894.796	20933
894.918	20941
895.04	20937
895.161	21093
895.283	21009
895.405	20963
895.526	20948
895.648	20971
895.769	20933
895.891	21017
896.012	21077
896.134	21142
896.255	20967
896.376	20952
896.498	21039
896.619	21138
896.74	21009
896.861	20963
896.982	21340
897.103	21515
897.224	21199
897.345	21146
897.466	21074
897.587	21146
897.708	21173
897.828	21123
897.949	21310
898.07	20971
898.19	21093
898.311	21237
898.431	21070
898.552	21165
898.672	21310
898.792	21329
898.913	21192
899.033	21055
899.153	20880
899.273	21013
899.393	20979
899.513	20998
899.633	20853
899.753	20963
899.873	20792
899.993	20929
900.113	20849
900.232	20804
900.352	20857
900.472	20716
900.591	20686
900.711	20720
900.83	20552
900.95	20708
901.069	20667
901.189	20560
901.308	20400
901.427	20343
901.546	20233
901.665	20385
901.784	20275
901.904	20096
902.023	20103
902.141	19849
902.26	20016
902.379	20001
902.498	19784
902.617	19693
902.735	19818
902.854	19666
902.973	19658
903.091	19457
903.21	19411
903.328	19438
903.446	19206
903.565	19118
903.683	19320
903.801	19103
903.919	19228
904.038	19126
904.156	19031
904.274	19137
904.392	18989
904.51	19015
904.627	19000
904.745	18985
904.863	19046
904.981	18753
905.098	18627
905.216	18585
905.334	18779
905.451	18544
905.569	18642
905.686	18696
905.803	18681
905.921	18395
906.038	18441
906.155	18513
906.272	18361
906.389	18281
906.506	18087
906.623	18197
906.74	18117
906.857	18053
906.974	18155
907.091	18174
907.208	18277
907.324	18171
907.441	18121
907.557	17939
907.674	17836
907.79	17866
907.907	17790
908.023	17855
908.139	17897
908.256	17790
908.372	17733
908.488	17779
908.604	17623
908.72	17642
908.836	17589
908.952	17547
909.068	17608
909.184	17710
909.3	17558
909.415	17604
909.531	17490
909.647	17402
909.762	17376
909.878	17318
909.993	17269
910.108	17269
910.224	17239
910.339	17227
910.454	17204
910.57	17010
910.685	17025
910.8	17292
910.915	17193
911.03	17052
911.145	16896
911.259	16896
911.374	16824
911.489	16881
911.604	16683
911.718	16618
911.833	16611
911.947	16489
912.062	16481
912.176	16691
912.291	16603
912.405	16599
912.519	16721
912.633	16862
912.748	16717
912.862	16683
912.976	16451
913.09	16325
913.204	16398
913.318	16337
913.431	16535
913.545	16500
913.659	16474
913.772	16375
913.886	16322
914	16204
914.113	16230
914.226	16280
914.34	16185
914.453	16055
914.566	16192
914.68	16196
914.793	16093
914.906	15850
915.019	15873
915.132	15793
915.245	15736
915.358	15743
915.47	15793
915.583	15774
915.696	15831
915.809	15937
915.921	15907
916.034	15622
916.146	15690
916.259	15694
916.371	15762
916.483	15663
916.595	15633
916.708	15701
916.82	15519
916.932	15485
917.044	15591
917.156	15511
917.268	15439
917.38	15466
917.491	15370
917.603	15519
917.715	15420
917.826	15496
917.938	15321
918.049	15275
918.161	15264
918.272	15507
918.384	15359
918.495	15329
918.606	15249
918.717	15199
918.828	15237
918.939	15150
919.05	15089
919.161	15146
919.272	14971
919.383	15039
919.494	15222
919.604	15329
919.715	15138
919.826	15024
919.936	15097
920.047	15184
920.157	15203
920.267	15245
920.378	15062
920.488	15230
920.598	15214
920.708	15428
920.818	15237
920.928	15264
921.038	15485
921.148	15283
921.258	15066
921.368	14929
921.477	14811
921.587	14834
921.697	14765
921.806	14796
921.916	14686
922.025	14454
922.134	14503
922.244	14415
922.353	14522
922.462	14317
922.571	14389
922.68	14088
922.789	14142
922.898	14267
923.007	13913
923.116	14081
923.224	14100
923.333	14046
923.442	13986
923.55	13982
923.659	13887
923.767	13997
923.876	13871
923.984	13997
924.092	13871
924.201	13974
924.309	13772
924.417	13803
924.525	13765
924.633	13788
924.741	14629
924.849	13552
924.956	13685
925.064	13575
925.172	13468
925.279	13464
925.387	13620
925.494	13518
925.602	13605
925.709	13556
925.816	13411
925.924	13434
926.031	13502
926.138	13537
926.245	13499
926.352	13392
926.459	13529
926.566	13426
926.673	13403
926.779	13255
926.886	13198
926.993	13110
927.099	13065
927.206	12970
927.312	13050
927.419	13012
927.525	12973
927.631	13118
927.737	12909
927.843	12871
927.95	12939
928.056	12859
928.162	12837
928.267	12913
928.373	13400
928.479	12833
928.585	12772
928.69	12795
928.796	12878
928.901	12707
929.007	12604
929.112	12684
929.218	12601
929.323	12642
929.428	12551
929.533	12734
929.638	12532
929.743	12426
929.848	12646
929.953	12544
930.058	12422
930.163	12281
930.267	12277
930.372	12426
930.477	12205
930.581	12441
930.685	12254
930.79	12159
930.894	12098
930.998	12057
931.103	12216
931.207	11828
931.311	11775
931.415	11684
931.519	11448
931.623	11341
