Data from test_V78500241_765.txt Node
Date: Fri Mar 25 15:47:06 CST 2022
User: usil
Spectrometer: V785-0024
Trigger mode: 0
Integration Time (sec): 4.000000E-1
Scans to average: 1
Nonlinearity correction enabled: false
Boxcar width: 0
Storing dark spectrum: false
XAxis mode: Wavelengths
Number of Pixels in Spectrum: 1024
>>>>>Begin Spectral Data<<<<<
801.071	28040
801.214	27979
801.356	27705
801.499	27622
801.641	27519
801.783	27523
801.926	27644
802.068	27576
802.211	27386
802.353	27268
802.496	27237
802.638	27165
802.78	27066
802.923	27157
803.065	26979
803.208	27043
803.35	27279
803.492	27272
803.635	27416
803.777	27207
803.919	27260
804.061	27747
804.204	27344
804.346	27363
804.488	27283
804.63	27374
804.773	27310
804.915	27359
805.057	27530
805.199	27279
805.341	27351
805.483	27504
805.626	27549
805.768	27302
805.91	27386
806.052	27481
806.194	27329
806.336	27652
806.478	27553
806.62	27458
806.762	27561
806.904	27743
807.046	28029
807.188	28044
807.33	28082
807.472	27838
807.614	27808
807.756	27838
807.898	27660
808.04	27842
808.182	27713
808.324	27705
808.465	27808
808.607	27937
808.749	28021
808.891	28177
809.033	28348
809.174	28147
809.316	27998
809.458	28204
809.6	28055
809.741	28200
809.883	28462
810.025	28386
810.166	28363
810.308	28542
810.45	28451
810.591	28238
810.733	28196
810.875	28101
811.016	28017
811.158	28025
811.299	28196
811.441	28344
811.582	28291
811.724	28249
811.865	28207
812.007	28188
812.148	28150
812.29	28261
812.431	28299
812.573	28516
812.714	28653
812.855	28615
812.997	28664
813.138	28752
813.279	28721
813.421	28615
813.562	28588
813.703	28455
813.845	28329
813.986	27979
814.127	27922
814.268	27713
814.41	27922
814.551	27804
814.692	27850
814.833	27766
814.974	27812
815.115	27804
815.256	27698
815.397	27679
815.539	27610
815.68	27549
815.821	27523
815.962	27709
816.103	27599
816.244	27545
816.385	27344
816.526	27523
816.666	27157
816.807	27081
816.948	27127
817.089	27268
817.23	27081
817.371	27104
817.512	27230
817.653	27077
817.793	27039
817.934	27127
818.075	27230
818.216	27131
818.356	27039
818.497	26937
818.638	26785
818.778	26868
818.919	26842
819.06	26944
819.2	27089
819.341	27001
819.481	27077
819.622	27306
819.762	27469
819.903	27351
820.043	27332
820.184	27275
820.324	27249
820.465	27313
820.605	27226
820.746	27169
820.886	27077
821.026	27180
821.167	27279
821.307	27302
821.447	26994
821.588	27081
821.728	26921
821.868	26796
822.008	26606
822.149	26720
822.289	26629
822.429	26351
822.569	26473
822.709	26313
822.849	26161
822.99	26103
823.13	26096
823.27	26229
823.41	25963
823.55	25727
823.69	26024
823.83	25890
823.97	25849
824.11	25868
824.25	25734
824.389	25677
824.529	25772
824.669	25803
824.809	25887
824.949	25894
825.089	26016
825.228	25696
825.368	25601
825.508	25616
825.648	25643
825.787	25738
825.927	25704
826.067	25540
826.206	25616
826.346	25776
826.485	25719
826.625	25571
826.765	25674
826.904	25571
827.044	25396
827.183	25388
827.323	25312
827.462	25449
827.601	25270
827.741	25316
827.88	25392
828.02	25316
828.159	25297
828.298	25400
828.437	25464
828.577	25358
828.716	25487
828.855	25270
828.994	25160
829.134	25046
829.273	24958
829.412	25015
829.551	24943
829.69	25069
829.829	25129
829.968	25171
830.107	25099
830.246	25107
830.385	24981
830.524	24875
830.663	24814
830.802	24798
830.941	24536
831.08	24608
831.219	24692
831.357	24650
831.496	24856
831.635	24719
831.774	24532
831.913	24593
832.051	24452
832.19	24551
832.329	24509
832.467	24380
832.606	24262
832.744	24353
832.883	24270
833.022	24296
833.16	24258
833.299	24205
833.437	24292
833.576	24369
833.714	24376
833.852	24372
833.991	24384
834.129	24544
834.267	24585
834.406	24296
834.544	24342
834.682	24380
834.821	24357
834.959	24623
835.097	24308
835.235	24483
835.373	24228
835.511	24426
835.65	24289
835.788	24224
835.926	24030
836.064	24068
836.202	24015
836.34	24201
836.478	24330
836.615	24125
836.753	24213
836.891	24327
837.029	24129
837.167	24194
837.305	24133
837.443	24030
837.58	24155
837.718	24148
837.856	24197
837.993	23980
838.131	24018
838.269	24007
838.406	24057
838.544	23786
838.681	23817
838.819	23737
838.956	23520
839.094	23535
839.231	23657
839.369	23687
839.506	23870
839.643	23726
839.781	23528
839.918	23512
840.055	23589
840.193	23497
840.33	23414
840.467	23524
840.604	23581
840.742	23695
840.879	23208
841.016	23402
841.153	23383
841.29	23524
841.427	23376
841.564	23486
841.701	23474
841.838	23410
841.975	23330
842.112	23379
842.249	23280
842.385	23330
842.522	23493
842.659	23318
842.796	23181
842.933	23303
843.069	23132
843.206	23067
843.343	23296
843.479	23136
843.616	23162
843.752	22896
843.889	22946
844.025	23090
844.162	22896
844.298	22957
844.435	22946
844.571	23010
844.708	22946
844.844	23060
844.98	23083
845.117	23079
845.253	22729
845.389	22828
845.525	22713
845.661	22786
845.798	22759
845.934	22748
846.07	22626
846.206	22885
846.342	22839
846.478	22622
846.614	22527
846.75	22481
846.886	22341
847.022	22466
847.158	22508
847.294	22455
847.429	22390
847.565	22485
847.701	22748
847.837	22173
847.972	22154
848.108	22234
848.244	22226
848.379	21979
848.515	21964
848.65	22013
848.786	22082
848.921	22002
849.057	22154
849.192	22188
849.328	22051
849.463	22120
849.598	21953
849.734	21850
849.869	21800
850.004	21785
850.14	21865
850.275	21728
850.41	21770
850.545	21770
850.68	21793
850.815	21835
850.95	21759
851.085	21994
851.22	21899
851.355	21850
851.49	21743
851.625	21808
851.76	21736
851.895	21698
852.03	21713
852.165	21724
852.299	21816
852.434	21857
852.569	21854
852.703	21751
852.838	21705
852.973	21854
853.107	21812
853.242	21770
853.376	21644
853.511	21515
853.645	21538
853.78	21713
853.914	21675
854.048	21595
854.183	21515
854.317	21610
854.451	21835
854.585	21515
854.72	21637
854.854	21717
854.988	21386
855.122	21679
855.256	21466
855.39	21481
855.524	21618
855.658	21709
855.792	21557
855.926	21572
856.06	21694
856.194	21606
856.327	21595
856.461	21454
856.595	21572
856.729	21526
856.862	21679
856.996	21644
857.13	21694
857.263	21660
857.397	21717
857.53	21633
857.664	21739
857.797	21583
857.931	21781
858.064	21572
858.197	21720
858.331	21671
858.464	21637
858.597	21447
858.731	21538
858.864	21606
858.997	21561
859.13	21614
859.263	21679
859.396	21595
859.529	21549
859.662	21485
859.795	21701
859.928	21564
860.061	21861
860.194	21812
860.327	21682
860.46	21610
860.592	21823
860.725	21816
860.858	21747
860.99	21663
861.123	21530
861.256	21481
861.388	21660
861.521	22181
861.653	21332
861.786	21469
861.918	21469
862.05	21549
862.183	21469
862.315	21564
862.447	21496
862.58	21450
862.712	21291
862.844	21329
862.976	21431
863.108	21306
863.24	21774
863.372	21378
863.504	21332
863.636	21154
863.768	21458
863.9	21363
864.032	21252
864.164	21233
864.296	21321
864.428	21424
864.559	21359
864.691	21386
864.823	21321
864.954	21340
865.086	21321
865.217	21287
865.349	21165
865.48	21230
865.612	21222
865.743	21401
865.875	21195
866.006	21184
866.137	21214
866.269	21222
866.4	21146
866.531	21161
866.662	21081
866.793	21165
866.924	21222
867.055	21142
867.186	21218
867.317	21192
867.448	21146
867.579	21119
867.71	21055
867.841	21119
867.972	21169
868.103	20963
868.233	21112
868.364	21070
868.495	21283
868.625	21325
868.756	21340
868.886	21363
869.017	21393
869.147	21447
869.278	21500
869.408	21389
869.539	21325
869.669	21428
869.799	21405
869.929	21477
870.06	21496
870.19	21610
870.32	21694
870.45	21755
870.58	21739
870.71	21842
870.84	21892
870.97	21888
871.1	21915
871.23	21941
871.36	21857
871.489	21819
871.619	21926
871.749	21960
871.879	21949
872.008	22032
872.138	21953
872.267	21945
872.397	21892
872.526	21759
872.656	21808
872.785	21705
872.915	21930
873.044	21949
873.173	21956
873.303	22036
873.432	22135
873.561	22048
873.69	21911
873.819	21827
873.948	22105
874.077	21972
874.206	21983
874.335	22010
874.464	22093
874.593	22261
874.722	22249
874.851	22276
874.979	22226
875.108	22226
875.237	22188
875.365	22162
875.494	22329
875.623	22303
875.751	22150
875.88	22299
876.008	22348
876.136	22519
876.265	22649
876.393	22729
876.521	22691
876.65	22584
876.778	22573
876.906	22462
877.034	22485
877.162	22512
877.29	22519
877.418	22557
877.546	22470
877.674	22603
877.802	22470
877.93	22580
878.058	22508
878.185	22512
878.313	22580
878.441	22622
878.568	22348
878.696	22447
878.824	22554
878.951	22668
879.079	22835
879.206	22908
879.333	22649
879.461	22645
879.588	22668
879.715	22565
879.842	22782
879.97	22653
880.097	22234
880.224	22375
880.351	22322
880.478	22436
880.605	22402
880.732	22405
880.859	22508
880.986	22394
881.112	22409
881.239	22158
881.366	22139
881.493	22044
881.619	21926
881.746	21922
881.872	21937
881.999	21937
882.125	21850
882.252	22048
882.378	21789
882.505	21956
882.631	21705
882.757	21587
882.883	21854
883.01	21675
883.136	21622
883.262	21405
883.388	21405
883.514	21686
883.64	21606
883.766	21583
883.892	21408
884.018	21355
884.143	21618
884.269	21641
884.395	21302
884.52	21131
884.646	21313
884.772	21127
884.897	21211
885.023	21374
885.148	21359
885.274	21416
885.399	21496
885.524	21226
885.65	21249
885.775	21325
885.9	21184
886.025	21397
886.15	21306
886.275	21135
886.4	21100
886.525	21332
886.65	21298
886.775	21245
886.9	21332
887.025	21481
887.149	21249
887.274	21013
887.399	21089
887.523	21036
887.648	21047
887.773	20975
887.897	21096
888.021	21161
888.146	21017
888.27	21104
888.395	21138
888.519	21135
888.643	21081
888.767	21047
888.891	20883
889.015	20804
889.139	20918
889.263	20895
889.387	20971
889.511	20982
889.635	20967
889.759	20765
889.883	20758
890.006	20952
890.13	20986
890.254	20697
890.377	20838
890.501	20579
890.624	20571
890.748	20564
890.871	20526
890.995	20374
891.118	20328
891.241	20396
891.364	20511
891.488	20480
891.611	20423
891.734	20465
891.857	20450
891.98	20400
892.103	20499
892.226	20385
892.349	20347
892.471	20263
892.594	20294
892.717	20408
892.839	20332
892.962	20343
893.085	20389
893.207	20374
893.33	20172
893.452	20248
893.575	20423
893.697	20237
893.819	20408
893.941	20434
894.064	20347
894.186	20206
894.308	20126
894.43	20317
894.552	20423
894.674	20404
894.796	20218
894.918	20393
895.04	20309
895.161	20362
895.283	20377
895.405	20210
895.526	20240
895.648	20294
895.769	20389
895.891	20305
896.012	20495
896.134	20408
896.255	20343
896.376	20286
896.498	20377
896.619	20454
896.74	20252
896.861	20450
896.982	20568
897.103	20735
897.224	20571
897.345	20465
897.466	20377
897.587	20648
897.708	20571
897.828	20450
897.949	20484
898.07	20419
898.19	20480
898.311	20571
898.431	20446
898.552	20492
898.672	20571
898.792	20526
898.913	20495
899.033	20434
899.153	20336
899.273	20237
899.393	20267
899.513	20328
899.633	20351
899.753	20309
899.873	20176
899.993	20362
900.113	20176
900.232	20256
900.352	20218
900.472	20062
900.591	20130
900.711	20069
900.83	20073
900.95	20077
901.069	20237
901.189	19986
901.308	19666
901.427	19525
901.546	19609
901.665	19586
901.784	19609
901.904	19472
902.023	19411
902.141	19145
902.26	19095
902.379	19263
902.498	19080
902.617	19065
902.735	19141
902.854	19069
902.973	19110
903.091	18909
903.21	18772
903.328	18806
903.446	18623
903.565	18639
903.683	18661
903.801	18532
903.919	18582
904.038	18601
904.156	18346
904.274	18464
904.392	18346
904.51	18334
904.627	18391
904.745	18350
904.863	18490
904.981	18224
905.098	18045
905.216	18045
905.334	18034
905.451	18087
905.569	18072
905.686	18091
905.803	18045
905.921	17878
906.038	17927
906.155	17840
906.272	17733
906.389	17680
906.506	17657
906.623	17577
906.74	17551
906.857	17486
906.974	17532
907.091	17611
907.208	17703
907.324	17585
907.441	17543
907.557	17280
907.674	17349
907.79	17265
907.907	17353
908.023	17246
908.139	17296
908.256	17254
908.372	17193
908.488	17200
908.604	17052
908.72	16972
908.836	17075
908.952	16991
909.068	16987
909.184	17212
909.3	16949
909.415	17083
909.531	16991
909.647	16679
909.762	16664
909.878	16740
909.993	16744
910.108	16637
910.224	16611
910.339	16679
910.454	16618
910.57	16588
910.685	16447
910.8	16634
910.915	16630
911.03	16561
911.145	16287
911.259	16291
911.374	16322
911.489	16280
911.604	16139
911.718	15987
911.833	16036
911.947	15964
912.062	15956
912.176	16036
912.291	15983
912.405	16078
912.519	16226
912.633	16219
912.748	16048
912.862	15903
912.976	15842
913.09	15709
913.204	15797
913.318	15876
913.431	15926
913.545	15998
913.659	15949
913.772	15888
913.886	15770
914	15698
914.113	15679
914.226	15804
914.34	15869
914.453	15534
914.566	15675
914.68	15496
914.793	15542
914.906	15416
915.019	15329
915.132	15180
915.245	15325
915.358	15279
915.47	15294
915.583	15283
915.696	15348
915.809	15412
915.921	15370
916.034	15237
916.146	15188
916.259	15097
916.371	15283
916.483	15264
916.595	15036
916.708	15009
916.82	15093
916.932	15066
917.044	15001
917.156	15070
917.268	14830
917.38	14929
917.491	14921
917.603	14967
917.715	14956
917.826	14956
917.938	14872
918.049	14807
918.161	14857
918.272	14910
918.384	15055
918.495	14880
918.606	14648
918.717	14602
918.828	14689
918.939	14602
919.05	14587
919.161	14568
919.272	14473
919.383	14545
919.494	14731
919.604	14800
919.715	14526
919.826	14598
919.936	14621
920.047	14644
920.157	14568
920.267	14762
920.378	14610
920.488	14625
920.598	14826
920.708	14929
920.818	14655
920.928	14857
921.038	14876
921.148	14921
921.258	14552
921.368	14526
921.477	14355
921.587	14423
921.697	14225
921.806	14431
921.916	14138
922.025	14130
922.134	14012
922.244	13917
922.353	14043
922.462	13928
922.571	13807
922.68	13647
922.789	13636
922.898	13544
923.007	13609
923.116	13723
923.224	13696
923.333	13651
923.442	13533
923.55	13320
923.659	13453
923.767	13556
923.876	13422
923.984	13544
924.092	13415
924.201	13422
924.309	13415
924.417	13441
924.525	13259
924.633	13285
924.741	14252
924.849	13103
924.956	13175
925.064	13133
925.172	13034
925.279	13008
925.387	13110
925.494	13046
925.602	13225
925.709	13126
925.816	13004
925.924	13023
926.031	13076
926.138	13118
926.245	13000
926.352	12814
926.459	13046
926.566	13042
926.673	12935
926.779	12730
926.886	12951
926.993	12654
927.099	12772
927.206	12627
927.312	12506
927.419	12711
927.525	12604
927.631	12730
927.737	12570
927.843	12452
927.95	12296
928.056	12388
928.162	12445
928.267	12513
928.373	12935
928.479	12479
928.585	12319
928.69	12357
928.796	12506
928.901	12334
929.007	12072
929.112	12289
929.218	12296
929.323	12098
929.428	12133
929.533	12281
929.638	12091
929.743	12186
929.848	12197
929.953	12136
930.058	11931
930.163	11821
930.267	11828
930.372	11939
930.477	11764
930.581	12049
930.685	11878
930.79	11733
930.894	11805
930.998	11672
931.103	11786
931.207	11524
931.311	11402
931.415	11280
931.519	11105
931.623	11140
