Data from test_V78500241_1387.txt Node
Date: Fri Mar 25 15:51:24 CST 2022
User: usil
Spectrometer: V785-0024
Trigger mode: 0
Integration Time (sec): 4.000000E-1
Scans to average: 1
Nonlinearity correction enabled: false
Boxcar width: 0
Storing dark spectrum: false
XAxis mode: Wavelengths
Number of Pixels in Spectrum: 1024
>>>>>Begin Spectral Data<<<<<
801.071	27953
801.214	27819
801.356	27599
801.499	27583
801.641	27507
801.783	27564
801.926	27466
802.068	27477
802.211	27355
802.353	27317
802.496	27192
802.638	27203
802.78	27176
802.923	27047
803.065	27036
803.208	27039
803.35	27116
803.492	27199
803.635	27325
803.777	27195
803.919	27291
804.061	27606
804.204	27321
804.346	27154
804.488	27089
804.63	27233
804.773	27233
804.915	27401
805.057	27424
805.199	27138
805.341	27306
805.483	27485
805.626	27477
805.768	27302
805.91	27492
806.052	27450
806.194	27367
806.336	27603
806.478	27549
806.62	27591
806.762	27488
806.904	27698
807.046	27884
807.188	27850
807.33	27739
807.472	27907
807.614	27831
807.756	27884
807.898	27751
808.04	27686
808.182	27759
808.324	27675
808.465	27694
808.607	28082
808.749	28154
808.891	28169
809.033	28238
809.174	27979
809.316	28063
809.458	28048
809.6	28166
809.741	28131
809.883	28360
810.025	28379
810.166	28394
810.308	28314
810.45	28226
810.591	28242
810.733	28090
810.875	28200
811.016	28097
811.158	28006
811.299	28196
811.441	28246
811.582	28162
811.724	28044
811.865	28032
812.007	28101
812.148	28051
812.29	28131
812.431	28196
812.573	28455
812.714	28615
812.855	28637
812.997	28721
813.138	28854
813.279	28577
813.421	28497
813.562	28512
813.703	28504
813.845	28306
813.986	27922
814.127	27861
814.268	27671
814.41	27884
814.551	27686
814.692	27808
814.833	27671
814.974	27831
815.115	27838
815.256	27701
815.397	27618
815.539	27736
815.68	27606
815.821	27519
815.962	27637
816.103	27466
816.244	27408
816.385	27310
816.526	27370
816.666	27287
816.807	27123
816.948	27176
817.089	27237
817.23	27077
817.371	26948
817.512	27112
817.653	27043
817.793	26899
817.934	26956
818.075	27024
818.216	27070
818.356	26956
818.497	26990
818.638	26792
818.778	26613
818.919	26815
819.06	26937
819.2	26880
819.341	27036
819.481	27112
819.622	27184
819.762	27435
819.903	27116
820.043	27306
820.184	27146
820.324	27192
820.465	27180
820.605	27150
820.746	27184
820.886	27112
821.026	27264
821.167	27135
821.307	27192
821.447	27096
821.588	26998
821.728	26727
821.868	26777
822.008	26541
822.149	26537
822.289	26533
822.429	26107
822.569	26157
822.709	26275
822.849	26062
822.99	26164
823.13	26001
823.27	25966
823.41	25879
823.55	25693
823.69	25837
823.83	25856
823.97	25803
824.11	25635
824.25	25567
824.389	25734
824.529	25776
824.669	25616
824.809	25822
824.949	25894
825.089	25780
825.228	25776
825.368	25578
825.508	25479
825.648	25544
825.787	25590
825.927	25639
826.067	25426
826.206	25586
826.346	25609
826.485	25590
826.625	25506
826.765	25746
826.904	25521
827.044	25324
827.183	25232
827.323	25198
827.462	25331
827.601	25206
827.741	25324
827.88	25247
828.02	25236
828.159	25194
828.298	25259
828.437	25354
828.577	25289
828.716	25422
828.855	25118
828.994	25042
829.134	25050
829.273	25019
829.412	24806
829.551	25133
829.69	24859
829.829	25008
829.968	25107
830.107	25012
830.246	24973
830.385	24985
830.524	24878
830.663	24875
830.802	24783
830.941	24612
831.08	24658
831.219	24620
831.357	24696
831.496	24787
831.635	24612
831.774	24289
831.913	24429
832.051	24388
832.19	24296
832.329	24418
832.467	24289
832.606	24121
832.744	24148
832.883	24262
833.022	24270
833.16	24216
833.299	24243
833.437	24319
833.576	24273
833.714	24350
833.852	24365
833.991	24483
834.129	24445
834.267	24262
834.406	24254
834.544	24315
834.682	24372
834.821	24178
834.959	24456
835.097	24243
835.235	24334
835.373	24201
835.511	24376
835.65	24136
835.788	24114
835.926	24034
836.064	23954
836.202	23897
836.34	24209
836.478	24186
836.615	24125
836.753	24076
836.891	24220
837.029	24064
837.167	23939
837.305	23992
837.443	23954
837.58	23954
837.718	24072
837.856	24110
837.993	23897
838.131	23931
838.269	23809
838.406	23851
838.544	23832
838.681	23433
838.819	23581
838.956	23398
839.094	23452
839.231	23433
839.369	23634
839.506	23882
839.643	23714
839.781	23505
839.918	23345
840.055	23474
840.193	23315
840.33	23395
840.467	23372
840.604	23452
840.742	23653
840.879	23162
841.016	23299
841.153	23193
841.29	23425
841.427	23292
841.564	23368
841.701	23402
841.838	23387
841.975	23155
842.112	23174
842.249	23083
842.385	23143
842.522	23474
842.659	23223
842.796	23132
842.933	23136
843.069	23170
843.206	23071
843.343	23113
843.479	23140
843.616	23136
843.752	22904
843.889	22938
844.025	22957
844.162	22900
844.298	22843
844.435	22927
844.571	22786
844.708	22839
844.844	23006
844.98	23044
845.117	22968
845.253	22812
845.389	22706
845.525	22698
845.661	22786
845.798	22630
845.934	22679
846.07	22592
846.206	22607
846.342	22866
846.478	22622
846.614	22402
846.75	22272
846.886	22375
847.022	22421
847.158	22268
847.294	22421
847.429	22379
847.565	22344
847.701	22740
847.837	22120
847.972	22116
848.108	22200
848.244	22067
848.379	21895
848.515	21865
848.65	21884
848.786	22002
848.921	21926
849.057	22169
849.192	22063
849.328	22002
849.463	21903
849.598	21994
849.734	21857
849.869	21903
850.004	21739
850.14	21739
850.275	21625
850.41	21625
850.545	21705
850.68	21641
850.815	21671
850.95	21698
851.085	21808
851.22	21800
851.355	21823
851.49	21663
851.625	21652
851.76	21720
851.895	21530
852.03	21549
852.165	21652
852.299	21717
852.434	21762
852.569	21667
852.703	21663
852.838	21720
852.973	21838
853.107	21972
853.242	21720
853.376	21564
853.511	21363
853.645	21526
853.78	21614
853.914	21504
854.048	21420
854.183	21496
854.317	21599
854.451	21694
854.585	21542
854.72	21469
854.854	21603
854.988	21504
855.122	21538
855.256	21450
855.39	21431
855.524	21553
855.658	21606
855.792	21450
855.926	21519
856.06	21500
856.194	21545
856.327	21481
856.461	21408
856.595	21466
856.729	21458
856.862	21599
856.996	21538
857.13	21488
857.263	21599
857.397	21682
857.53	21492
857.664	21511
857.797	21523
857.931	21587
858.064	21557
858.197	21610
858.331	21523
858.464	21504
858.597	21443
858.731	21633
858.864	21507
858.997	21458
859.13	21561
859.263	21549
859.396	21587
859.529	21450
859.662	21492
859.795	21454
859.928	21454
860.061	21641
860.194	21728
860.327	21568
860.46	21462
860.592	21633
860.725	21606
860.858	21625
860.99	21420
861.123	21557
861.256	21485
861.388	21447
861.521	22261
861.653	21329
861.786	21241
861.918	21249
862.05	21405
862.183	21439
862.315	21606
862.447	21530
862.58	21504
862.712	21180
862.844	21249
862.976	21359
863.108	21275
863.24	21717
863.372	21123
863.504	21325
863.636	21112
863.768	21161
863.9	21218
864.032	21165
864.164	21211
864.296	21287
864.428	21348
864.559	21226
864.691	21226
864.823	21218
864.954	21291
865.086	21192
865.217	21074
865.349	21055
865.48	21070
865.612	21127
865.743	21173
865.875	21214
866.006	21074
866.137	21154
866.269	21146
866.4	21100
866.531	21047
866.662	20990
866.793	21074
866.924	20960
867.055	21119
867.186	21051
867.317	21005
867.448	21089
867.579	20975
867.71	20952
867.841	20952
867.972	21013
868.103	21089
868.233	21001
868.364	21096
868.495	21154
868.625	21363
868.756	21332
868.886	21226
869.017	21294
869.147	21454
869.278	21416
869.408	21378
869.539	21294
869.669	21515
869.799	21245
869.929	21469
870.06	21416
870.19	21686
870.32	21477
870.45	21583
870.58	21663
870.71	21789
870.84	21717
870.97	21671
871.1	21804
871.23	21857
871.36	21865
871.489	21903
871.619	21766
871.749	21816
871.879	21884
872.008	21888
872.138	21949
872.267	21903
872.397	21720
872.526	21732
872.656	21739
872.785	21778
872.915	21838
873.044	21941
873.173	21964
873.303	21949
873.432	21873
873.561	22029
873.69	21975
873.819	21945
873.948	21903
874.077	22040
874.206	21964
874.335	21823
874.464	22029
874.593	22196
874.722	22093
874.851	22287
874.979	22166
875.108	22196
875.237	22154
875.365	22112
875.494	22169
875.623	22261
875.751	22162
875.88	22139
876.008	22329
876.136	22344
876.265	22421
876.393	22611
876.521	22713
876.65	22618
876.778	22569
876.906	22379
877.034	22493
877.162	22440
877.29	22565
877.418	22523
877.546	22645
877.674	22588
877.802	22550
877.93	22481
878.058	22523
878.185	22371
878.313	22424
878.441	22489
878.568	22234
878.696	22577
878.824	22428
878.951	22596
879.079	22687
879.206	22843
879.333	22535
879.461	22580
879.588	22603
879.715	22744
879.842	22771
879.97	22679
880.097	22356
880.224	22265
880.351	22344
880.478	22242
880.605	22253
880.732	22314
880.859	22523
880.986	22314
881.112	22249
881.239	22162
881.366	22090
881.493	21922
881.619	21804
881.746	21934
881.872	21915
881.999	21926
882.125	21781
882.252	21960
882.378	21918
882.505	21998
882.631	21793
882.757	21694
882.883	21705
883.01	21675
883.136	21530
883.262	21348
883.388	21298
883.514	21542
883.64	21595
883.766	21515
883.892	21332
884.018	21355
884.143	21530
884.269	21572
884.395	21416
884.52	21222
884.646	21310
884.772	21154
884.897	21020
885.023	21233
885.148	21382
885.274	21294
885.399	21359
885.524	21222
885.65	21344
885.775	21154
885.9	21169
886.025	21443
886.15	21214
886.275	21119
886.4	21199
886.525	21142
886.65	21199
886.775	21077
886.9	21275
887.025	21393
887.149	21093
887.274	21047
887.399	20994
887.523	20914
887.648	20963
887.773	20864
887.897	21039
888.021	20998
888.146	21062
888.27	21100
888.395	21142
888.519	20929
888.643	20937
888.767	20998
888.891	20902
889.015	20887
889.139	20750
889.263	20773
889.387	20899
889.511	21077
889.635	20899
889.759	20796
889.883	20785
890.006	20769
890.13	20880
890.254	20670
890.377	20594
890.501	20629
890.624	20488
890.748	20454
890.871	20465
890.995	20309
891.118	20377
891.241	20336
891.364	20320
891.488	20568
891.611	20427
891.734	20351
891.857	20339
891.98	20427
892.103	20511
892.226	20355
892.349	20404
892.471	20172
892.594	20218
892.717	20248
892.839	20298
892.962	20252
893.085	20377
893.207	20271
893.33	20172
893.452	20103
893.575	20286
893.697	20309
893.819	20408
893.941	20377
894.064	20434
894.186	20134
894.308	20199
894.43	20332
894.552	20499
894.674	20434
894.796	20088
894.918	20298
895.04	20172
895.161	20374
895.283	20381
895.405	20180
895.526	20301
895.648	20309
895.769	20259
895.891	20256
896.012	20370
896.134	20286
896.255	20202
896.376	20271
896.498	20328
896.619	20309
896.74	20370
896.861	20263
896.982	20549
897.103	20686
897.224	20571
897.345	20507
897.466	20473
897.587	20480
897.708	20621
897.828	20602
897.949	20503
898.07	20362
898.19	20442
898.311	20530
898.431	20423
898.552	20518
898.672	20667
898.792	20583
898.913	20465
899.033	20366
899.153	20275
899.273	20153
899.393	20229
899.513	20214
899.633	20168
899.753	20339
899.873	20195
899.993	20210
900.113	20039
900.232	20199
900.352	20115
900.472	20088
900.591	19932
900.711	20142
900.83	19963
900.95	20073
901.069	20039
901.189	19887
901.308	19772
901.427	19575
901.546	19590
901.665	19590
901.784	19674
901.904	19563
902.023	19346
902.141	19148
902.26	19160
902.379	19179
902.498	19141
902.617	19141
902.735	19107
902.854	19065
902.973	19031
903.091	18608
903.21	18726
903.328	18635
903.446	18703
903.565	18540
903.683	18593
903.801	18414
903.919	18544
904.038	18506
904.156	18410
904.274	18445
904.392	18281
904.51	18372
904.627	18399
904.745	18308
904.863	18319
904.981	18136
905.098	18030
905.216	17935
905.334	18068
905.451	17863
905.569	18015
905.686	18041
905.803	17961
905.921	17760
906.038	17969
906.155	17771
906.272	17775
906.389	17733
906.506	17547
906.623	17551
906.74	17535
906.857	17292
906.974	17459
907.091	17604
907.208	17752
907.324	17638
907.441	17463
907.557	17376
907.674	17261
907.79	17174
907.907	17220
908.023	17337
908.139	17273
908.256	17193
908.372	17041
908.488	17098
908.604	17064
908.72	16991
908.836	17006
908.952	17003
909.068	16953
909.184	17018
909.3	17003
909.415	16972
909.531	16972
909.647	16729
909.762	16664
909.878	16637
909.993	16683
910.108	16645
910.224	16588
910.339	16672
910.454	16554
910.57	16561
910.685	16352
910.8	16603
910.915	16618
911.03	16527
911.145	16291
911.259	16310
911.374	16230
911.489	16215
911.604	16055
911.718	16090
911.833	16010
911.947	15945
912.062	15941
912.176	15998
912.291	16093
912.405	16048
912.519	16261
912.633	16158
912.748	16074
912.862	15930
912.976	15892
913.09	15770
913.204	15816
913.318	15861
913.431	15964
913.545	15804
913.659	15854
913.772	15766
913.886	15724
914	15549
914.113	15686
914.226	15789
914.34	15595
914.453	15530
914.566	15682
914.68	15519
914.793	15466
914.906	15386
915.019	15188
915.132	15104
915.245	15245
915.358	15222
915.47	15283
915.583	15192
915.696	15332
915.809	15367
915.921	15348
916.034	15184
916.146	15188
916.259	15161
916.371	15218
916.483	15184
916.595	15051
916.708	15047
916.82	14990
916.932	15036
917.044	14925
917.156	14971
917.268	14792
917.38	14906
917.491	14765
917.603	14895
917.715	14933
917.826	14872
917.938	14838
918.049	14697
918.161	14796
918.272	14941
918.384	14868
918.495	14785
918.606	14689
918.717	14587
918.828	14693
918.939	14648
919.05	14613
919.161	14689
919.272	14446
919.383	14560
919.494	14697
919.604	14887
919.715	14598
919.826	14495
919.936	14549
920.047	14693
920.157	14579
920.267	14758
920.378	14526
920.488	14526
920.598	14762
920.708	14819
920.818	14678
920.928	14731
921.038	14880
921.148	14811
921.258	14503
921.368	14499
921.477	14317
921.587	14282
921.697	14199
921.806	14389
921.916	14088
922.025	14039
922.134	13936
922.244	13967
922.353	13978
922.462	13890
922.571	13788
922.68	13643
922.789	13674
922.898	13597
923.007	13597
923.116	13731
923.224	13624
923.333	13575
923.442	13518
923.55	13422
923.659	13480
923.767	13567
923.876	13407
923.984	13506
924.092	13354
924.201	13324
924.309	13312
924.417	13434
924.525	13320
924.633	13255
924.741	14035
924.849	13145
924.956	13240
925.064	13145
925.172	13031
925.279	12970
925.387	13057
925.494	12973
925.602	13129
925.709	13042
925.816	12894
925.924	13004
926.031	13057
926.138	12924
926.245	13031
926.352	12939
926.459	12928
926.566	13023
926.673	12837
926.779	12795
926.886	12837
926.993	12604
927.099	12574
927.206	12563
927.312	12612
927.419	12525
927.525	12475
927.631	12544
927.737	12456
927.843	12399
927.95	12330
928.056	12372
928.162	12460
928.267	12532
928.373	13038
928.479	12372
928.585	12247
928.69	12300
928.796	12475
928.901	12266
929.007	12117
929.112	12289
929.218	12171
929.323	12159
929.428	12144
929.533	12228
929.638	11999
929.743	12098
929.848	12117
929.953	12163
930.058	11923
930.163	11836
930.267	11783
930.372	11965
930.477	11760
930.581	12057
930.685	11923
930.79	11737
930.894	11779
930.998	11703
931.103	11885
931.207	11406
931.311	11402
931.415	11349
931.519	11060
931.623	11064
