Data from test_V78500241_2538.txt Node
Date: Fri Mar 25 15:59:22 CST 2022
User: usil
Spectrometer: V785-0024
Trigger mode: 0
Integration Time (sec): 4.000000E-1
Scans to average: 1
Nonlinearity correction enabled: false
Boxcar width: 0
Storing dark spectrum: false
XAxis mode: Wavelengths
Number of Pixels in Spectrum: 1024
>>>>>Begin Spectral Data<<<<<
801.071	28409
801.214	28428
801.356	28253
801.499	28051
801.641	27972
801.783	28021
801.926	28116
802.068	28021
802.211	27793
802.353	27895
802.496	27595
802.638	27656
802.78	27652
802.923	27481
803.065	27515
803.208	27447
803.35	27549
803.492	27728
803.635	27797
803.777	27698
803.919	27918
804.061	28128
804.204	28086
804.346	27800
804.488	27835
804.63	27816
804.773	27759
804.915	27998
805.057	27827
805.199	27884
805.341	27937
805.483	28055
805.626	28032
805.768	27922
805.91	28173
806.052	28013
806.194	27937
806.336	28128
806.478	28112
806.62	28078
806.762	28287
806.904	28371
807.046	28497
807.188	28470
807.33	28531
807.472	28565
807.614	28261
807.756	28432
807.898	28485
808.04	28360
808.182	28147
808.324	28409
808.465	28481
808.607	28573
808.749	28786
808.891	28809
809.033	28946
809.174	28919
809.316	28691
809.458	28637
809.6	28729
809.741	28748
809.883	28809
810.025	28949
810.166	28904
810.308	28957
810.45	28873
810.591	28888
810.733	28694
810.875	28634
811.016	28603
811.158	28592
811.299	28740
811.441	28767
811.582	28831
811.724	28812
811.865	28554
812.007	28573
812.148	28664
812.29	28759
812.431	28763
812.573	29037
812.714	29166
812.855	29246
812.997	29220
813.138	29539
813.279	29417
813.421	29136
813.562	29174
813.703	29033
813.845	28831
813.986	28675
814.127	28592
814.268	28348
814.41	28493
814.551	28322
814.692	28527
814.833	28447
814.974	28485
815.115	28527
815.256	28261
815.397	28276
815.539	28268
815.68	28200
815.821	28166
815.962	28215
816.103	28192
816.244	28029
816.385	28044
816.526	27998
816.666	27892
816.807	27804
816.948	27778
817.089	27827
817.23	27800
817.371	27698
817.512	27576
817.653	27743
817.793	27633
817.934	27686
818.075	27648
818.216	27770
818.356	27679
818.497	27591
818.638	27469
818.778	27412
818.919	27412
819.06	27641
819.2	27572
819.341	27637
819.481	27614
819.622	27827
819.762	28055
819.903	27956
820.043	27838
820.184	27930
820.324	27857
820.465	27827
820.605	27781
820.746	27759
820.886	27774
821.026	27960
821.167	27724
821.307	27861
821.447	27823
821.588	27580
821.728	27504
821.868	27492
822.008	27112
822.149	27256
822.289	27195
822.429	26937
822.569	26956
822.709	26937
822.849	26758
822.99	26834
823.13	26708
823.27	26697
823.41	26594
823.55	26434
823.69	26571
823.83	26393
823.97	26526
824.11	26313
824.25	26358
824.389	26377
824.529	26438
824.669	26290
824.809	26442
824.949	26465
825.089	26465
825.228	26419
825.368	26271
825.508	26164
825.648	26256
825.787	26271
825.927	26221
826.067	26263
826.206	26305
826.346	26206
826.485	26385
826.625	26168
826.765	26309
826.904	26282
827.044	25947
827.183	26005
827.323	26001
827.462	25959
827.601	25860
827.741	25913
827.88	25890
828.02	25731
828.159	25856
828.298	26054
828.437	26016
828.577	25818
828.716	26073
828.855	25868
828.994	25620
829.134	25472
829.273	25662
829.412	25540
829.551	25567
829.69	25381
829.829	25689
829.968	25594
830.107	25712
830.246	25571
830.385	25594
830.524	25445
830.663	25415
830.802	25411
830.941	25255
831.08	25343
831.219	25316
831.357	25225
831.496	25460
831.635	25308
831.774	25240
831.913	25168
832.051	25031
832.19	24981
832.329	25050
832.467	24905
832.606	24749
832.744	24837
832.883	25031
833.022	24878
833.16	24901
833.299	24992
833.437	24878
833.576	24962
833.714	25008
833.852	24920
833.991	25012
834.129	25038
834.267	25012
834.406	24901
834.544	25114
834.682	24886
834.821	25042
834.959	25126
835.097	24913
835.235	25019
835.373	25031
835.511	24981
835.65	24802
835.788	24882
835.926	24764
836.064	24570
836.202	24692
836.34	24939
836.478	24802
836.615	24837
836.753	24700
836.891	24810
837.029	24806
837.167	24719
837.305	24650
837.443	24661
837.58	24570
837.718	24658
837.856	24688
837.993	24623
838.131	24692
838.269	24429
838.406	24494
838.544	24418
838.681	24330
838.819	24239
838.956	24057
839.094	24049
839.231	24235
839.369	24270
839.506	24483
839.643	24174
839.781	24072
839.918	24057
840.055	23893
840.193	23969
840.33	24072
840.467	24079
840.604	24201
840.742	24243
840.879	23939
841.016	23813
841.153	23832
841.29	23912
841.427	24117
841.564	24053
841.701	23889
841.838	23977
841.975	23954
842.112	23722
842.249	23878
842.385	23581
842.522	23908
842.659	23790
842.796	23649
842.933	23836
843.069	23638
843.206	23737
843.343	23824
843.479	23836
843.616	23665
843.752	23509
843.889	23619
844.025	23661
844.162	23482
844.298	23611
844.435	23501
844.571	23566
844.708	23554
844.844	23767
844.98	23638
845.117	23703
845.253	23440
845.389	23345
845.525	23512
845.661	23364
845.798	23246
845.934	23273
846.07	23334
846.206	23311
846.342	23220
846.478	23261
846.614	23117
846.75	22911
846.886	22873
847.022	23109
847.158	22957
847.294	22987
847.429	23022
847.565	22896
847.701	23155
847.837	22812
847.972	22577
848.108	22755
848.244	22687
848.379	22645
848.515	22481
848.65	22542
848.786	22573
848.921	22535
849.057	22843
849.192	22577
849.328	22497
849.463	22577
849.598	22489
849.734	22500
849.869	22417
850.004	22280
850.14	22363
850.275	22390
850.41	22268
850.545	22268
850.68	22306
850.815	22363
850.95	22310
851.085	22459
851.22	22367
851.355	22455
851.49	22375
851.625	22314
851.76	22344
851.895	22249
852.03	22249
852.165	22405
852.299	22390
852.434	22478
852.569	22405
852.703	22348
852.838	22447
852.973	22478
853.107	22462
853.242	22192
853.376	22200
853.511	22032
853.645	22211
853.78	22242
853.914	22150
854.048	22074
854.183	22112
854.317	22188
854.451	22375
854.585	22177
854.72	22131
854.854	22188
854.988	22070
855.122	22101
855.256	22044
855.39	22185
855.524	22257
855.658	22173
855.792	22314
855.926	22150
856.06	22173
856.194	22128
856.327	22169
856.461	22051
856.595	22029
856.729	22192
856.862	22333
856.996	22234
857.13	22135
857.263	22143
857.397	22230
857.53	22135
857.664	22128
857.797	22249
857.931	22261
858.064	22188
858.197	22303
858.331	22044
858.464	22128
858.597	22112
858.731	22154
858.864	22162
858.997	22074
859.13	22211
859.263	22249
859.396	22238
859.529	22070
859.662	22143
859.795	22147
859.928	22116
860.061	22234
860.194	22363
860.327	22230
860.46	22078
860.592	22367
860.725	22379
860.858	22173
860.99	22200
861.123	22120
861.256	22147
861.388	22070
861.521	22793
861.653	21922
861.786	21937
861.918	22021
862.05	22082
862.183	21983
862.315	22055
862.447	22200
862.58	22097
862.712	21907
862.844	21762
862.976	21941
863.108	21854
863.24	22196
863.372	21728
863.504	21911
863.636	21915
863.768	21911
863.9	21884
864.032	21876
864.164	21827
864.296	21842
864.428	21918
864.559	22010
864.691	21956
864.823	21797
864.954	21827
865.086	21816
865.217	21785
865.349	21675
865.48	21671
865.612	21675
865.743	21888
865.875	21800
866.006	21667
866.137	21785
866.269	21633
866.4	21778
866.531	21690
866.662	21648
866.793	21709
866.924	21732
867.055	21720
867.186	21743
867.317	21622
867.448	21656
867.579	21743
867.71	21610
867.841	21629
867.972	21747
868.103	21717
868.233	21701
868.364	21713
868.495	21819
868.625	21934
868.756	21922
868.886	21759
869.017	21880
869.147	22029
869.278	22044
869.408	21937
869.539	22013
869.669	22093
869.799	21918
869.929	22109
870.06	22090
870.19	22143
870.32	22215
870.45	22226
870.58	22284
870.71	22470
870.84	22360
870.97	22219
871.1	22310
871.23	22409
871.36	22470
871.489	22413
871.619	22451
871.749	22481
871.879	22584
872.008	22531
872.138	22588
872.267	22485
872.397	22424
872.526	22284
872.656	22299
872.785	22291
872.915	22538
873.044	22645
873.173	22538
873.303	22607
873.432	22637
873.561	22622
873.69	22573
873.819	22493
873.948	22596
874.077	22402
874.206	22459
874.335	22512
874.464	22698
874.593	22793
874.722	22786
874.851	22668
874.979	22839
875.108	22850
875.237	22596
875.365	22653
875.494	22755
875.623	22729
875.751	22706
875.88	22744
876.008	22793
876.136	22987
876.265	23242
876.393	23261
876.521	23227
876.65	23231
876.778	23132
876.906	23109
877.034	23006
877.162	23140
877.29	23029
877.418	23086
877.546	23185
877.674	23067
877.802	23113
877.93	23147
878.058	23025
878.185	22995
878.313	23067
878.441	23121
878.568	22892
878.696	23025
878.824	23105
878.951	23200
879.079	23242
879.206	23303
879.333	23303
879.461	23067
879.588	23261
879.715	23326
879.842	23277
879.97	23105
880.097	22976
880.224	22801
880.351	23025
880.478	22953
880.605	22904
880.732	22949
880.859	23212
880.986	22965
881.112	22900
881.239	22885
881.366	22698
881.493	22584
881.619	22519
881.746	22542
881.872	22497
881.999	22470
882.125	22371
882.252	22508
882.378	22440
882.505	22584
882.631	22344
882.757	22131
882.883	22310
883.01	22253
883.136	22093
883.262	22013
883.388	21873
883.514	22147
883.64	22207
883.766	22055
883.892	21983
884.018	22097
884.143	22101
884.269	22162
884.395	21778
884.52	21865
884.646	21892
884.772	21755
884.897	21747
885.023	21812
885.148	21857
885.274	22013
885.399	21895
885.524	21804
885.65	21789
885.775	21937
885.9	21739
886.025	21869
886.15	21838
886.275	21762
886.4	21572
886.525	21895
886.65	21675
886.775	21717
886.9	21846
887.025	22078
887.149	21724
887.274	21595
887.399	21667
887.523	21553
887.648	21454
887.773	21466
887.897	21648
888.021	21625
888.146	21572
888.27	21595
888.395	21580
888.519	21606
888.643	21648
888.767	21530
888.891	21405
889.015	21367
889.139	21534
889.263	21260
889.387	21321
889.511	21481
889.635	21488
889.759	21264
889.883	21435
890.006	21393
890.13	21389
890.254	21287
890.377	21256
890.501	21131
890.624	21104
890.748	21135
890.871	21116
890.995	20887
891.118	20883
891.241	21001
891.364	20883
891.488	21047
891.611	20948
891.734	20941
891.857	20952
891.98	20971
892.103	20906
892.226	20910
892.349	20804
892.471	20697
892.594	20743
892.717	20876
892.839	20842
892.962	20819
893.085	20986
893.207	20674
893.33	20746
893.452	20701
893.575	20746
893.697	20769
893.819	20826
893.941	20963
894.064	20933
894.186	20731
894.308	20705
894.43	20872
894.552	20990
894.674	20838
894.796	20674
894.918	20781
895.04	20811
895.161	20845
895.283	20937
895.405	20651
895.526	20697
895.648	20773
895.769	20876
895.891	20819
896.012	20910
896.134	20849
896.255	20864
896.376	20705
896.498	20727
896.619	20724
896.74	20762
896.861	20769
896.982	21165
897.103	21207
897.224	21176
897.345	21028
897.466	20967
897.587	21108
897.708	21028
897.828	20990
897.949	21001
898.07	20746
898.19	20971
898.311	21157
898.431	20891
898.552	20963
898.672	21017
898.792	21138
898.913	21066
899.033	20868
899.153	20826
899.273	20716
899.393	20796
899.513	20804
899.633	20750
899.753	20735
899.873	20583
899.993	20792
900.113	20663
900.232	20693
900.352	20632
900.472	20396
900.591	20480
900.711	20560
900.83	20476
900.95	20689
901.069	20473
901.189	20442
901.308	20164
901.427	20119
901.546	20027
901.665	20069
901.784	20008
901.904	19955
902.023	19795
902.141	19689
902.26	19674
902.379	19712
902.498	19533
902.617	19613
902.735	19696
902.854	19563
902.973	19575
903.091	19202
903.21	19217
903.328	19285
903.446	19122
903.565	19076
903.683	19057
903.801	18871
903.919	19012
904.038	18958
904.156	18814
904.274	18882
904.392	18768
904.51	18795
904.627	18719
904.745	18844
904.863	18745
904.981	18673
905.098	18483
905.216	18509
905.334	18540
905.451	18380
905.569	18369
905.686	18452
905.803	18376
905.921	18319
906.038	18338
906.155	18429
906.272	18136
906.389	18159
906.506	18049
906.623	18003
906.74	18030
906.857	17870
906.974	17908
907.091	18167
907.208	18125
907.324	17969
907.441	17920
907.557	17779
907.674	17764
907.79	17665
907.907	17619
908.023	17729
908.139	17680
908.256	17630
908.372	17539
908.488	17436
908.604	17406
908.72	17433
908.836	17433
908.952	17383
909.068	17505
909.184	17554
909.3	17383
909.415	17501
909.531	17452
909.647	17159
909.762	17193
909.878	17083
909.993	17132
910.108	17033
910.224	17086
910.339	17083
910.454	16995
910.57	17067
910.685	16854
910.8	17265
910.915	17250
911.03	16968
911.145	16778
911.259	16626
911.374	16774
911.489	16565
911.604	16531
911.718	16386
911.833	16417
911.947	16363
912.062	16253
912.176	16440
912.291	16497
912.405	16363
912.519	16546
912.633	16565
912.748	16538
912.862	16382
912.976	16276
913.09	16188
913.204	16135
913.318	16200
913.431	16306
913.545	16333
913.659	16337
913.772	16158
913.886	16101
914	16044
914.113	16116
914.226	16188
914.34	16181
914.453	15968
914.566	16071
914.68	15930
914.793	15876
914.906	15709
915.019	15755
915.132	15564
915.245	15580
915.358	15736
915.47	15568
915.583	15637
915.696	15603
915.809	15694
915.921	15755
916.034	15625
916.146	15481
916.259	15606
916.371	15595
916.483	15561
916.595	15519
916.708	15530
916.82	15397
916.932	15485
917.044	15504
917.156	15500
917.268	15298
917.38	15306
917.491	15340
917.603	15260
917.715	15348
917.826	15344
917.938	15294
918.049	15222
918.161	15348
918.272	15412
918.384	15355
918.495	15260
918.606	15036
918.717	14975
918.828	15055
918.939	15074
919.05	14944
919.161	15077
919.272	14861
919.383	14804
919.494	15024
919.604	15344
919.715	15001
919.826	15055
919.936	15070
920.047	15138
920.157	15089
920.267	15214
920.378	15001
920.488	15009
920.598	15233
920.708	15378
920.818	15127
920.928	15138
921.038	15233
921.148	15252
921.258	14960
921.368	14910
921.477	14838
921.587	14811
921.697	14625
921.806	14716
921.916	14636
922.025	14457
922.134	14415
922.244	14358
922.353	14431
922.462	14336
922.571	14149
922.68	14084
922.789	14081
922.898	14126
923.007	14046
923.116	14088
923.224	13902
923.333	13997
923.442	13925
923.55	13799
923.659	13833
923.767	14016
923.876	13712
923.984	13879
924.092	13715
924.201	13723
924.309	13704
924.417	13696
924.525	13651
924.633	13704
924.741	14473
924.849	13521
924.956	13578
925.064	13422
925.172	13453
925.279	13499
925.387	13552
925.494	13441
925.602	13529
925.709	13468
925.816	13289
925.924	13373
926.031	13457
926.138	13358
926.245	13358
926.352	13236
926.459	13331
926.566	13392
926.673	13282
926.779	13145
926.886	13190
926.993	12996
927.099	13031
927.206	12890
927.312	13012
927.419	12996
927.525	12909
927.631	12977
927.737	12856
927.843	12837
927.95	12623
928.056	12772
928.162	12719
928.267	12844
928.373	13464
928.479	12852
928.585	12631
928.69	12715
928.796	12764
928.901	12627
929.007	12528
929.112	12608
929.218	12593
929.323	12555
929.428	12456
929.533	12559
929.638	12426
929.743	12418
929.848	12483
929.953	12464
930.058	12350
930.163	12205
930.267	12171
930.372	12296
930.477	12121
930.581	12391
930.685	12136
930.79	12068
930.894	12068
930.998	11958
931.103	12129
931.207	11878
931.311	11691
931.415	11604
931.519	11448
931.623	11395
