Data from test_V78500241_768.txt Node
Date: Fri Mar 25 15:47:07 CST 2022
User: usil
Spectrometer: V785-0024
Trigger mode: 0
Integration Time (sec): 4.000000E-1
Scans to average: 1
Nonlinearity correction enabled: false
Boxcar width: 0
Storing dark spectrum: false
XAxis mode: Wavelengths
Number of Pixels in Spectrum: 1024
>>>>>Begin Spectral Data<<<<<
801.071	28010
801.214	27945
801.356	27724
801.499	27751
801.641	27580
801.783	27595
801.926	27755
802.068	27625
802.211	27519
802.353	27500
802.496	27192
802.638	27287
802.78	27241
802.923	27207
803.065	27199
803.208	27150
803.35	27249
803.492	27222
803.635	27340
803.777	27450
803.919	27344
804.061	27618
804.204	27237
804.346	27237
804.488	27188
804.63	27473
804.773	27374
804.915	27454
805.057	27618
805.199	27462
805.341	27614
805.483	27466
805.626	27439
805.768	27427
805.91	27492
806.052	27561
806.194	27507
806.336	27835
806.478	27682
806.62	27637
806.762	27755
806.904	27918
807.046	28147
807.188	28093
807.33	28070
807.472	27968
807.614	27983
807.756	28120
807.898	27781
808.04	27907
808.182	27869
808.324	27770
808.465	27914
808.607	28067
808.749	28116
808.891	28329
809.033	28360
809.174	28451
809.316	28268
809.458	28188
809.6	28226
809.741	28421
809.883	28447
810.025	28554
810.166	28474
810.308	28516
810.45	28196
810.591	28375
810.733	28204
810.875	28181
811.016	28192
811.158	28131
811.299	28409
811.441	28432
811.582	28500
811.724	28215
811.865	28253
812.007	28116
812.148	28226
812.29	28276
812.431	28348
812.573	28546
812.714	28653
812.855	28729
812.997	28843
813.138	28968
813.279	28858
813.421	28759
813.562	28694
813.703	28653
813.845	28405
813.986	28268
814.127	27975
814.268	27922
814.41	27968
814.551	27793
814.692	28051
814.833	27804
814.974	27816
815.115	27945
815.256	27667
815.397	27675
815.539	27812
815.68	27698
815.821	27618
815.962	27747
816.103	27641
816.244	27663
816.385	27534
816.526	27469
816.666	27294
816.807	27192
816.948	27310
817.089	27412
817.23	27226
817.371	27195
817.512	27138
817.653	27146
817.793	27287
817.934	27279
818.075	27131
818.216	27272
818.356	27173
818.497	27093
818.638	26918
818.778	27051
818.919	27013
819.06	26982
819.2	27093
819.341	27218
819.481	27211
819.622	27336
819.762	27431
819.903	27435
820.043	27332
820.184	27287
820.324	27367
820.465	27389
820.605	27291
820.746	27332
820.886	27169
821.026	27188
821.167	27184
821.307	27367
821.447	27249
821.588	27036
821.728	27112
821.868	26876
822.008	26667
822.149	26807
822.289	26693
822.429	26415
822.569	26438
822.709	26427
822.849	26278
822.99	26138
823.13	26161
823.27	26100
823.41	26054
823.55	25936
823.69	26088
823.83	25997
823.97	26008
824.11	25719
824.25	25822
824.389	25909
824.529	25833
824.669	25944
824.809	25909
824.949	25852
825.089	25864
825.228	25890
825.368	25738
825.508	25689
825.648	25723
825.787	25750
825.927	25845
826.067	25529
826.206	25658
826.346	25890
826.485	25757
826.625	25693
826.765	25986
826.904	25731
827.044	25514
827.183	25544
827.323	25499
827.462	25411
827.601	25441
827.741	25369
827.88	25445
828.02	25259
828.159	25320
828.298	25403
828.437	25518
828.577	25476
828.716	25628
828.855	25274
828.994	25141
829.134	25202
829.273	25088
829.412	25141
829.551	25080
829.69	25156
829.829	25126
829.968	25209
830.107	25183
830.246	25110
830.385	25145
830.524	24924
830.663	24894
830.802	24768
830.941	24642
831.08	24673
831.219	24749
831.357	24825
831.496	24954
831.635	24658
831.774	24650
831.913	24593
832.051	24604
832.19	24582
832.329	24563
832.467	24445
832.606	24422
832.744	24391
832.883	24547
833.022	24308
833.16	24460
833.299	24483
833.437	24452
833.576	24544
833.714	24384
833.852	24403
833.991	24544
834.129	24582
834.267	24502
834.406	24391
834.544	24513
834.682	24585
834.821	24296
834.959	24547
835.097	24433
835.235	24486
835.373	24407
835.511	24456
835.65	24262
835.788	24327
835.926	24201
836.064	24060
836.202	24133
836.34	24300
836.478	24281
836.615	24239
836.753	24213
836.891	24330
837.029	24399
837.167	24285
837.305	24190
837.443	24178
837.58	24159
837.718	24190
837.856	24079
837.993	24053
838.131	24197
838.269	23882
838.406	24003
838.544	24038
838.681	23916
838.819	23775
838.956	23619
839.094	23524
839.231	23665
839.369	23794
839.506	24026
839.643	23836
839.781	23676
839.918	23524
840.055	23520
840.193	23600
840.33	23516
840.467	23566
840.604	23611
840.742	23828
840.879	23349
841.016	23425
841.153	23452
841.29	23551
841.427	23554
841.564	23562
841.701	23562
841.838	23383
841.975	23326
842.112	23444
842.249	23261
842.385	23387
842.522	23463
842.659	23452
842.796	23330
842.933	23258
843.069	23277
843.206	23250
843.343	23315
843.479	23261
843.616	23239
843.752	23075
843.889	23041
844.025	23254
844.162	22953
844.298	23159
844.435	22949
844.571	23083
844.708	23151
844.844	23299
844.98	23124
845.117	23147
845.253	22946
845.389	22869
845.525	22866
845.661	22885
845.798	22835
845.934	22790
846.07	22873
846.206	22733
846.342	22942
846.478	22759
846.614	22592
846.75	22485
846.886	22424
847.022	22580
847.158	22527
847.294	22588
847.429	22557
847.565	22478
847.701	22645
847.837	22238
847.972	22162
848.108	22341
848.244	22276
848.379	22162
848.515	22086
848.65	22048
848.786	22067
848.921	22120
849.057	22120
849.192	22200
849.328	22154
849.463	22166
849.598	21960
849.734	21994
849.869	21922
850.004	21888
850.14	21854
850.275	21937
850.41	21720
850.545	21934
850.68	21774
850.815	21922
850.95	21838
851.085	21903
851.22	22017
851.355	21816
851.49	21892
851.625	21876
851.76	21797
851.895	21694
852.03	21850
852.165	21922
852.299	21915
852.434	21937
852.569	21850
852.703	21770
852.838	21850
852.973	21899
853.107	21983
853.242	21816
853.376	21629
853.511	21686
853.645	21656
853.78	21804
853.914	21743
854.048	21580
854.183	21732
854.317	21732
854.451	21842
854.585	21652
854.72	21671
854.854	21850
854.988	21583
855.122	21587
855.256	21648
855.39	21618
855.524	21713
855.658	21705
855.792	21686
855.926	21812
856.06	21728
856.194	21739
856.327	21549
856.461	21637
856.595	21603
856.729	21679
856.862	21720
856.996	21728
857.13	21895
857.263	21880
857.397	21781
857.53	21644
857.664	21759
857.797	21804
857.931	21736
858.064	21766
858.197	21850
858.331	21580
858.464	21660
858.597	21618
858.731	21698
858.864	21660
858.997	21625
859.13	21557
859.263	21705
859.396	21770
859.529	21561
859.662	21599
859.795	21686
859.928	21686
860.061	21629
860.194	21880
860.327	21736
860.46	21682
860.592	21720
860.725	21884
860.858	21930
860.99	21663
861.123	21599
861.256	21633
861.388	21686
861.521	22310
861.653	21568
861.786	21435
861.918	21462
862.05	21580
862.183	21648
862.315	21648
862.447	21660
862.58	21610
862.712	21405
862.844	21374
862.976	21606
863.108	21477
863.24	21774
863.372	21401
863.504	21298
863.636	21367
863.768	21412
863.9	21344
864.032	21389
864.164	21287
864.296	21370
864.428	21302
864.559	21507
864.691	21481
864.823	21447
864.954	21382
865.086	21382
865.217	21488
865.349	21256
865.48	21306
865.612	21272
865.743	21294
865.875	21268
866.006	21264
866.137	21283
866.269	21336
866.4	21264
866.531	21252
866.662	21203
866.793	21150
866.924	21226
867.055	21264
867.186	21222
867.317	21173
867.448	21096
867.579	21127
867.71	21093
867.841	21169
867.972	21135
868.103	21161
868.233	21192
868.364	21249
868.495	21245
868.625	21511
868.756	21580
868.886	21397
869.017	21408
869.147	21545
869.278	21641
869.408	21576
869.539	21336
869.669	21580
869.799	21466
869.929	21591
870.06	21580
870.19	21831
870.32	21770
870.45	21755
870.58	21785
870.71	21964
870.84	21953
870.97	21816
871.1	21781
871.23	21991
871.36	22021
871.489	22017
871.619	21987
871.749	22013
871.879	22128
872.008	22109
872.138	21907
872.267	21998
872.397	21991
872.526	21911
872.656	21854
872.785	21907
872.915	22128
873.044	22067
873.173	22105
873.303	22063
873.432	22078
873.561	22078
873.69	21987
873.819	22120
873.948	22109
874.077	22093
874.206	22090
874.335	22143
874.464	22291
874.593	22265
874.722	22253
874.851	22421
874.979	22295
875.108	22409
875.237	22356
875.365	22048
875.494	22196
875.623	22268
875.751	22215
875.88	22405
876.008	22402
876.136	22428
876.265	22717
876.393	22763
876.521	22820
876.65	22725
876.778	22702
876.906	22649
877.034	22557
877.162	22504
877.29	22626
877.418	22615
877.546	22565
877.674	22565
877.802	22694
877.93	22664
878.058	22660
878.185	22470
878.313	22573
878.441	22641
878.568	22440
878.696	22599
878.824	22664
878.951	22557
879.079	22809
879.206	22934
879.333	22805
879.461	22755
879.588	22809
879.715	22672
879.842	22850
879.97	22653
880.097	22508
880.224	22360
880.351	22512
880.478	22451
880.605	22390
880.732	22512
880.859	22694
880.986	22478
881.112	22550
881.239	22398
881.366	22147
881.493	22128
881.619	22067
881.746	22002
881.872	21964
881.999	22109
882.125	22017
882.252	22124
882.378	22116
882.505	22109
882.631	21800
882.757	21762
882.883	21728
883.01	21785
883.136	21747
883.262	21603
883.388	21481
883.514	21793
883.64	21804
883.766	21572
883.892	21557
884.018	21549
884.143	21603
884.269	21709
884.395	21507
884.52	21370
884.646	21344
884.772	21329
884.897	21268
885.023	21321
885.148	21401
885.274	21534
885.399	21367
885.524	21462
885.65	21325
885.775	21344
885.9	21382
886.025	21443
886.15	21435
886.275	21313
886.4	21336
886.525	21226
886.65	21325
886.775	21188
886.9	21473
887.025	21610
887.149	21233
887.274	21169
887.399	21112
887.523	21138
887.648	21207
887.773	21043
887.897	21112
888.021	21093
888.146	21104
888.27	21146
888.395	21199
888.519	21096
888.643	21165
888.767	21241
888.891	20979
889.015	20944
889.139	21116
889.263	20941
889.387	21013
889.511	21207
889.635	21032
889.759	20902
889.883	21001
890.006	20902
890.13	21028
890.254	20823
890.377	20777
890.501	20640
890.624	20514
890.748	20739
890.871	20469
890.995	20526
891.118	20484
891.241	20461
891.364	20495
891.488	20689
891.611	20530
891.734	20404
891.857	20727
891.98	20598
892.103	20598
892.226	20442
892.349	20549
892.471	20389
892.594	20309
892.717	20374
892.839	20358
892.962	20366
893.085	20499
893.207	20332
893.33	20275
893.452	20366
893.575	20450
893.697	20351
893.819	20461
893.941	20587
894.064	20454
894.186	20259
894.308	20301
894.43	20469
894.552	20503
894.674	20465
894.796	20282
894.918	20317
895.04	20313
895.161	20442
895.283	20457
895.405	20328
895.526	20393
895.648	20237
895.769	20286
895.891	20533
896.012	20488
896.134	20400
896.255	20400
896.376	20358
896.498	20290
896.619	20431
896.74	20381
896.861	20328
896.982	20670
897.103	20804
897.224	20686
897.345	20636
897.466	20564
897.587	20602
897.708	20693
897.828	20606
897.949	20587
898.07	20377
898.19	20629
898.311	20651
898.431	20541
898.552	20625
898.672	20609
898.792	20655
898.913	20549
899.033	20404
899.153	20385
899.273	20320
899.393	20298
899.513	20503
899.633	20385
899.753	20404
899.873	20202
899.993	20320
900.113	20305
900.232	20332
900.352	20301
900.472	20084
900.591	20065
900.711	20027
900.83	20008
900.95	20183
901.069	20252
901.189	20050
901.308	19818
901.427	19628
901.546	19712
901.665	19719
901.784	19742
901.904	19597
902.023	19502
902.141	19240
902.26	19346
902.379	19430
902.498	19316
902.617	19225
902.735	19244
902.854	19122
902.973	19141
903.091	18890
903.21	18886
903.328	18958
903.446	18783
903.565	18768
903.683	18817
903.801	18620
903.919	18597
904.038	18608
904.156	18456
904.274	18658
904.392	18380
904.51	18422
904.627	18418
904.745	18585
904.863	18475
904.981	18315
905.098	18148
905.216	18038
905.334	18190
905.451	18152
905.569	18125
905.686	18190
905.803	18144
905.921	17965
906.038	17973
906.155	17878
906.272	17813
906.389	17707
906.506	17630
906.623	17642
906.74	17615
906.857	17653
906.974	17630
907.091	17642
907.208	17722
907.324	17638
907.441	17543
907.557	17349
907.674	17318
907.79	17273
907.907	17356
908.023	17395
908.139	17288
908.256	17212
908.372	17235
908.488	17220
908.604	17208
908.72	16991
908.836	17083
908.952	17003
909.068	17185
909.184	17117
909.3	16984
909.415	17124
909.531	17003
909.647	16885
909.762	16923
909.878	16839
909.993	16919
910.108	16820
910.224	16755
910.339	16767
910.454	16645
910.57	16588
910.685	16565
910.8	16793
910.915	16649
911.03	16634
911.145	16489
911.259	16398
911.374	16386
911.489	16200
911.604	16246
911.718	16158
911.833	16071
911.947	16025
912.062	15964
912.176	16135
912.291	16188
912.405	16188
912.519	16462
912.633	16352
912.748	16048
912.862	16082
912.976	15888
913.09	15846
913.204	15888
913.318	15949
913.431	15960
913.545	15975
913.659	16002
913.772	15991
913.886	15694
914	15644
914.113	15762
914.226	15869
914.34	15797
914.453	15557
914.566	15694
914.68	15523
914.793	15595
914.906	15382
915.019	15351
915.132	15230
915.245	15294
915.358	15306
915.47	15378
915.583	15268
915.696	15283
915.809	15481
915.921	15367
916.034	15207
916.146	15131
916.259	15203
916.371	15218
916.483	15192
916.595	15268
916.708	15100
916.82	15192
916.932	15188
917.044	15131
917.156	15180
917.268	14944
917.38	15001
917.491	15058
917.603	15013
917.715	15135
917.826	15081
917.938	14868
918.049	14895
918.161	14887
918.272	15108
918.384	14963
918.495	14918
918.606	14716
918.717	14617
918.828	14845
918.939	14720
919.05	14724
919.161	14724
919.272	14518
919.383	14564
919.494	14724
919.604	14899
919.715	14708
919.826	14606
919.936	14739
920.047	14735
920.157	14693
920.267	14891
920.378	14720
920.488	14758
920.598	14906
920.708	15074
920.818	14765
920.928	14876
921.038	14891
921.148	14914
921.258	14636
921.368	14571
921.477	14442
921.587	14396
921.697	14358
921.806	14328
921.916	14229
922.025	14134
922.134	14012
922.244	14054
922.353	14081
922.462	14008
922.571	13936
922.68	13765
922.789	13742
922.898	13746
923.007	13605
923.116	13750
923.224	13651
923.333	13613
923.442	13590
923.55	13457
923.659	13533
923.767	13525
923.876	13445
923.984	13533
924.092	13426
924.201	13400
924.309	13392
924.417	13422
924.525	13373
924.633	13369
924.741	14317
924.849	13209
924.956	13308
925.064	13209
925.172	13171
925.279	13080
925.387	13103
925.494	13133
925.602	13213
925.709	13228
925.816	12932
925.924	13053
926.031	13137
926.138	13088
926.245	13072
926.352	12970
926.459	12981
926.566	13050
926.673	13012
926.779	12871
926.886	12867
926.993	12703
927.099	12608
927.206	12623
927.312	12646
927.419	12726
927.525	12658
927.631	12730
927.737	12604
927.843	12566
927.95	12357
928.056	12475
928.162	12555
928.267	12604
928.373	13103
928.479	12646
928.585	12346
928.69	12289
928.796	12475
928.901	12308
929.007	12254
929.112	12391
929.218	12243
929.323	12186
929.428	12243
929.533	12342
929.638	12140
929.743	12155
929.848	12144
929.953	12167
930.058	12041
930.163	11946
930.267	11935
930.372	12106
930.477	11988
930.581	12133
930.685	11916
930.79	11764
930.894	11828
930.998	11752
931.103	11863
931.207	11566
931.311	11452
931.415	11444
931.519	11277
931.623	11181
