Data from test_V78500241_3491.txt Node
Date: Fri Mar 25 16:05:59 CST 2022
User: usil
Spectrometer: V785-0024
Trigger mode: 0
Integration Time (sec): 4.000000E-1
Scans to average: 1
Nonlinearity correction enabled: false
Boxcar width: 0
Storing dark spectrum: false
XAxis mode: Wavelengths
Number of Pixels in Spectrum: 1024
>>>>>Begin Spectral Data<<<<<
801.071	28980
801.214	28953
801.356	28774
801.499	28622
801.641	28493
801.783	28516
801.926	28588
802.068	28618
802.211	28451
802.353	28379
802.496	28352
802.638	28242
802.78	28306
802.923	28070
803.065	28109
803.208	28128
803.35	28371
803.492	28413
803.635	28367
803.777	28363
803.919	28379
804.061	28767
804.204	28527
804.346	28375
804.488	28386
804.63	28493
804.773	28459
804.915	28611
805.057	28588
805.199	28599
805.341	28759
805.483	28733
805.626	28474
805.768	28485
805.91	28748
806.052	28767
806.194	28596
806.336	28820
806.478	28660
806.62	28786
806.762	28839
806.904	28862
807.046	29277
807.188	29044
807.33	29022
807.472	29341
807.614	29094
807.756	29113
807.898	29018
808.04	28949
808.182	28892
808.324	29136
808.465	29155
808.607	29231
808.749	29398
808.891	29452
809.033	29490
809.174	29425
809.316	29436
809.458	29311
809.6	29189
809.741	29436
809.883	29573
810.025	29703
810.166	29608
810.308	29570
810.45	29585
810.591	29490
810.733	29524
810.875	29417
811.016	29417
811.158	29200
811.299	29421
811.441	29611
811.582	29539
811.724	29611
811.865	29296
812.007	29497
812.148	29421
812.29	29482
812.431	29600
812.573	29828
812.714	29923
812.855	29923
812.997	29961
813.138	30167
813.279	29984
813.421	30079
813.562	29847
813.703	29847
813.845	29596
813.986	29467
814.127	29162
814.268	29071
814.41	29159
814.551	29185
814.692	29197
814.833	29151
814.974	29075
815.115	29181
815.256	28980
815.397	28999
815.539	28984
815.68	28885
815.821	28831
815.962	28904
816.103	29143
816.244	28710
816.385	28759
816.526	28771
816.666	28451
816.807	28394
816.948	28493
817.089	28615
817.23	28341
817.371	28546
817.512	28485
817.653	28531
817.793	28683
817.934	28500
818.075	28417
818.216	28401
818.356	28485
818.497	28287
818.638	28226
818.778	28181
818.919	28185
819.06	28257
819.2	28443
819.341	28466
819.481	28421
819.622	28649
819.762	28866
819.903	28717
820.043	28645
820.184	28634
820.324	28592
820.465	28618
820.605	28706
820.746	28535
820.886	28459
821.026	28527
821.167	28447
821.307	28706
821.447	28478
821.588	28390
821.728	28287
821.868	28078
822.008	27956
822.149	27934
822.289	27975
822.429	27720
822.569	27770
822.709	27603
822.849	27389
822.99	27492
823.13	27424
823.27	27458
823.41	27272
823.55	27230
823.69	27329
823.83	27336
823.97	27336
824.11	27066
824.25	27093
824.389	27074
824.529	27165
824.669	26990
824.809	27146
824.949	27211
825.089	27028
825.228	27218
825.368	26902
825.508	27043
825.648	27001
825.787	26918
825.927	27112
826.067	26918
826.206	26899
826.346	27093
826.485	27032
826.625	26910
826.765	27070
826.904	27005
827.044	26883
827.183	26857
827.323	26727
827.462	26963
827.601	26727
827.741	26625
827.88	26746
828.02	26644
828.159	26568
828.298	26632
828.437	26834
828.577	26682
828.716	26838
828.855	26579
828.994	26465
829.134	26408
829.273	26412
829.412	26461
829.551	26309
829.69	26415
829.829	26343
829.968	26495
830.107	26434
830.246	26347
830.385	26332
830.524	26233
830.663	26248
830.802	26088
830.941	25944
831.08	26027
831.219	25997
831.357	26149
831.496	26111
831.635	25986
831.774	25978
831.913	25883
832.051	25795
832.19	25658
832.329	25704
832.467	25655
832.606	25620
832.744	25624
832.883	25578
833.022	25772
833.16	25616
833.299	25681
833.437	25677
833.576	25704
833.714	25647
833.852	25818
833.991	25742
834.129	25849
834.267	25799
834.406	25689
834.544	25605
834.682	25849
834.821	25731
834.959	25925
835.097	25670
835.235	25700
835.373	25715
835.511	25715
835.65	25502
835.788	25616
835.926	25400
836.064	25403
836.202	25540
836.34	25514
836.478	25628
836.615	25559
836.753	25464
836.891	25479
837.029	25639
837.167	25613
837.305	25487
837.443	25597
837.58	25346
837.718	25479
837.856	25308
837.993	25324
838.131	25289
838.269	25126
838.406	25282
838.544	25118
838.681	24901
838.819	25095
838.956	24897
839.094	24802
839.231	24992
839.369	25076
839.506	25206
839.643	25050
839.781	24856
839.918	24783
840.055	24787
840.193	24772
840.33	24719
840.467	24722
840.604	24802
840.742	24977
840.879	24635
841.016	24642
841.153	24460
841.29	24814
841.427	24593
841.564	24726
841.701	24787
841.838	24673
841.975	24620
842.112	24551
842.249	24585
842.385	24456
842.522	24677
842.659	24475
842.796	24479
842.933	24422
843.069	24429
843.206	24464
843.343	24574
843.479	24582
843.616	24544
843.752	24357
843.889	24220
844.025	24540
844.162	24239
844.298	24376
844.435	24338
844.571	24228
844.708	24281
844.844	24365
844.98	24429
845.117	24437
845.253	24308
845.389	24087
845.525	24197
845.661	24041
845.798	24079
845.934	24083
846.07	23893
846.206	24018
846.342	24117
846.478	23889
846.614	23767
846.75	23642
846.886	23684
847.022	23813
847.158	23661
847.294	23687
847.429	23707
847.565	23756
847.701	24034
847.837	23478
847.972	23337
848.108	23619
848.244	23482
848.379	23330
848.515	23284
848.65	23292
848.786	23421
848.921	23353
849.057	23490
849.192	23417
849.328	23391
849.463	23242
849.598	23212
849.734	23227
849.869	23105
850.004	23010
850.14	23025
850.275	23014
850.41	23022
850.545	22934
850.68	23056
850.815	22984
850.95	23022
851.085	23269
851.22	23029
851.355	23075
851.49	23018
851.625	23223
851.76	23086
851.895	22965
852.03	23098
852.165	23014
852.299	23136
852.434	23242
852.569	23121
852.703	23060
852.838	23102
852.973	23250
853.107	23200
853.242	23006
853.376	22889
853.511	22816
853.645	22942
853.78	22946
853.914	22908
854.048	22831
854.183	22892
854.317	22877
854.451	23006
854.585	22946
854.72	22957
854.854	22938
854.988	22854
855.122	22797
855.256	22653
855.39	22786
855.524	22885
855.658	22976
855.792	22915
855.926	22904
856.06	22839
856.194	22968
856.327	22809
856.461	22900
856.595	22778
856.729	22782
856.862	23010
856.996	22930
857.13	23025
857.263	22987
857.397	23056
857.53	22759
857.664	22946
857.797	22949
857.931	23094
858.064	22908
858.197	22961
858.331	23079
858.464	22904
858.597	22793
858.731	22748
858.864	22782
858.997	22889
859.13	22759
859.263	22889
859.396	22999
859.529	22919
859.662	22881
859.795	22812
859.928	23010
860.061	23079
860.194	23041
860.327	22949
860.46	22831
860.592	23048
860.725	23006
860.858	22984
860.99	22972
861.123	22828
861.256	22790
861.388	23025
861.521	23596
861.653	22744
861.786	22664
861.918	22630
862.05	22660
862.183	22858
862.315	22839
862.447	22930
862.58	22809
862.712	22645
862.844	22618
862.976	22649
863.108	22759
863.24	22934
863.372	22531
863.504	22694
863.636	22538
863.768	22618
863.9	22550
864.032	22603
864.164	22485
864.296	22546
864.428	22694
864.559	22660
864.691	22668
864.823	22542
864.954	22470
865.086	22470
865.217	22554
865.349	22523
865.48	22550
865.612	22470
865.743	22516
865.875	22519
866.006	22462
866.137	22493
866.269	22402
866.4	22459
866.531	22569
866.662	22394
866.793	22386
866.924	22462
867.055	22519
867.186	22424
867.317	22436
867.448	22352
867.579	22219
867.71	22352
867.841	22238
867.972	22413
868.103	22379
868.233	22310
868.364	22424
868.495	22489
868.625	22569
868.756	22774
868.886	22615
869.017	22618
869.147	22771
869.278	22672
869.408	22561
869.539	22698
869.669	22672
869.799	22584
869.929	22721
870.06	22672
870.19	22980
870.32	22919
870.45	23064
870.58	23067
870.71	23231
870.84	23071
870.97	22881
871.1	23159
871.23	23174
871.36	23254
871.489	23246
871.619	23239
871.749	23189
871.879	23261
872.008	23318
872.138	23174
872.267	23265
872.397	23128
872.526	23094
872.656	23079
872.785	23174
872.915	23105
873.044	23379
873.173	23296
873.303	23296
873.432	23322
873.561	23379
873.69	23159
873.819	23254
873.948	23322
874.077	23231
874.206	23143
874.335	23216
874.464	23318
874.593	23482
874.722	23383
874.851	23520
874.979	23509
875.108	23436
875.237	23372
875.365	23395
875.494	23307
875.623	23570
875.751	23471
875.88	23391
876.008	23581
876.136	23531
876.265	23809
876.393	23901
876.521	23832
876.65	23824
876.778	23760
876.906	23821
877.034	23897
877.162	23771
877.29	23729
877.418	23927
877.546	23939
877.674	23920
877.802	23733
877.93	23840
878.058	23707
878.185	23649
878.313	23798
878.441	23783
878.568	23585
878.696	23775
878.824	23710
878.951	23817
879.079	23992
879.206	24003
879.333	23889
879.461	23920
879.588	23847
879.715	23916
879.842	24091
879.97	23889
880.097	23558
880.224	23665
880.351	23779
880.478	23703
880.605	23619
880.732	23596
880.859	23851
880.986	23729
881.112	23653
881.239	23471
881.366	23414
881.493	23337
881.619	23185
881.746	23227
881.872	23246
881.999	23170
882.125	23071
882.252	23166
882.378	23124
882.505	23330
882.631	22908
882.757	22885
882.883	22961
883.01	22801
883.136	22854
883.262	22771
883.388	22615
883.514	22778
883.64	22866
883.766	22774
883.892	22698
884.018	22584
884.143	22752
884.269	22911
884.395	22519
884.52	22379
884.646	22485
884.772	22356
884.897	22348
885.023	22466
885.148	22470
885.274	22683
885.399	22561
885.524	22363
885.65	22402
885.775	22466
885.9	22478
886.025	22607
886.15	22459
886.275	22436
886.4	22333
886.525	22363
886.65	22379
886.775	22341
886.9	22584
887.025	22702
887.149	22367
887.274	22246
887.399	22192
887.523	22166
887.648	22196
887.773	22017
887.897	22318
888.021	22295
888.146	22215
888.27	22226
888.395	22291
888.519	22242
888.643	22181
888.767	22230
888.891	22147
889.015	21987
889.139	22211
889.263	22070
889.387	22154
889.511	22109
889.635	22211
889.759	21915
889.883	22010
890.006	22116
890.13	22044
890.254	22082
890.377	21895
890.501	21846
890.624	21709
890.748	21778
890.871	21660
890.995	21625
891.118	21458
891.241	21561
891.364	21572
891.488	21781
891.611	21530
891.734	21622
891.857	21660
891.98	21587
892.103	21641
892.226	21500
892.349	21545
892.471	21313
892.594	21382
892.717	21481
892.839	21473
892.962	21496
893.085	21488
893.207	21443
893.33	21359
893.452	21401
893.575	21458
893.697	21317
893.819	21564
893.941	21591
894.064	21572
894.186	21458
894.308	21469
894.43	21549
894.552	21568
894.674	21447
894.796	21344
894.918	21393
895.04	21397
895.161	21393
895.283	21363
895.405	21431
895.526	21386
895.648	21329
895.769	21439
895.891	21443
896.012	21545
896.134	21412
896.255	21382
896.376	21325
896.498	21439
896.619	21424
896.74	21363
896.861	21435
896.982	21713
897.103	21823
897.224	21747
897.345	21561
897.466	21595
897.587	21606
897.708	21778
897.828	21641
897.949	21511
898.07	21325
898.19	21656
898.311	21606
898.431	21523
898.552	21553
898.672	21717
898.792	21656
898.913	21542
899.033	21473
899.153	21485
899.273	21329
899.393	21332
899.513	21473
899.633	21325
899.753	21378
899.873	21176
899.993	21298
900.113	21370
900.232	21264
900.352	21291
900.472	21116
900.591	21062
900.711	21116
900.83	21036
900.95	21211
901.069	21150
901.189	20918
901.308	20769
901.427	20674
901.546	20629
901.665	20693
901.784	20625
901.904	20473
902.023	20381
902.141	20240
902.26	20237
902.379	20176
902.498	20195
902.617	20161
902.735	20107
902.854	20145
902.973	20107
903.091	19944
903.21	19822
903.328	19837
903.446	19685
903.565	19521
903.683	19628
903.801	19506
903.919	19624
904.038	19552
904.156	19304
904.274	19445
904.392	19411
904.51	19358
904.627	19327
904.745	19449
904.863	19483
904.981	19122
905.098	19084
905.216	18943
905.334	18966
905.451	18916
905.569	19004
905.686	19103
905.803	19012
905.921	18825
906.038	18871
906.155	18856
906.272	18730
906.389	18753
906.506	18631
906.623	18658
906.74	18540
906.857	18418
906.974	18441
907.091	18555
907.208	18696
907.324	18646
907.441	18300
907.557	18266
907.674	18220
907.79	18117
907.907	18167
908.023	18277
908.139	18334
908.256	18228
908.372	18095
908.488	18068
908.604	17999
908.72	17931
908.836	17916
908.952	17961
909.068	17882
909.184	18083
909.3	18007
909.415	17999
909.531	17840
909.647	17714
909.762	17672
909.878	17653
909.993	17657
910.108	17634
910.224	17638
910.339	17653
910.454	17535
910.57	17391
910.685	17364
910.8	17615
910.915	17577
911.03	17398
911.145	17261
911.259	17280
911.374	17090
911.489	17155
911.604	17033
911.718	17060
911.833	16892
911.947	16980
912.062	16835
912.176	16889
912.291	16984
912.405	17033
912.519	17159
912.633	17235
912.748	16953
912.862	17003
912.976	16748
913.09	16653
913.204	16786
913.318	16835
913.431	16801
913.545	16927
913.659	16835
913.772	16752
913.886	16656
914	16611
914.113	16691
914.226	16710
914.34	16637
914.453	16443
914.566	16538
914.68	16402
914.793	16356
914.906	16280
915.019	16105
915.132	16078
915.245	16101
915.358	16139
915.47	16109
915.583	16078
915.696	16086
915.809	16230
915.921	16200
916.034	16010
916.146	15956
916.259	16055
916.371	16109
916.483	16093
916.595	15991
916.708	15972
916.82	15983
916.932	15892
917.044	15991
917.156	15903
917.268	15728
917.38	15808
917.491	15842
917.603	15705
917.715	15854
917.826	15876
917.938	15728
918.049	15637
918.161	15701
918.272	15835
918.384	15819
918.495	15728
918.606	15488
918.717	15386
918.828	15485
918.939	15481
919.05	15367
919.161	15397
919.272	15222
919.383	15275
919.494	15450
919.604	15682
919.715	15462
919.826	15416
919.936	15401
920.047	15507
920.157	15363
920.267	15606
920.378	15466
920.488	15363
920.598	15606
920.708	15671
920.818	15534
920.928	15553
921.038	15663
921.148	15656
921.258	15450
921.368	15310
921.477	15154
921.587	15058
921.697	15051
921.806	15017
921.916	14998
922.025	14800
922.134	14807
922.244	14720
922.353	14864
922.462	14686
922.571	14564
922.68	14499
922.789	14381
922.898	14351
923.007	14396
923.116	14419
923.224	14488
923.333	14332
923.442	14225
923.55	14275
923.659	14259
923.767	14267
923.876	14168
923.984	14317
924.092	14187
924.201	14240
924.309	14111
924.417	14126
924.525	14145
924.633	14050
924.741	14804
924.849	13822
924.956	13997
925.064	13746
925.172	13784
925.279	13704
925.387	13906
925.494	13791
925.602	13860
925.709	13860
925.816	13639
925.924	13742
926.031	13765
926.138	13693
926.245	13723
926.352	13609
926.459	13803
926.566	13681
926.673	13601
926.779	13483
926.886	13552
926.993	13354
927.099	13339
927.206	13327
927.312	13297
927.419	13362
927.525	13308
927.631	13350
927.737	13198
927.843	13133
927.95	13133
928.056	13069
928.162	13194
928.267	13175
928.373	13616
928.479	13168
928.585	12977
928.69	13042
928.796	13088
928.901	13050
929.007	12776
929.112	13008
929.218	12977
929.323	12928
929.428	12795
929.533	12970
929.638	12726
929.743	12730
929.848	12791
929.953	12779
930.058	12692
930.163	12445
930.267	12445
930.372	12669
930.477	12448
930.581	12681
930.685	12536
930.79	12380
930.894	12369
930.998	12300
931.103	12479
931.207	12106
931.311	11988
931.415	11920
931.519	11748
931.623	11752
