Data from test_V78500241_289.txt Node
Date: Fri Mar 25 15:43:48 CST 2022
User: usil
Spectrometer: V785-0024
Trigger mode: 0
Integration Time (sec): 4.000000E-1
Scans to average: 1
Nonlinearity correction enabled: false
Boxcar width: 0
Storing dark spectrum: false
XAxis mode: Wavelengths
Number of Pixels in Spectrum: 1024
>>>>>Begin Spectral Data<<<<<
801.071	29638
801.214	29627
801.356	29566
801.499	29414
801.641	29360
801.783	29303
801.926	29307
802.068	29307
802.211	29151
802.353	29132
802.496	28927
802.638	28957
802.78	29010
802.923	28854
803.065	28854
803.208	28725
803.35	29014
803.492	29052
803.635	29037
803.777	28793
803.919	29075
804.061	29368
804.204	29269
804.346	28995
804.488	28976
804.63	28938
804.773	29083
804.915	29006
805.057	29212
805.199	29174
805.341	29269
805.483	29128
805.626	29132
805.768	29075
805.91	29102
806.052	29132
806.194	29056
806.336	29452
806.478	29334
806.62	29102
806.762	29265
806.904	29531
807.046	29798
807.188	29474
807.33	29554
807.472	29615
807.614	29577
807.756	29474
807.898	29364
808.04	29334
808.182	29455
808.324	29509
808.465	29501
808.607	29585
808.749	29771
808.891	29756
809.033	30102
809.174	29935
809.316	29630
809.458	29866
809.6	29741
809.741	29790
809.883	29939
810.025	30072
810.166	30064
810.308	30045
810.45	30121
810.591	29954
810.733	29878
810.875	29840
811.016	29729
811.158	29775
811.299	29931
811.441	30007
811.582	29996
811.724	29855
811.865	29703
812.007	29722
812.148	29767
812.29	29965
812.431	29969
812.573	30171
812.714	30148
812.855	30315
812.997	30376
813.138	30498
813.279	30399
813.421	30266
813.562	30239
813.703	30136
813.845	29961
813.986	29771
814.127	29737
814.268	29596
814.41	29551
814.551	29471
814.692	29509
814.833	29535
814.974	29395
815.115	29474
815.256	29360
815.397	29296
815.539	29303
815.68	29398
815.821	29094
815.962	29330
816.103	29235
816.244	29185
816.385	29010
816.526	29010
816.666	28828
816.807	28672
816.948	28733
817.089	28854
817.23	28763
817.371	28577
817.512	28793
817.653	28698
817.793	28599
817.934	28767
818.075	28687
818.216	28687
818.356	28668
818.497	28443
818.638	28421
818.778	28382
818.919	28325
819.06	28428
819.2	28546
819.341	28656
819.481	28599
819.622	28835
819.762	28786
819.903	28957
820.043	28721
820.184	28911
820.324	28850
820.465	28835
820.605	28801
820.746	28877
820.886	28531
821.026	28637
821.167	28752
821.307	28759
821.447	28592
821.588	28519
821.728	28470
821.868	28234
822.008	28124
822.149	28036
822.289	28120
822.429	27831
822.569	27759
822.709	27603
822.849	27618
822.99	27424
823.13	27511
823.27	27462
823.41	27348
823.55	27249
823.69	27416
823.83	27325
823.97	27336
824.11	27203
824.25	27203
824.389	27294
824.529	27256
824.669	27188
824.809	27344
824.949	27291
825.089	27195
825.228	27192
825.368	27074
825.508	27055
825.648	27135
825.787	27108
825.927	27146
826.067	27001
826.206	26921
826.346	27123
826.485	27157
826.625	27154
826.765	27157
826.904	27093
827.044	26697
827.183	26648
827.323	26769
827.462	26712
827.601	26705
827.741	26613
827.88	26720
828.02	26663
828.159	26674
828.298	26819
828.437	26743
828.577	26556
828.716	26811
828.855	26446
828.994	26434
829.134	26450
829.273	26419
829.412	26332
829.551	26256
829.69	26453
829.829	26427
829.968	26362
830.107	26476
830.246	26351
830.385	26187
830.524	26320
830.663	26244
830.802	26008
830.941	26016
831.08	25959
831.219	26001
831.357	26073
831.496	26195
831.635	26001
831.774	25966
831.913	25879
832.051	25719
832.19	25715
832.329	25715
832.467	25483
832.606	25537
832.744	25635
832.883	25582
833.022	25533
833.16	25605
833.299	25677
833.437	25582
833.576	25643
833.714	25647
833.852	25757
833.991	25723
834.129	25693
834.267	25616
834.406	25514
834.544	25655
834.682	25616
834.821	25594
834.959	25811
835.097	25559
835.235	25533
835.373	25662
835.511	25639
835.65	25358
835.788	25552
835.926	25247
836.064	25213
836.202	25278
836.34	25476
836.478	25575
836.615	25335
836.753	25438
836.891	25548
837.029	25506
837.167	25297
837.305	25350
837.443	25358
837.58	25236
837.718	25266
837.856	25266
837.993	25270
838.131	25297
838.269	25057
838.406	25373
838.544	24943
838.681	24935
838.819	24833
838.956	24623
839.094	24616
839.231	24719
839.369	24844
839.506	25038
839.643	24928
839.781	24833
839.918	24532
840.055	24665
840.193	24570
840.33	24582
840.467	24570
840.604	24631
840.742	24806
840.879	24448
841.016	24490
841.153	24471
841.29	24551
841.427	24505
841.564	24642
841.701	24517
841.838	24616
841.975	24498
842.112	24414
842.249	24380
842.385	24376
842.522	24559
842.659	24182
842.796	24327
842.933	24197
843.069	24258
843.206	24068
843.343	24315
843.479	24140
843.616	24281
843.752	24194
843.889	23961
844.025	24277
844.162	23904
844.298	24167
844.435	24045
844.571	24015
844.708	23901
844.844	23988
844.98	24087
845.117	24190
845.253	23859
845.389	23897
845.525	23843
845.661	23813
845.798	23680
845.934	23817
846.07	23619
846.206	23714
846.342	23893
846.478	23623
846.614	23440
846.75	23421
846.886	23417
847.022	23398
847.158	23474
847.294	23581
847.429	23414
847.565	23402
847.701	23509
847.837	23197
847.972	23166
848.108	23060
848.244	23246
848.379	23128
848.515	22957
848.65	22946
848.786	22942
848.921	23018
849.057	23181
849.192	23147
849.328	23174
849.463	23029
849.598	23044
849.734	22873
849.869	22790
850.004	22736
850.14	22812
850.275	22763
850.41	22733
850.545	22748
850.68	22615
850.815	22858
850.95	22725
851.085	22850
851.22	22869
851.355	22828
851.49	22618
851.625	22752
851.76	22828
851.895	22713
852.03	22717
852.165	22630
852.299	22824
852.434	22797
852.569	22736
852.703	22542
852.838	22736
852.973	22729
853.107	22702
853.242	22565
853.376	22538
853.511	22459
853.645	22500
853.78	22672
853.914	22512
854.048	22557
854.183	22630
854.317	22504
854.451	22729
854.585	22523
854.72	22516
854.854	22512
854.988	22375
855.122	22478
855.256	22447
855.39	22493
855.524	22588
855.658	22550
855.792	22592
855.926	22561
856.06	22611
856.194	22603
856.327	22489
856.461	22447
856.595	22424
856.729	22527
856.862	22630
856.996	22493
857.13	22474
857.263	22653
857.397	22462
857.53	22538
857.664	22424
857.797	22493
857.931	22554
858.064	22459
858.197	22565
858.331	22421
858.464	22470
858.597	22470
858.731	22474
858.864	22367
858.997	22325
859.13	22535
859.263	22523
859.396	22527
859.529	22470
859.662	22447
859.795	22394
859.928	22485
860.061	22622
860.194	22542
860.327	22546
860.46	22485
860.592	22561
860.725	22561
860.858	22500
860.99	22500
861.123	22268
861.256	22375
861.388	22382
861.521	23079
861.653	22428
861.786	22291
861.918	22375
862.05	22299
862.183	22432
862.315	22413
862.447	22531
862.58	22523
862.712	22185
862.844	22124
862.976	22303
863.108	22200
863.24	22577
863.372	22097
863.504	22147
863.636	22074
863.768	22242
863.9	22249
864.032	22090
864.164	22139
864.296	22021
864.428	22249
864.559	22253
864.691	22188
864.823	22124
864.954	22086
865.086	22207
865.217	22105
865.349	22006
865.48	22051
865.612	21983
865.743	22166
865.875	22013
866.006	21926
866.137	22082
866.269	22074
866.4	22067
866.531	21899
866.662	21975
866.793	21880
866.924	21964
867.055	21968
867.186	21975
867.317	21949
867.448	21857
867.579	21831
867.71	21816
867.841	21804
867.972	21960
868.103	21816
868.233	22036
868.364	22051
868.495	21934
868.625	22154
868.756	22272
868.886	22230
869.017	22116
869.147	22318
869.278	22223
869.408	22181
869.539	22090
869.669	22230
869.799	22310
869.929	22287
870.06	22200
870.19	22531
870.32	22565
870.45	22653
870.58	22470
870.71	22561
870.84	22679
870.97	22630
871.1	22516
871.23	22706
871.36	22839
871.489	22679
871.619	22702
871.749	22919
871.879	22767
872.008	22889
872.138	22744
872.267	22847
872.397	22615
872.526	22660
872.656	22489
872.785	22634
872.915	22835
873.044	22980
873.173	22710
873.303	22816
873.432	22774
873.561	22999
873.69	22892
873.819	22809
873.948	22816
874.077	22965
874.206	22778
874.335	22664
874.464	22866
874.593	22946
874.722	23041
874.851	22961
874.979	22984
875.108	23025
875.237	23025
875.365	22919
875.494	23018
875.623	23102
875.751	22968
875.88	23025
876.008	22885
876.136	23079
876.265	23334
876.393	23554
876.521	23429
876.65	23406
876.778	23452
876.906	23406
877.034	23440
877.162	23391
877.29	23364
877.418	23429
877.546	23189
877.674	23341
877.802	23452
877.93	23326
878.058	23322
878.185	23166
878.313	23421
878.441	23330
878.568	23235
878.696	23296
878.824	23269
878.951	23395
879.079	23512
879.206	23627
879.333	23615
879.461	23524
879.588	23566
879.715	23619
879.842	23596
879.97	23353
880.097	23166
880.224	23200
880.351	23189
880.478	23174
880.605	23124
880.732	23132
880.859	23372
880.986	23102
881.112	23246
881.239	23128
881.366	22953
881.493	22725
881.619	22736
881.746	22748
881.872	22820
881.999	22664
882.125	22759
882.252	22824
882.378	22698
882.505	22984
882.631	22615
882.757	22519
882.883	22672
883.01	22470
883.136	22504
883.262	22169
883.388	22287
883.514	22516
883.64	22504
883.766	22223
883.892	22230
884.018	22322
884.143	22291
884.269	22390
884.395	22173
884.52	22063
884.646	22055
884.772	22051
884.897	21949
885.023	22074
885.148	22192
885.274	22226
885.399	22204
885.524	22063
885.65	21926
885.775	22074
885.9	22086
886.025	22158
886.15	22223
886.275	21994
886.4	21956
886.525	22006
886.65	21907
886.775	22017
886.9	22211
887.025	22303
887.149	22070
887.274	21895
887.399	21785
887.523	21766
887.648	21747
887.773	21557
887.897	21934
888.021	21854
888.146	21838
888.27	21823
888.395	21869
888.519	21823
888.643	21869
888.767	21808
888.891	21625
889.015	21542
889.139	21618
889.263	21572
889.387	21701
889.511	21717
889.635	21797
889.759	21671
889.883	21671
890.006	21671
890.13	21671
890.254	21389
890.377	21511
890.501	21317
890.624	21374
890.748	21367
890.871	21245
890.995	21081
891.118	21089
891.241	21188
891.364	21066
891.488	21218
891.611	21081
891.734	21047
891.857	21176
891.98	21127
892.103	21165
892.226	20982
892.349	21058
892.471	20876
892.594	21017
892.717	21096
892.839	21093
892.962	21089
893.085	21081
893.207	20982
893.33	20918
893.452	20826
893.575	21062
893.697	20956
893.819	21138
893.941	21222
894.064	21043
894.186	20971
894.308	21020
894.43	21066
894.552	21173
894.674	21150
894.796	20918
894.918	21005
895.04	20975
895.161	21123
895.283	20975
895.405	20925
895.526	21081
895.648	20902
895.769	20956
895.891	20948
896.012	21173
896.134	21024
896.255	21009
896.376	21070
896.498	20952
896.619	21176
896.74	21116
896.861	21135
896.982	21306
897.103	21405
897.224	21310
897.345	21340
897.466	21195
897.587	21275
897.708	21389
897.828	21310
897.949	21119
898.07	21081
898.19	21230
898.311	21283
898.431	21157
898.552	21176
898.672	21321
898.792	21279
898.913	21195
899.033	21066
899.153	20963
899.273	20830
899.393	20929
899.513	20910
899.633	20815
899.753	20918
899.873	20743
899.993	20906
900.113	20838
900.232	20857
900.352	20899
900.472	20670
900.591	20644
900.711	20667
900.83	20674
900.95	20845
901.069	20701
901.189	20568
901.308	20237
901.427	20191
901.546	20263
901.665	20214
901.784	20252
901.904	20084
902.023	19982
902.141	19784
902.26	19795
902.379	19909
902.498	19643
902.617	19704
902.735	19632
902.854	19727
902.973	19677
903.091	19377
903.21	19324
903.328	19495
903.446	19308
903.565	19160
903.683	19213
903.801	19095
903.919	19190
904.038	19088
904.156	18962
904.274	19023
904.392	18901
904.51	18916
904.627	18837
904.745	18970
904.863	18996
904.981	18802
905.098	18635
905.216	18646
905.334	18601
905.451	18669
905.569	18570
905.686	18669
905.803	18582
905.921	18273
906.038	18555
906.155	18289
906.272	18327
906.389	18304
906.506	18182
906.623	18155
906.74	17996
906.857	18060
906.974	18049
907.091	18114
907.208	18296
907.324	18136
907.441	18076
907.557	17821
907.674	17832
907.79	17710
907.907	17779
908.023	17851
908.139	17691
908.256	17760
908.372	17726
908.488	17668
908.604	17604
908.72	17497
908.836	17581
908.952	17482
909.068	17444
909.184	17497
909.3	17512
909.415	17493
909.531	17417
909.647	17288
909.762	17174
909.878	17124
909.993	17231
910.108	17159
910.224	17086
910.339	17170
910.454	17098
910.57	16976
910.685	16892
910.8	17155
910.915	17189
911.03	16915
911.145	16854
911.259	16820
911.374	16801
911.489	16694
911.604	16630
911.718	16531
911.833	16459
911.947	16371
912.062	16440
912.176	16432
912.291	16451
912.405	16584
912.519	16702
912.633	16710
912.748	16577
912.862	16584
912.976	16379
913.09	16204
913.204	16295
913.318	16287
913.431	16451
913.545	16352
913.659	16428
913.772	16234
913.886	16128
914	16093
914.113	16211
914.226	16120
914.34	16128
914.453	15945
914.566	16135
914.68	15979
914.793	15983
914.906	15842
915.019	15717
915.132	15682
915.245	15705
915.358	15690
915.47	15736
915.583	15660
915.696	15679
915.809	15827
915.921	15823
916.034	15644
916.146	15614
916.259	15454
916.371	15724
916.483	15568
916.595	15454
916.708	15458
916.82	15538
916.932	15553
917.044	15530
917.156	15435
917.268	15443
917.38	15340
917.491	15321
917.603	15370
917.715	15401
917.826	15344
917.938	15275
918.049	15157
918.161	15291
918.272	15408
918.384	15462
918.495	15313
918.606	15146
918.717	15104
918.828	15089
918.939	15154
919.05	14925
919.161	15043
919.272	14861
919.383	14910
919.494	15043
919.604	15302
919.715	14998
919.826	14910
919.936	14982
920.047	15070
920.157	15020
920.267	15268
920.378	14986
920.488	15001
920.598	15214
920.708	15291
920.818	15233
920.928	15123
921.038	15321
921.148	15135
921.258	15047
921.368	14807
921.477	14857
921.587	14701
921.697	14632
921.806	14739
921.916	14541
922.025	14355
922.134	14366
922.244	14370
922.353	14366
922.462	14317
922.571	14138
922.68	14084
922.789	14012
922.898	14001
923.007	13986
923.116	14062
923.224	13890
923.333	13970
923.442	13860
923.55	13780
923.659	13807
923.767	13871
923.876	13750
923.984	13811
924.092	13670
924.201	13708
924.309	13677
924.417	13814
924.525	13696
924.633	13696
924.741	14541
924.849	13464
924.956	13594
925.064	13518
925.172	13438
925.279	13324
925.387	13449
925.494	13365
925.602	13548
925.709	13441
925.816	13320
925.924	13365
926.031	13430
926.138	13293
926.245	13422
926.352	13171
926.459	13365
926.566	13358
926.673	13240
926.779	13110
926.886	13133
926.993	12981
927.099	13042
927.206	12856
927.312	12916
927.419	12951
927.525	12886
927.631	12943
927.737	12920
927.843	12745
927.95	12631
928.056	12768
928.162	12696
928.267	12817
928.373	13449
928.479	12760
928.585	12593
928.69	12776
928.796	12764
928.901	12703
929.007	12547
929.112	12616
929.218	12532
929.323	12506
929.428	12509
929.533	12547
929.638	12418
929.743	12346
929.848	12433
929.953	12395
930.058	12296
930.163	12053
930.267	12232
930.372	12323
930.477	12060
930.581	12334
930.685	12148
930.79	12022
930.894	12034
930.998	11980
931.103	12095
931.207	11710
931.311	11592
931.415	11501
931.519	11376
931.623	11318
