Data from test_V78500241_366.txt Node
Date: Fri Mar 25 15:44:20 CST 2022
User: usil
Spectrometer: V785-0024
Trigger mode: 0
Integration Time (sec): 4.000000E-1
Scans to average: 1
Nonlinearity correction enabled: false
Boxcar width: 0
Storing dark spectrum: false
XAxis mode: Wavelengths
Number of Pixels in Spectrum: 1024
>>>>>Begin Spectral Data<<<<<
801.071	29817
801.214	29741
801.356	29562
801.499	29402
801.641	29402
801.783	29429
801.926	29490
802.068	29334
802.211	29505
802.353	29337
802.496	29174
802.638	29208
802.78	29044
802.923	29064
803.065	29083
803.208	29067
803.35	29025
803.492	29330
803.635	29440
803.777	29193
803.919	29349
804.061	29638
804.204	29410
804.346	29235
804.488	29353
804.63	29406
804.773	29231
804.915	29433
805.057	29360
805.199	29353
805.341	29326
805.483	29474
805.626	29433
805.768	29299
805.91	29474
806.052	29425
806.194	29349
806.336	29630
806.478	29406
806.62	29417
806.762	29444
806.904	29745
807.046	29904
807.188	29885
807.33	29942
807.472	30003
807.614	29748
807.756	29840
807.898	29802
808.04	29745
808.182	29809
808.324	29756
808.465	29703
808.607	29973
808.749	30072
808.891	30121
809.033	30266
809.174	30194
809.316	30057
809.458	30209
809.6	30098
809.741	30262
809.883	30239
810.025	30448
810.166	30502
810.308	30437
810.45	30369
810.591	30289
810.733	30152
810.875	30083
811.016	30049
811.158	30034
811.299	30311
811.441	30346
811.582	30300
811.724	30045
811.865	30064
812.007	30148
812.148	30110
812.29	30224
812.431	30247
812.573	30410
812.714	30513
812.855	30669
812.997	30551
813.138	30894
813.279	30798
813.421	30604
813.562	30525
813.703	30521
813.845	30346
813.986	30007
814.127	30129
814.268	29783
814.41	29923
814.551	29745
814.692	29961
814.833	29714
814.974	29775
815.115	29832
815.256	29562
815.397	29592
815.539	29531
815.68	29653
815.821	29604
815.962	29452
816.103	29604
816.244	29512
816.385	29326
816.526	29356
816.666	29334
816.807	29064
816.948	29117
817.089	29212
817.23	29185
817.371	29113
817.512	29109
817.653	28888
817.793	29022
817.934	29071
818.075	28896
818.216	29067
818.356	28972
818.497	28938
818.638	28828
818.778	28755
818.919	28649
819.06	28797
819.2	28835
819.341	29041
819.481	28873
819.622	29025
819.762	29250
819.903	29315
820.043	29181
820.184	29067
820.324	29117
820.465	29383
820.605	29102
820.746	29212
820.886	28946
821.026	29242
821.167	29094
821.307	29151
821.447	28961
821.588	28896
821.728	28961
821.868	28634
822.008	28466
822.149	28417
822.289	28367
822.429	28211
822.569	28120
822.709	28131
822.849	27892
822.99	28010
823.13	27918
823.27	27888
823.41	27625
823.55	27618
823.69	27644
823.83	27819
823.97	27762
824.11	27663
824.25	27644
824.389	27580
824.529	27622
824.669	27751
824.809	27705
824.949	27618
825.089	27656
825.228	27580
825.368	27485
825.508	27367
825.648	27534
825.787	27382
825.927	27351
826.067	27367
826.206	27367
826.346	27458
826.485	27534
826.625	27382
826.765	27466
826.904	27427
827.044	27317
827.183	27195
827.323	27085
827.462	27184
827.601	27199
827.741	26925
827.88	27192
828.02	27013
828.159	27138
828.298	27135
828.437	27096
828.577	27150
828.716	27077
828.855	26979
828.994	26925
829.134	26864
829.273	26724
829.412	26663
829.551	26826
829.69	26845
829.829	26826
829.968	26853
830.107	26876
830.246	26830
830.385	26811
830.524	26579
830.663	26564
830.802	26476
830.941	26351
831.08	26362
831.219	26511
831.357	26457
831.496	26651
831.635	26427
831.774	26202
831.913	26157
832.051	26180
832.19	26145
832.329	26214
832.467	26081
832.606	25963
832.744	26012
832.883	25925
833.022	26031
833.16	26035
833.299	26005
833.437	26126
833.576	26073
833.714	25955
833.852	26050
833.991	26138
834.129	26008
834.267	26206
834.406	26138
834.544	26039
834.682	26043
834.821	25955
834.959	26282
835.097	25822
835.235	26046
835.373	26069
835.511	26081
835.65	25963
835.788	25909
835.926	25784
836.064	25632
836.202	25826
836.34	25993
836.478	25830
836.615	25803
836.753	25757
836.891	25917
837.029	25887
837.167	25913
837.305	25811
837.443	25833
837.58	25628
837.718	25738
837.856	25712
837.993	25483
838.131	25578
838.269	25468
838.406	25674
838.544	25476
838.681	25285
838.819	25179
838.956	25141
839.094	25076
839.231	25122
839.369	25247
839.506	25502
839.643	25358
839.781	25141
839.918	25023
840.055	25148
840.193	25084
840.33	25004
840.467	25061
840.604	25118
840.742	25198
840.879	24886
841.016	24924
841.153	24878
841.29	25008
841.427	24958
841.564	24928
841.701	24935
841.838	25000
841.975	24829
842.112	24760
842.249	24631
842.385	24768
842.522	24867
842.659	24753
842.796	24726
842.933	24711
843.069	24642
843.206	24582
843.343	24730
843.479	24639
843.616	24642
843.752	24342
843.889	24315
844.025	24528
844.162	24391
844.298	24654
844.435	24380
844.571	24247
844.708	24357
844.844	24502
844.98	24471
845.117	24483
845.253	24376
845.389	24258
845.525	24190
845.661	24186
845.798	24121
845.934	24178
846.07	24098
846.206	24114
846.342	24163
846.478	24079
846.614	23973
846.75	23802
846.886	23832
847.022	23786
847.158	23794
847.294	23935
847.429	23901
847.565	23752
847.701	23950
847.837	23611
847.972	23429
848.108	23649
848.244	23676
848.379	23440
848.515	23414
848.65	23307
848.786	23360
848.921	23471
849.057	23406
849.192	23455
849.328	23497
849.463	23417
849.598	23269
849.734	23303
849.869	23246
850.004	23200
850.14	23128
850.275	23083
850.41	23136
850.545	23105
850.68	23185
850.815	23197
850.95	23200
851.085	23166
851.22	23132
851.355	23197
851.49	23143
851.625	23083
851.76	23052
851.895	23090
852.03	23033
852.165	23193
852.299	23113
852.434	23220
852.569	23223
852.703	23121
852.838	23174
852.973	23280
853.107	23208
853.242	22904
853.376	22919
853.511	22885
853.645	22949
853.78	22984
853.914	22965
854.048	22957
854.183	22892
854.317	23003
854.451	23086
854.585	22995
854.72	22949
854.854	23041
854.988	22942
855.122	22831
855.256	22782
855.39	22968
855.524	23124
855.658	22915
855.792	22812
855.926	22949
856.06	23064
856.194	22934
856.327	22839
856.461	22934
856.595	22927
856.729	22942
856.862	23018
856.996	23018
857.13	22946
857.263	23128
857.397	23033
857.53	22889
857.664	22942
857.797	22869
857.931	22934
858.064	22839
858.197	22957
858.331	22862
858.464	22812
858.597	22797
858.731	22877
858.864	22824
858.997	22828
859.13	22847
859.263	22911
859.396	23010
859.529	22866
859.662	22782
859.795	22778
859.928	22809
860.061	23094
860.194	23064
860.327	22984
860.46	22858
860.592	22987
860.725	23014
860.858	23003
860.99	22858
861.123	22710
861.256	22752
861.388	22847
861.521	23543
861.653	22649
861.786	22679
861.918	22748
862.05	22660
862.183	22675
862.315	22828
862.447	22923
862.58	22835
862.712	22531
862.844	22550
862.976	22660
863.108	22668
863.24	23037
863.372	22512
863.504	22557
863.636	22622
863.768	22679
863.9	22577
864.032	22398
864.164	22443
864.296	22459
864.428	22706
864.559	22630
864.691	22641
864.823	22474
864.954	22481
865.086	22542
865.217	22436
865.349	22280
865.48	22466
865.612	22390
865.743	22538
865.875	22538
866.006	22284
866.137	22447
866.269	22306
866.4	22504
866.531	22276
866.662	22348
866.793	22402
866.924	22295
867.055	22226
867.186	22481
867.317	22371
867.448	22196
867.579	22265
867.71	22303
867.841	22303
867.972	22230
868.103	22341
868.233	22211
868.364	22276
868.495	22470
868.625	22485
868.756	22596
868.886	22447
869.017	22577
869.147	22618
869.278	22721
869.408	22554
869.539	22554
869.669	22694
869.799	22615
869.929	22561
870.06	22592
870.19	22889
870.32	22759
870.45	22892
870.58	22946
870.71	22980
870.84	23140
870.97	22908
871.1	22961
871.23	23166
871.36	23162
871.489	23079
871.619	23014
871.749	23185
871.879	23109
872.008	23265
872.138	23216
872.267	23128
872.397	23044
872.526	23014
872.656	22930
872.785	22965
872.915	23079
873.044	23174
873.173	23147
873.303	23200
873.432	23250
873.561	23349
873.69	23254
873.819	23341
873.948	23216
874.077	23235
874.206	23071
874.335	23064
874.464	23326
874.593	23509
874.722	23482
874.851	23395
874.979	23493
875.108	23395
875.237	23364
875.365	23299
875.494	23459
875.623	23509
875.751	23501
875.88	23493
876.008	23524
876.136	23604
876.265	23821
876.393	23882
876.521	23771
876.65	23821
876.778	23859
876.906	23646
877.034	23729
877.162	23745
877.29	23585
877.418	23722
877.546	23687
877.674	23783
877.802	23802
877.93	23691
878.058	23745
878.185	23619
878.313	23615
878.441	23680
878.568	23589
878.696	23630
878.824	23733
878.951	23733
879.079	23904
879.206	24083
879.333	23897
879.461	23866
879.588	23813
879.715	23840
879.842	23942
879.97	23676
880.097	23490
880.224	23535
880.351	23649
880.478	23596
880.605	23501
880.732	23554
880.859	23847
880.986	23539
881.112	23501
881.239	23440
881.366	23284
881.493	23162
881.619	23197
881.746	23140
881.872	22980
881.999	23018
882.125	23075
882.252	23075
882.378	23018
882.505	23239
882.631	22934
882.757	22843
882.883	22908
883.01	22904
883.136	22702
883.262	22584
883.388	22668
883.514	22850
883.64	22725
883.766	22698
883.892	22489
884.018	22557
884.143	22713
884.269	22713
884.395	22485
884.52	22367
884.646	22478
884.772	22249
884.897	22375
885.023	22516
885.148	22561
885.274	22577
885.399	22485
885.524	22489
885.65	22390
885.775	22428
885.9	22337
886.025	22382
886.15	22318
886.275	22337
886.4	22219
886.525	22409
886.65	22249
886.775	22295
886.9	22440
887.025	22527
887.149	22512
887.274	22196
887.399	22048
887.523	22139
887.648	22166
887.773	22067
887.897	22150
888.021	22211
888.146	22044
888.27	22394
888.395	22192
888.519	22238
888.643	22105
888.767	22040
888.891	22128
889.015	21907
889.139	21994
889.263	21922
889.387	22139
889.511	22112
889.635	21918
889.759	21842
889.883	21835
890.006	21865
890.13	21899
890.254	21762
890.377	21819
890.501	21705
890.624	21660
890.748	21625
890.871	21629
890.995	21477
891.118	21401
891.241	21477
891.364	21526
891.488	21610
891.611	21500
891.734	21500
891.857	21447
891.98	21485
892.103	21431
892.226	21428
892.349	21344
892.471	21332
892.594	21302
892.717	21443
892.839	21431
892.962	21363
893.085	21397
893.207	21283
893.33	21180
893.452	21169
893.575	21359
893.697	21306
893.819	21370
893.941	21507
894.064	21481
894.186	21272
894.308	21252
894.43	21572
894.552	21481
894.674	21534
894.796	21298
894.918	21348
895.04	21142
895.161	21382
895.283	21466
895.405	21332
895.526	21348
895.648	21241
895.769	21325
895.891	21382
896.012	21332
896.134	21302
896.255	21439
896.376	21283
896.498	21355
896.619	21420
896.74	21344
896.861	21359
896.982	21751
897.103	21789
897.224	21564
897.345	21583
897.466	21568
897.587	21576
897.708	21709
897.828	21663
897.949	21496
898.07	21408
898.19	21542
898.311	21595
898.431	21568
898.552	21542
898.672	21462
898.792	21572
898.913	21439
899.033	21386
899.153	21260
899.273	21146
899.393	21306
899.513	21344
899.633	21249
899.753	21230
899.873	21123
899.993	21367
900.113	21138
900.232	21275
900.352	20994
900.472	21169
900.591	20971
900.711	21203
900.83	20937
900.95	21112
901.069	21085
901.189	20929
901.308	20682
901.427	20499
901.546	20590
901.665	20602
901.784	20568
901.904	20469
902.023	20366
902.141	20100
902.26	20195
902.379	20195
902.498	20005
902.617	19993
902.735	20084
902.854	20054
902.973	19887
903.091	19639
903.21	19742
903.328	19738
903.446	19597
903.565	19563
903.683	19548
903.801	19365
903.919	19483
904.038	19422
904.156	19297
904.274	19251
904.392	19168
904.51	19282
904.627	19263
904.745	19308
904.863	19358
904.981	19061
905.098	18989
905.216	18951
905.334	19027
905.451	18840
905.569	18886
905.686	18913
905.803	18852
905.921	18711
906.038	18859
906.155	18776
906.272	18525
906.389	18658
906.506	18471
906.623	18429
906.74	18467
906.857	18323
906.974	18376
907.091	18410
907.208	18536
907.324	18414
907.441	18296
907.557	18148
907.674	18072
907.79	18098
907.907	18114
908.023	18171
908.139	18190
908.256	18064
908.372	18022
908.488	17923
908.604	17889
908.72	17802
908.836	17824
908.952	17767
909.068	17790
909.184	17954
909.3	17775
909.415	17866
909.531	17866
909.647	17551
909.762	17573
909.878	17497
909.993	17471
910.108	17436
910.224	17444
910.339	17482
910.454	17391
910.57	17334
910.685	17178
910.8	17497
910.915	17528
911.03	17288
911.145	17185
911.259	17132
911.374	17010
911.489	16987
911.604	16976
911.718	16816
911.833	16896
911.947	16748
912.062	16668
912.176	16778
912.291	16812
912.405	16774
912.519	16908
912.633	16957
912.748	16843
912.862	16694
912.976	16668
913.09	16489
913.204	16527
913.318	16497
913.431	16622
913.545	16653
913.659	16668
913.772	16470
913.886	16451
914	16398
914.113	16432
914.226	16546
914.34	16398
914.453	16276
914.566	16443
914.68	16276
914.793	16234
914.906	16013
915.019	16036
915.132	15808
915.245	16006
915.358	15975
915.47	16051
915.583	16036
915.696	16067
915.809	16055
915.921	16139
916.034	15922
916.146	15911
916.259	15808
916.371	15926
916.483	15899
916.595	15766
916.708	15819
916.82	15770
916.932	15720
917.044	15747
917.156	15690
917.268	15576
917.38	15633
917.491	15557
917.603	15584
917.715	15667
917.826	15641
917.938	15545
918.049	15382
918.161	15542
918.272	15648
918.384	15705
918.495	15507
918.606	15351
918.717	15218
918.828	15348
918.939	15378
919.05	15249
919.161	15351
919.272	15150
919.383	15173
919.494	15294
919.604	15431
919.715	15283
919.826	15207
919.936	15233
920.047	15382
920.157	15321
920.267	15458
920.378	15313
920.488	15287
920.598	15450
920.708	15576
920.818	15378
920.928	15317
921.038	15557
921.148	15412
921.258	15180
921.368	15138
921.477	14910
921.587	14921
921.697	14796
921.806	14963
921.916	14864
922.025	14697
922.134	14625
922.244	14655
922.353	14602
922.462	14362
922.571	14473
922.68	14168
922.789	14267
922.898	14301
923.007	14157
923.116	14183
923.224	14138
923.333	14214
923.442	14210
923.55	14065
923.659	14024
923.767	14100
923.876	13947
923.984	14065
924.092	13856
924.201	13959
924.309	14005
924.417	13944
924.525	13890
924.633	13921
924.741	14651
924.849	13723
924.956	13772
925.064	13719
925.172	13578
925.279	13567
925.387	13559
925.494	13521
925.602	13731
925.709	13639
925.816	13533
925.924	13556
926.031	13563
926.138	13499
926.245	13582
926.352	13388
926.459	13559
926.566	13601
926.673	13407
926.779	13293
926.886	13236
926.993	13194
927.099	13160
927.206	13126
927.312	13084
927.419	13099
927.525	13137
927.631	13175
927.737	13076
927.843	12977
927.95	12863
928.056	13000
928.162	12920
928.267	12958
928.373	13567
928.479	13038
928.585	12787
928.69	12932
928.796	12939
928.901	12779
929.007	12673
929.112	12878
929.218	12749
929.323	12696
929.428	12734
929.533	12688
929.638	12700
929.743	12570
929.848	12646
929.953	12646
930.058	12426
930.163	12350
930.267	12353
930.372	12399
930.477	12334
930.581	12566
930.685	12327
930.79	12114
930.894	12213
930.998	12205
931.103	12296
931.207	12003
931.311	11836
931.415	11790
931.519	11532
931.623	11478
