Data from test_V78500241_2631.txt Node
Date: Fri Mar 25 16:00:01 CST 2022
User: usil
Spectrometer: V785-0024
Trigger mode: 0
Integration Time (sec): 4.000000E-1
Scans to average: 1
Nonlinearity correction enabled: false
Boxcar width: 0
Storing dark spectrum: false
XAxis mode: Wavelengths
Number of Pixels in Spectrum: 1024
>>>>>Begin Spectral Data<<<<<
801.071	28908
801.214	28896
801.356	28531
801.499	28573
801.641	28481
801.783	28470
801.926	28538
802.068	28371
802.211	28363
802.353	28508
802.496	28154
802.638	28238
802.78	28082
802.923	28177
803.065	28074
803.208	28116
803.35	28055
803.492	28436
803.635	28428
803.777	28417
803.919	28440
804.061	28672
804.204	28538
804.346	28493
804.488	28344
804.63	28390
804.773	28348
804.915	28443
805.057	28569
805.199	28386
805.341	28645
805.483	28656
805.626	28649
805.768	28421
805.91	28588
806.052	28386
806.194	28592
806.336	28702
806.478	28592
806.62	28538
806.762	28782
806.904	28904
807.046	29174
807.188	29052
807.33	28995
807.472	28999
807.614	28911
807.756	28972
807.898	28824
808.04	28839
808.182	28961
808.324	28984
808.465	28991
808.607	29109
808.749	29315
808.891	29387
809.033	29398
809.174	29406
809.316	29288
809.458	29391
809.6	29277
809.741	29360
809.883	29467
810.025	29627
810.166	29577
810.308	29680
810.45	29558
810.591	29520
810.733	29364
810.875	29417
811.016	29155
811.158	29216
811.299	29402
811.441	29467
811.582	29589
811.724	29162
811.865	29311
812.007	29353
812.148	29307
812.29	29288
812.431	29551
812.573	29592
812.714	29672
812.855	29859
812.997	29840
813.138	30045
813.279	29950
813.421	29752
813.562	29802
813.703	29634
813.845	29604
813.986	29330
814.127	29174
814.268	28972
814.41	28968
814.551	29003
814.692	29071
814.833	28946
814.974	28927
815.115	29018
815.256	29029
815.397	29014
815.539	29029
815.68	28797
815.821	28797
815.962	28850
816.103	28828
816.244	28645
816.385	28721
816.526	28622
816.666	28443
816.807	28200
816.948	28421
817.089	28386
817.23	28238
817.371	28398
817.512	28261
817.653	28314
817.793	28188
817.934	28394
818.075	28390
818.216	28322
818.356	28257
818.497	28158
818.638	28051
818.778	28055
818.919	28101
819.06	28177
819.2	28192
819.341	28303
819.481	28322
819.622	28287
819.762	28626
819.903	28512
820.043	28519
820.184	28546
820.324	28440
820.465	28546
820.605	28314
820.746	28436
820.886	28177
821.026	28504
821.167	28443
821.307	28485
821.447	28246
821.588	28382
821.728	28204
821.868	27956
822.008	27895
822.149	27808
822.289	27804
822.429	27511
822.569	27580
822.709	27519
822.849	27401
822.99	27298
823.13	27237
823.27	27462
823.41	27241
823.55	26994
823.69	27241
823.83	27195
823.97	27074
824.11	26929
824.25	26925
824.389	27119
824.529	27036
824.669	26986
824.809	27066
824.949	26971
825.089	27131
825.228	27047
825.368	26940
825.508	26819
825.648	26842
825.787	26940
825.927	26830
826.067	26758
826.206	26849
826.346	26967
826.485	26937
826.625	26830
826.765	26998
826.904	26906
827.044	26640
827.183	26575
827.323	26579
827.462	26526
827.601	26583
827.741	26598
827.88	26697
828.02	26587
828.159	26621
828.298	26689
828.437	26537
828.577	26415
828.716	26739
828.855	26385
828.994	26347
829.134	26252
829.273	26313
829.412	26176
829.551	26298
829.69	26336
829.829	26202
829.968	26195
830.107	26278
830.246	26267
830.385	26210
830.524	26073
830.663	26062
830.802	26039
830.941	25871
831.08	25776
831.219	25852
831.357	25955
831.496	26157
831.635	25780
831.774	25814
831.913	25662
832.051	25776
832.19	25666
832.329	25708
832.467	25457
832.606	25483
832.744	25521
832.883	25377
833.022	25419
833.16	25548
833.299	25620
833.437	25594
833.576	25586
833.714	25738
833.852	25685
833.991	25635
834.129	25651
834.267	25715
834.406	25647
834.544	25635
834.682	25578
834.821	25613
834.959	25894
835.097	25506
835.235	25670
835.373	25620
835.511	25578
835.65	25491
835.788	25510
835.926	25263
836.064	25278
836.202	25285
836.34	25384
836.478	25548
836.615	25415
836.753	25350
836.891	25575
837.029	25377
837.167	25263
837.305	25358
837.443	25362
837.58	25168
837.718	25225
837.856	25308
837.993	25122
838.131	25206
838.269	25110
838.406	25137
838.544	24958
838.681	24798
838.819	24760
838.956	24700
839.094	24764
839.231	24711
839.369	24901
839.506	25004
839.643	25015
839.781	24856
839.918	24639
840.055	24673
840.193	24608
840.33	24559
840.467	24608
840.604	24639
840.742	24852
840.879	24547
841.016	24471
841.153	24486
841.29	24604
841.427	24513
841.564	24608
841.701	24639
841.838	24601
841.975	24448
842.112	24563
842.249	24224
842.385	24426
842.522	24559
842.659	24525
842.796	24346
842.933	24437
843.069	24361
843.206	24144
843.343	24426
843.479	24452
843.616	24228
843.752	24125
843.889	24136
844.025	24315
844.162	23996
844.298	24144
844.435	24163
844.571	24045
844.708	24171
844.844	24224
844.98	24372
845.117	24194
845.253	24091
845.389	24007
845.525	24049
845.661	23946
845.798	23980
845.934	24015
846.07	23843
846.206	23912
846.342	24018
846.478	23908
846.614	23665
846.75	23524
846.886	23570
847.022	23756
847.158	23562
847.294	23520
847.429	23646
847.565	23531
847.701	23863
847.837	23193
847.972	23239
848.108	23345
848.244	23212
848.379	23242
848.515	23132
848.65	23155
848.786	23258
848.921	23193
849.057	23227
849.192	23284
849.328	23197
849.463	23037
849.598	23067
849.734	23132
849.869	23071
850.004	22976
850.14	22927
850.275	22938
850.41	23029
850.545	22786
850.68	22915
850.815	22915
850.95	22991
851.085	22968
851.22	23151
851.355	22953
851.49	23075
851.625	22896
851.76	22847
851.895	22892
852.03	22843
852.165	23010
852.299	22938
852.434	22991
852.569	23029
852.703	22976
852.838	22866
852.973	23037
853.107	23075
853.242	22889
853.376	22812
853.511	22702
853.645	22691
853.78	22691
853.914	22702
854.048	22713
854.183	22767
854.317	22831
854.451	22839
854.585	22759
854.72	22740
854.854	22763
854.988	22664
855.122	22793
855.256	22611
855.39	22710
855.524	22767
855.658	22763
855.792	22915
855.926	22740
856.06	22824
856.194	22725
856.327	22752
856.461	22812
856.595	22664
856.729	22736
856.862	22828
856.996	22900
857.13	22774
857.263	22866
857.397	22843
857.53	22717
857.664	22702
857.797	22740
857.931	22927
858.064	22820
858.197	22812
858.331	22831
858.464	22721
858.597	22736
858.731	22698
858.864	22805
858.997	22755
859.13	22740
859.263	22687
859.396	22850
859.529	22805
859.662	22778
859.795	22816
859.928	22862
860.061	22965
860.194	23025
860.327	22919
860.46	22763
860.592	23022
860.725	22968
860.858	22828
860.99	22816
861.123	22691
861.256	22725
861.388	22733
861.521	23425
861.653	22634
861.786	22565
861.918	22577
862.05	22611
862.183	22672
862.315	22630
862.447	22809
862.58	22683
862.712	22405
862.844	22242
862.976	22664
863.108	22637
863.24	22824
863.372	22398
863.504	22443
863.636	22417
863.768	22550
863.9	22405
864.032	22436
864.164	22398
864.296	22603
864.428	22588
864.559	22561
864.691	22447
864.823	22436
864.954	22535
865.086	22440
865.217	22356
865.349	22394
865.48	22310
865.612	22394
865.743	22577
865.875	22382
866.006	22417
866.137	22204
866.269	22386
866.4	22356
866.531	22287
866.662	22188
866.793	22177
866.924	22295
867.055	22257
867.186	22226
867.317	22363
867.448	22063
867.579	22192
867.71	22181
867.841	22223
867.972	22230
868.103	22207
868.233	22265
868.364	22261
868.495	22303
868.625	22409
868.756	22645
868.886	22421
869.017	22451
869.147	22569
869.278	22622
869.408	22577
869.539	22386
869.669	22664
869.799	22466
869.929	22565
870.06	22615
870.19	22812
870.32	22748
870.45	22953
870.58	22847
870.71	22984
870.84	23048
870.97	23044
871.1	22850
871.23	23086
871.36	23044
871.489	22911
871.619	23025
871.749	23136
871.879	23189
872.008	23181
872.138	23090
872.267	23216
872.397	22984
872.526	22927
872.656	22942
872.785	22930
872.915	23048
873.044	23162
873.173	23189
873.303	23159
873.432	23060
873.561	23364
873.69	23124
873.819	23117
873.948	23204
874.077	23162
874.206	23128
874.335	23121
874.464	23200
874.593	23315
874.722	23410
874.851	23406
874.979	23330
875.108	23383
875.237	23292
875.365	23216
875.494	23280
875.623	23349
875.751	23269
875.88	23315
876.008	23425
876.136	23581
876.265	23809
876.393	23783
876.521	23771
876.65	23859
876.778	23726
876.906	23623
877.034	23684
877.162	23714
877.29	23615
877.418	23710
877.546	23623
877.674	23676
877.802	23589
877.93	23646
878.058	23771
878.185	23649
878.313	23570
878.441	23600
878.568	23414
878.696	23543
878.824	23653
878.951	23809
879.079	23790
879.206	23980
879.333	23718
879.461	23752
879.588	23882
879.715	23779
879.842	23939
879.97	23764
880.097	23440
880.224	23509
880.351	23516
880.478	23524
880.605	23242
880.732	23467
880.859	23695
880.986	23452
881.112	23592
881.239	23322
881.366	23330
881.493	23151
881.619	22995
881.746	22995
881.872	23018
881.999	22930
882.125	22976
882.252	23223
882.378	22957
882.505	23083
882.631	22839
882.757	22721
882.883	22839
883.01	22698
883.136	22694
883.262	22550
883.388	22428
883.514	22675
883.64	22675
883.766	22717
883.892	22516
884.018	22470
884.143	22634
884.269	22618
884.395	22375
884.52	22459
884.646	22276
884.772	22280
884.897	22242
885.023	22291
885.148	22379
885.274	22409
885.399	22455
885.524	22337
885.65	22436
885.775	22394
885.9	22249
886.025	22295
886.15	22478
886.275	22280
886.4	22280
886.525	22306
886.65	22226
886.775	22215
886.9	22394
887.025	22569
887.149	22280
887.274	22074
887.399	22150
887.523	22067
887.648	22223
887.773	21991
887.897	22219
888.021	21994
888.146	22010
888.27	22112
888.395	22211
888.519	22082
888.643	22215
888.767	22150
888.891	22059
889.015	21941
889.139	21975
889.263	21808
889.387	21934
889.511	22135
889.635	21979
889.759	21922
889.883	21907
890.006	21926
890.13	21911
890.254	21701
890.377	21876
890.501	21519
890.624	21694
890.748	21694
890.871	21504
890.995	21367
891.118	21367
891.241	21542
891.364	21595
891.488	21542
891.611	21492
891.734	21466
891.857	21370
891.98	21485
892.103	21500
892.226	21450
892.349	21401
892.471	21195
892.594	21332
892.717	21424
892.839	21355
892.962	21279
893.085	21420
893.207	21386
893.33	21306
893.452	21192
893.575	21389
893.697	21287
893.819	21408
893.941	21431
894.064	21412
894.186	21203
894.308	21150
894.43	21367
894.552	21439
894.674	21340
894.796	21203
894.918	21302
895.04	21233
895.161	21359
895.283	21165
895.405	21370
895.526	21245
895.648	21272
895.769	21252
895.891	21348
896.012	21355
896.134	21317
896.255	21336
896.376	21184
896.498	21272
896.619	21268
896.74	21313
896.861	21424
896.982	21580
897.103	21705
897.224	21542
897.345	21523
897.466	21382
897.587	21374
897.708	21686
897.828	21500
897.949	21473
898.07	21405
898.19	21469
898.311	21435
898.431	21428
898.552	21443
898.672	21523
898.792	21500
898.913	21507
899.033	21447
899.153	21291
899.273	21093
899.393	21252
899.513	21214
899.633	21203
899.753	21214
899.873	21047
899.993	21146
900.113	21131
900.232	21252
900.352	21024
900.472	21085
900.591	20819
900.711	20925
900.83	20902
900.95	21039
901.069	21058
901.189	20754
901.308	20651
901.427	20564
901.546	20579
901.665	20511
901.784	20629
901.904	20423
902.023	20385
902.141	20103
902.26	20149
902.379	20161
902.498	20020
902.617	20043
902.735	20050
902.854	20020
902.973	20039
903.091	19723
903.21	19708
903.328	19784
903.446	19495
903.565	19521
903.683	19476
903.801	19396
903.919	19460
904.038	19373
904.156	19251
904.274	19392
904.392	19171
904.51	19156
904.627	19301
904.745	19278
904.863	19297
904.981	19084
905.098	18859
905.216	18863
905.334	18943
905.451	18943
905.569	18863
905.686	19000
905.803	18989
905.921	18764
906.038	18768
906.155	18840
906.272	18631
906.389	18635
906.506	18418
906.623	18494
906.74	18486
906.857	18357
906.974	18460
907.091	18475
907.208	18532
907.324	18407
907.441	18441
907.557	18190
907.674	18129
907.79	18091
907.907	18174
908.023	18174
908.139	18182
908.256	18072
908.372	18076
908.488	17973
908.604	17950
908.72	17965
908.836	17939
908.952	17752
909.068	17950
909.184	18030
909.3	17889
909.415	17973
909.531	17760
909.647	17558
909.762	17573
909.878	17619
909.993	17657
910.108	17623
910.224	17501
910.339	17509
910.454	17406
910.57	17349
910.685	17318
910.8	17558
910.915	17474
911.03	17296
911.145	17124
911.259	17124
911.374	17189
911.489	17102
911.604	16957
911.718	16904
911.833	16896
911.947	16862
912.062	16824
912.176	16847
912.291	16999
912.405	16904
912.519	17018
912.633	17052
912.748	16908
912.862	16790
912.976	16706
913.09	16584
913.204	16664
913.318	16649
913.431	16793
913.545	16805
913.659	16679
913.772	16637
913.886	16516
914	16413
914.113	16561
914.226	16443
914.34	16546
914.453	16390
914.566	16455
914.68	16333
914.793	16352
914.906	16128
915.019	16112
915.132	15994
915.245	16002
915.358	16021
915.47	16059
915.583	16082
915.696	16048
915.809	16185
915.921	16128
916.034	16040
916.146	15987
916.259	15880
916.371	15964
916.483	15956
916.595	15953
916.708	15827
916.82	15876
916.932	15812
917.044	15819
917.156	15690
917.268	15625
917.38	15743
917.491	15652
917.603	15625
917.715	15812
917.826	15724
917.938	15515
918.049	15530
918.161	15690
918.272	15755
918.384	15701
918.495	15553
918.606	15488
918.717	15325
918.828	15393
918.939	15454
919.05	15370
919.161	15332
919.272	15249
919.383	15157
919.494	15439
919.604	15614
919.715	15447
919.826	15393
919.936	15359
920.047	15469
920.157	15344
920.267	15553
920.378	15321
920.488	15393
920.598	15488
920.708	15694
920.818	15488
920.928	15454
921.038	15603
921.148	15622
921.258	15226
921.368	15203
921.477	15123
921.587	15036
921.697	15100
921.806	15237
921.916	14986
922.025	14708
922.134	14708
922.244	14750
922.353	14845
922.462	14655
922.571	14499
922.68	14328
922.789	14366
922.898	14374
923.007	14317
923.116	14374
923.224	14347
923.333	14351
923.442	14336
923.55	14240
923.659	14206
923.767	14225
923.876	14168
923.984	14206
924.092	14035
924.201	14115
924.309	14050
924.417	14107
924.525	13940
924.633	14050
924.741	14948
924.849	13814
924.956	13955
925.064	13765
925.172	13700
925.279	13666
925.387	13795
925.494	13753
925.602	13868
925.709	13704
925.816	13685
925.924	13674
926.031	13666
926.138	13658
926.245	13670
926.352	13567
926.459	13719
926.566	13685
926.673	13609
926.779	13483
926.886	13468
926.993	13266
927.099	13350
927.206	13225
927.312	13221
927.419	13278
927.525	13403
927.631	13251
927.737	13198
927.843	13084
927.95	12970
928.056	13076
928.162	13175
928.267	13187
928.373	13609
928.479	13118
928.585	12871
928.69	13160
928.796	13088
928.901	12890
929.007	12840
929.112	13000
929.218	12928
929.323	12768
929.428	12840
929.533	12814
929.638	12681
929.743	12688
929.848	12760
929.953	12711
930.058	12528
930.163	12414
930.267	12517
930.372	12608
930.477	12460
930.581	12700
930.685	12525
930.79	12273
930.894	12353
930.998	12346
931.103	12388
931.207	12060
931.311	11996
931.415	11897
931.519	11676
931.623	11771
