Data from test_V78500241_1962.txt Node
Date: Fri Mar 25 15:55:23 CST 2022
User: usil
Spectrometer: V785-0024
Trigger mode: 0
Integration Time (sec): 4.000000E-1
Scans to average: 1
Nonlinearity correction enabled: false
Boxcar width: 0
Storing dark spectrum: false
XAxis mode: Wavelengths
Number of Pixels in Spectrum: 1024
>>>>>Begin Spectral Data<<<<<
801.071	28691
801.214	28710
801.356	28413
801.499	28318
801.641	28200
801.783	28299
801.926	28299
802.068	28246
802.211	28299
802.353	28204
802.496	28013
802.638	28036
802.78	27873
802.923	27842
803.065	27842
803.208	27968
803.35	27972
803.492	28105
803.635	28143
803.777	28048
803.919	28192
804.061	28550
804.204	28253
804.346	28131
804.488	28067
804.63	28207
804.773	28021
804.915	28181
805.057	28455
805.199	28322
805.341	28249
805.483	28363
805.626	28234
805.768	28147
805.91	28516
806.052	28489
806.194	28158
806.336	28436
806.478	28287
806.62	28424
806.762	28561
806.904	28759
807.046	28752
807.188	28812
807.33	28805
807.472	28854
807.614	28706
807.756	28710
807.898	28706
808.04	28725
808.182	28649
808.324	28607
808.465	28782
808.607	28862
808.749	28919
808.891	29067
809.033	29109
809.174	29170
809.316	28949
809.458	28915
809.6	28976
809.741	29124
809.883	29117
810.025	29227
810.166	29318
810.308	29303
810.45	29181
810.591	29105
810.733	29052
810.875	28972
811.016	29117
811.158	29067
811.299	29071
811.441	29265
811.582	29178
811.724	29048
811.865	29037
812.007	29094
812.148	28999
812.29	28999
812.431	29197
812.573	29356
812.714	29318
812.855	29589
812.997	29611
813.138	29802
813.279	29653
813.421	29638
813.562	29520
813.703	29330
813.845	29337
813.986	29048
814.127	28866
814.268	28733
814.41	28835
814.551	28771
814.692	28805
814.833	28607
814.974	28694
815.115	28774
815.256	28622
815.397	28698
815.539	28535
815.68	28550
815.821	28443
815.962	28615
816.103	28683
816.244	28436
816.385	28371
816.526	28188
816.666	28177
816.807	27930
816.948	28128
817.089	28124
817.23	28177
817.371	27994
817.512	27987
817.653	28143
817.793	27918
817.934	28006
818.075	28036
818.216	27960
818.356	27903
818.497	27968
818.638	27751
818.778	27728
818.919	27895
819.06	27701
819.2	27968
819.341	27911
819.481	28116
819.622	28249
819.762	28462
819.903	28360
820.043	28261
820.184	28246
820.324	28147
820.465	28135
820.605	28196
820.746	28211
820.886	28010
821.026	28112
821.167	28112
821.307	28192
821.447	27987
821.588	27922
821.728	27884
821.868	27538
822.008	27633
822.149	27367
822.289	27523
822.429	27214
822.569	27131
822.709	27131
822.849	27138
822.99	26948
823.13	26944
823.27	26933
823.41	26823
823.55	26864
823.69	26804
823.83	26876
823.97	26781
824.11	26689
824.25	26644
824.389	26705
824.529	26785
824.669	26632
824.809	26754
824.949	26758
825.089	26712
825.228	26701
825.368	26511
825.508	26526
825.648	26590
825.787	26587
825.927	26781
826.067	26507
826.206	26689
826.346	26590
826.485	26644
826.625	26514
826.765	26689
826.904	26629
827.044	26259
827.183	26404
827.323	26233
827.462	26218
827.601	26305
827.741	26271
827.88	26317
828.02	26161
828.159	26195
828.298	26210
828.437	26419
828.577	26199
828.716	26450
828.855	26142
828.994	26008
829.134	26035
829.273	26024
829.412	25925
829.551	25845
829.69	25921
829.829	26020
829.968	25955
830.107	26027
830.246	25917
830.385	25868
830.524	25826
830.663	25769
830.802	25487
830.941	25499
831.08	25601
831.219	25575
831.357	25514
831.496	25795
831.635	25594
831.774	25419
831.913	25426
832.051	25278
832.19	25289
832.329	25430
832.467	25324
832.606	25202
832.744	25114
832.883	25194
833.022	25274
833.16	25209
833.299	25381
833.437	25289
833.576	25400
833.714	25285
833.852	25327
833.991	25285
834.129	25415
834.267	25343
834.406	25263
834.544	25266
834.682	25365
834.821	25304
834.959	25407
835.097	25175
835.235	25194
835.373	25285
835.511	25179
835.65	25145
835.788	25103
835.926	25042
836.064	24966
836.202	24817
836.34	25187
836.478	25320
836.615	25065
836.753	25145
836.891	25187
837.029	25065
837.167	25141
837.305	24939
837.443	24882
837.58	24943
837.718	25000
837.856	24890
837.993	24909
838.131	24863
838.269	24798
838.406	24825
838.544	24692
838.681	24627
838.819	24631
838.956	24429
839.094	24334
839.231	24486
839.369	24677
839.506	24768
839.643	24646
839.781	24479
839.918	24376
840.055	24475
840.193	24509
840.33	24251
840.467	24308
840.604	24407
840.742	24715
840.879	24152
841.016	24243
841.153	24159
841.29	24437
841.427	24266
841.564	24391
841.701	24330
841.838	24369
841.975	24205
842.112	24152
842.249	24155
842.385	24003
842.522	24235
842.659	24022
842.796	23999
842.933	23996
843.069	24030
843.206	23954
843.343	24011
843.479	24083
843.616	24034
843.752	23901
843.889	23977
844.025	23923
844.162	23798
844.298	23901
844.435	23832
844.571	23764
844.708	23847
844.844	23965
844.98	23916
845.117	23984
845.253	23809
845.389	23756
845.525	23596
845.661	23684
845.798	23573
845.934	23554
846.07	23448
846.206	23615
846.342	23657
846.478	23452
846.614	23326
846.75	23246
846.886	23292
847.022	23349
847.158	23299
847.294	23322
847.429	23326
847.565	23261
847.701	23467
847.837	23067
847.972	23117
848.108	23064
848.244	23048
848.379	22995
848.515	22915
848.65	22900
848.786	22839
848.921	22892
849.057	23048
849.192	22953
849.328	22930
849.463	22892
849.598	22824
849.734	22820
849.869	22713
850.004	22618
850.14	22603
850.275	22691
850.41	22588
850.545	22615
850.68	22542
850.815	22569
850.95	22531
851.085	22763
851.22	22698
851.355	22630
851.49	22561
851.625	22599
851.76	22748
851.895	22668
852.03	22599
852.165	22653
852.299	22710
852.434	22641
852.569	22733
852.703	22588
852.838	22687
852.973	22816
853.107	22820
853.242	22603
853.376	22428
853.511	22329
853.645	22417
853.78	22592
853.914	22436
854.048	22470
854.183	22421
854.317	22550
854.451	22755
854.585	22367
854.72	22447
854.854	22474
854.988	22348
855.122	22436
855.256	22303
855.39	22516
855.524	22478
855.658	22504
855.792	22641
855.926	22440
856.06	22565
856.194	22561
856.327	22413
856.461	22341
856.595	22417
856.729	22455
856.862	22493
856.996	22497
857.13	22584
857.263	22569
857.397	22478
857.53	22379
857.664	22489
857.797	22607
857.931	22592
858.064	22417
858.197	22611
858.331	22382
858.464	22413
858.597	22276
858.731	22523
858.864	22398
858.997	22386
859.13	22500
859.263	22375
859.396	22622
859.529	22466
859.662	22344
859.795	22363
859.928	22466
860.061	22519
860.194	22721
860.327	22443
860.46	22413
860.592	22531
860.725	22683
860.858	22630
860.99	22443
861.123	22459
861.256	22341
861.388	22512
861.521	23223
861.653	22268
861.786	22265
861.918	22253
862.05	22440
862.183	22386
862.315	22424
862.447	22443
862.58	22280
862.712	22086
862.844	22143
862.976	22322
863.108	22318
863.24	22588
863.372	22093
863.504	22230
863.636	22162
863.768	22280
863.9	22181
864.032	22093
864.164	22158
864.296	22150
864.428	22253
864.559	22128
864.691	22268
864.823	22150
864.954	22253
865.086	22173
865.217	22059
865.349	22029
865.48	22105
865.612	22124
865.743	22055
865.875	22093
866.006	22055
866.137	22029
866.269	21945
866.4	21983
866.531	21968
866.662	21975
866.793	21960
866.924	21972
867.055	22051
867.186	21953
867.317	21972
867.448	21865
867.579	21934
867.71	21941
867.841	21831
867.972	21968
868.103	21945
868.233	22040
868.364	21846
868.495	22051
868.625	22200
868.756	22379
868.886	22010
869.017	22310
869.147	22234
869.278	22185
869.408	22363
869.539	22268
869.669	22272
869.799	22341
869.929	22337
870.06	22379
870.19	22618
870.32	22413
870.45	22489
870.58	22672
870.71	22717
870.84	22729
870.97	22622
871.1	22459
871.23	22736
871.36	22763
871.489	22774
871.619	22824
871.749	22812
871.879	22801
872.008	22927
872.138	22752
872.267	22698
872.397	22778
872.526	22664
872.656	22615
872.785	22538
872.915	22820
873.044	22858
873.173	22850
873.303	22862
873.432	22866
873.561	22866
873.69	22672
873.819	22873
873.948	22946
874.077	22854
874.206	22877
874.335	22774
874.464	22953
874.593	23071
874.722	23079
874.851	23003
874.979	23086
875.108	23098
875.237	22919
875.365	22908
875.494	22999
875.623	23086
875.751	23006
875.88	23041
876.008	23041
876.136	23254
876.265	23406
876.393	23646
876.521	23486
876.65	23497
876.778	23383
876.906	23379
877.034	23307
877.162	23425
877.29	23360
877.418	23356
877.546	23280
877.674	23372
877.802	23421
877.93	23265
878.058	23220
878.185	23265
878.313	23318
878.441	23349
878.568	23307
878.696	23292
878.824	23318
878.951	23376
879.079	23531
879.206	23562
879.333	23566
879.461	23414
879.588	23497
879.715	23570
879.842	23680
879.97	23528
880.097	23406
880.224	23235
880.351	23098
880.478	23322
880.605	23037
880.732	23208
880.859	23490
880.986	23220
881.112	23216
881.239	23105
881.366	23018
881.493	22908
881.619	22816
881.746	22752
881.872	22729
881.999	22702
882.125	22592
882.252	22744
882.378	22759
882.505	22946
882.631	22557
882.757	22424
882.883	22569
883.01	22413
883.136	22318
883.262	22379
883.388	22443
883.514	22504
883.64	22405
883.766	22337
883.892	22272
884.018	22284
884.143	22443
884.269	22436
884.395	22105
884.52	22017
884.646	22086
884.772	21979
884.897	21964
885.023	22067
885.148	22074
885.274	22261
885.399	22116
885.524	22067
885.65	22017
885.775	22177
885.9	22185
886.025	22131
886.15	22112
886.275	21987
886.4	21895
886.525	22044
886.65	22090
886.775	21979
886.9	22017
887.025	22333
887.149	22029
887.274	21800
887.399	21972
887.523	21762
887.648	21850
887.773	21644
887.897	21892
888.021	21838
888.146	21736
888.27	21876
888.395	21827
888.519	21842
888.643	21915
888.767	21762
888.891	21812
889.015	21618
889.139	21641
889.263	21545
889.387	21827
889.511	21854
889.635	21675
889.759	21511
889.883	21477
890.006	21557
890.13	21724
890.254	21378
890.377	21511
890.501	21310
890.624	21351
890.748	21397
890.871	21291
890.995	21226
891.118	21195
891.241	21184
891.364	21127
891.488	21176
891.611	21096
891.734	21089
891.857	21161
891.98	21233
892.103	21127
892.226	21062
892.349	21165
892.471	20883
892.594	20948
892.717	21081
892.839	20990
892.962	21077
893.085	21154
893.207	21070
893.33	20982
893.452	21032
893.575	21131
893.697	21039
893.819	21188
893.941	21291
894.064	21241
894.186	21005
894.308	20872
894.43	21089
894.552	21131
894.674	21165
894.796	20861
894.918	20941
895.04	20925
895.161	21070
895.283	20929
895.405	20925
895.526	21001
895.648	20998
895.769	21135
895.891	21119
896.012	21131
896.134	21085
896.255	20933
896.376	20982
896.498	21043
896.619	21108
896.74	21051
896.861	21195
896.982	21249
897.103	21591
897.224	21283
897.345	21249
897.466	21173
897.587	21272
897.708	21416
897.828	21252
897.949	21260
898.07	21001
898.19	21138
898.311	21268
898.431	21096
898.552	21176
898.672	21367
898.792	21325
898.913	21332
899.033	21074
899.153	21028
899.273	20819
899.393	20948
899.513	21032
899.633	20899
899.753	20986
899.873	20823
899.993	20864
900.113	20910
900.232	21077
900.352	20845
900.472	20880
900.591	20716
900.711	20769
900.83	20697
900.95	20762
901.069	20777
901.189	20564
901.308	20431
901.427	20351
901.546	20294
901.665	20339
901.784	20412
901.904	20271
902.023	20138
902.141	19803
902.26	19955
902.379	19913
902.498	19788
902.617	19761
902.735	19822
902.854	19807
902.973	19731
903.091	19525
903.21	19411
903.328	19403
903.446	19339
903.565	19301
903.683	19164
903.801	19107
903.919	19282
904.038	19240
904.156	19061
904.274	19156
904.392	18954
904.51	18977
904.627	18943
904.745	19076
904.863	19084
904.981	18753
905.098	18585
905.216	18566
905.334	18722
905.451	18700
905.569	18681
905.686	18722
905.803	18646
905.921	18475
906.038	18521
906.155	18494
906.272	18422
906.389	18399
906.506	18098
906.623	18209
906.74	18182
906.857	18102
906.974	18076
907.091	18330
907.208	18391
907.324	18228
907.441	18083
907.557	17897
907.674	17851
907.79	17859
907.907	17927
908.023	17904
908.139	17973
908.256	17824
908.372	17824
908.488	17794
908.604	17668
908.72	17668
908.836	17623
908.952	17562
909.068	17547
909.184	17821
909.3	17627
909.415	17684
909.531	17611
909.647	17318
909.762	17379
909.878	17356
909.993	17383
910.108	17391
910.224	17398
910.339	17376
910.454	17220
910.57	17223
910.685	17140
910.8	17311
910.915	17280
911.03	17105
911.145	16972
911.259	16968
911.374	16968
911.489	16816
911.604	16824
911.718	16683
911.833	16717
911.947	16580
912.062	16577
912.176	16599
912.291	16687
912.405	16660
912.519	16885
912.633	16858
912.748	16729
912.862	16577
912.976	16550
913.09	16348
913.204	16455
913.318	16481
913.431	16592
913.545	16542
913.659	16698
913.772	16489
913.886	16310
914	16303
914.113	16249
914.226	16519
914.34	16371
914.453	16177
914.566	16223
914.68	16207
914.793	16120
914.906	16040
915.019	15842
915.132	15857
915.245	15930
915.358	15838
915.47	15694
915.583	15892
915.696	15861
915.809	15892
915.921	16006
916.034	15857
916.146	15736
916.259	15800
916.371	15778
916.483	15846
916.595	15686
916.708	15739
916.82	15778
916.932	15591
917.044	15633
917.156	15542
917.268	15443
917.38	15538
917.491	15526
917.603	15500
917.715	15576
917.826	15561
917.938	15439
918.049	15329
918.161	15488
918.272	15511
918.384	15606
918.495	15405
918.606	15237
918.717	15222
918.828	15226
918.939	15203
919.05	15165
919.161	15203
919.272	15024
919.383	15074
919.494	15275
919.604	15382
919.715	15268
919.826	15131
919.936	15195
920.047	15264
920.157	15176
920.267	15393
920.378	15249
920.488	15047
920.598	15329
920.708	15523
920.818	15329
920.928	15214
921.038	15504
921.148	15435
921.258	15123
921.368	15009
921.477	15001
921.587	14830
921.697	14724
921.806	14910
921.916	14815
922.025	14617
922.134	14610
922.244	14427
922.353	14556
922.462	14351
922.571	14377
922.68	14240
922.789	14199
922.898	14244
923.007	14100
923.116	14176
923.224	14149
923.333	14081
923.442	13978
923.55	14050
923.659	14020
923.767	14065
923.876	13906
923.984	13944
924.092	13921
924.201	13982
924.309	13909
924.417	13845
924.525	13890
924.633	13856
924.741	14777
924.849	13582
924.956	13742
925.064	13556
925.172	13559
925.279	13559
925.387	13601
925.494	13567
925.602	13666
925.709	13537
925.816	13441
925.924	13540
926.031	13613
926.138	13548
926.245	13495
926.352	13354
926.459	13529
926.566	13559
926.673	13460
926.779	13289
926.886	13350
926.993	13198
927.099	13156
927.206	13046
927.312	13015
927.419	13076
927.525	13008
927.631	13110
927.737	13015
927.843	12951
927.95	12875
928.056	12962
928.162	12863
928.267	12928
928.373	13601
928.479	12989
928.585	12715
928.69	12829
928.796	12859
928.901	12734
929.007	12601
929.112	12787
929.218	12776
929.323	12662
929.428	12635
929.533	12696
929.638	12597
929.743	12551
929.848	12639
929.953	12551
930.058	12456
930.163	12277
930.267	12319
930.372	12464
930.477	12262
930.581	12544
930.685	12334
930.79	12197
930.894	12182
930.998	12136
931.103	12315
931.207	11999
931.311	11859
931.415	11790
931.519	11547
931.623	11554
