Data from test_V78500241_733.txt Node
Date: Fri Mar 25 15:46:52 CST 2022
User: usil
Spectrometer: V785-0024
Trigger mode: 0
Integration Time (sec): 4.000000E-1
Scans to average: 1
Nonlinearity correction enabled: false
Boxcar width: 0
Storing dark spectrum: false
XAxis mode: Wavelengths
Number of Pixels in Spectrum: 1024
>>>>>Begin Spectral Data<<<<<
801.071	28333
801.214	28337
801.356	28006
801.499	27911
801.641	27751
801.783	27812
801.926	27914
802.068	27937
802.211	27610
802.353	27679
802.496	27469
802.638	27488
802.78	27591
802.923	27466
803.065	27450
803.208	27591
803.35	27504
803.492	27694
803.635	27625
803.777	27629
803.919	27724
804.061	28074
804.204	27720
804.346	27606
804.488	27591
804.63	27797
804.773	27591
804.915	27686
805.057	27926
805.199	27838
805.341	27766
805.483	27968
805.626	27804
805.768	27785
805.91	27914
806.052	27755
806.194	27720
806.336	28010
806.478	27800
806.62	27842
806.762	27972
806.904	28013
807.046	28337
807.188	28318
807.33	28306
807.472	28443
807.614	28181
807.756	28272
807.898	28162
808.04	27979
808.182	28025
808.324	28158
808.465	28284
808.607	28462
808.749	28626
808.891	28630
809.033	28759
809.174	28535
809.316	28740
809.458	28607
809.6	28417
809.741	28622
809.883	28736
810.025	28835
810.166	28919
810.308	28850
810.45	28694
810.591	28778
810.733	28550
810.875	28516
811.016	28443
811.158	28440
811.299	28710
811.441	28759
811.582	28706
811.724	28535
811.865	28485
812.007	28660
812.148	28656
812.29	28470
812.431	28630
812.573	28938
812.714	28847
812.855	29025
812.997	29254
813.138	29349
813.279	29105
813.421	29105
813.562	28961
813.703	28858
813.845	28850
813.986	28470
814.127	28299
814.268	28284
814.41	28314
814.551	28325
814.692	28257
814.833	28192
814.974	28238
815.115	28295
815.256	28078
815.397	28150
815.539	28032
815.68	28078
815.821	27991
815.962	27884
816.103	28029
816.244	28044
816.385	27907
816.526	27869
816.666	27656
816.807	27469
816.948	27545
817.089	27583
817.23	27663
817.371	27500
817.512	27694
817.653	27599
817.793	27447
817.934	27545
818.075	27568
818.216	27507
818.356	27424
818.497	27420
818.638	27218
818.778	27222
818.919	27332
819.06	27397
819.2	27504
819.341	27610
819.481	27561
819.622	27625
819.762	27934
819.903	27857
820.043	27816
820.184	27553
820.324	27778
820.465	27519
820.605	27679
820.746	27652
820.886	27629
821.026	27606
821.167	27660
821.307	27709
821.447	27564
821.588	27515
821.728	27447
821.868	27195
822.008	27096
822.149	26933
822.289	26998
822.429	26701
822.569	26735
822.709	26636
822.849	26632
822.99	26518
823.13	26590
823.27	26651
823.41	26457
823.55	26259
823.69	26294
823.83	26191
823.97	26164
824.11	26218
824.25	26195
824.389	26252
824.529	26446
824.669	26233
824.809	26419
824.949	26313
825.089	26233
825.228	26259
825.368	26065
825.508	25982
825.648	26142
825.787	26138
825.927	26119
826.067	26130
826.206	26054
826.346	26183
826.485	26100
826.625	26130
826.765	26084
826.904	26153
827.044	25799
827.183	26024
827.323	25791
827.462	25936
827.601	25776
827.741	25811
827.88	25788
828.02	25666
828.159	25677
828.298	25849
828.437	25822
828.577	25613
828.716	25921
828.855	25655
828.994	25476
829.134	25575
829.273	25499
829.412	25396
829.551	25502
829.69	25502
829.829	25415
829.968	25674
830.107	25483
830.246	25525
830.385	25426
830.524	25358
830.663	25350
830.802	25304
830.941	25206
831.08	25118
831.219	25206
831.357	25183
831.496	25236
831.635	25190
831.774	25046
831.913	24981
832.051	24947
832.19	24954
832.329	24875
832.467	24821
832.606	24738
832.744	24703
832.883	24715
833.022	24738
833.16	24749
833.299	24817
833.437	24700
833.576	24977
833.714	24859
833.852	24817
833.991	24776
834.129	24829
834.267	24954
834.406	24753
834.544	24856
834.682	24951
834.821	24772
834.959	25012
835.097	24760
835.235	24760
835.373	24768
835.511	24753
835.65	24601
835.788	24719
835.926	24555
836.064	24407
836.202	24578
836.34	24661
836.478	24745
836.615	24753
836.753	24711
836.891	24658
837.029	24608
837.167	24563
837.305	24696
837.443	24513
837.58	24494
837.718	24798
837.856	24505
837.993	24467
838.131	24475
838.269	24414
838.406	24334
838.544	24228
838.681	24091
838.819	24041
838.956	23965
839.094	24026
839.231	24140
839.369	24114
839.506	24292
839.643	24254
839.781	23950
839.918	23958
840.055	23885
840.193	23912
840.33	23942
840.467	23912
840.604	23954
840.742	24167
840.879	23703
841.016	23840
841.153	23729
841.29	24022
841.427	23832
841.564	23893
841.701	23897
841.838	23893
841.975	23680
842.112	23672
842.249	23646
842.385	23680
842.522	23699
842.659	23710
842.796	23634
842.933	23756
843.069	23558
843.206	23452
843.343	23699
843.479	23577
843.616	23547
843.752	23448
843.889	23425
844.025	23577
844.162	23360
844.298	23520
844.435	23398
844.571	23334
844.708	23497
844.844	23455
844.98	23452
845.117	23490
845.253	23254
845.389	23200
845.525	23292
845.661	23269
845.798	23094
845.934	23132
846.07	23090
846.206	23140
846.342	23178
846.478	23006
846.614	22915
846.75	22691
846.886	22809
847.022	22930
847.158	22809
847.294	22835
847.429	22946
847.565	22885
847.701	23006
847.837	22569
847.972	22497
848.108	22679
848.244	22557
848.379	22683
848.515	22516
848.65	22470
848.786	22447
848.921	22451
849.057	22497
849.192	22584
849.328	22493
849.463	22447
849.598	22508
849.734	22318
849.869	22291
850.004	22143
850.14	22162
850.275	22322
850.41	22105
850.545	22124
850.68	22124
850.815	22295
850.95	22177
851.085	22356
851.22	22356
851.355	22211
851.49	22226
851.625	22234
851.76	22093
851.895	22105
852.03	22044
852.165	22230
852.299	22166
852.434	22188
852.569	22169
852.703	22181
852.838	22226
852.973	22169
853.107	22257
853.242	22070
853.376	22086
853.511	21953
853.645	22051
853.78	22097
853.914	22040
854.048	21956
854.183	21975
854.317	22017
854.451	22303
854.585	21998
854.72	22029
854.854	22025
854.988	21857
855.122	21937
855.256	21930
855.39	21945
855.524	22032
855.658	21998
855.792	22063
855.926	21949
856.06	22105
856.194	22013
856.327	21880
856.461	21994
856.595	22040
856.729	21968
856.862	22135
856.996	21953
857.13	22093
857.263	22074
857.397	22097
857.53	22105
857.664	21994
857.797	22044
857.931	22173
858.064	21975
858.197	22082
858.331	21979
858.464	21884
858.597	21808
858.731	22067
858.864	22010
858.997	21998
859.13	21979
859.263	21861
859.396	22032
859.529	21918
859.662	22051
859.795	21850
859.928	21907
860.061	22177
860.194	22192
860.327	22196
860.46	22051
860.592	22112
860.725	22238
860.858	22192
860.99	22010
861.123	22040
861.256	22017
861.388	21968
861.521	22653
861.653	21804
861.786	21812
861.918	21884
862.05	21842
862.183	21975
862.315	22040
862.447	21991
862.58	21911
862.712	21686
862.844	21755
862.976	21876
863.108	21804
863.24	22337
863.372	21686
863.504	21739
863.636	21614
863.768	21728
863.9	21709
864.032	21576
864.164	21682
864.296	21705
864.428	21808
864.559	21732
864.691	21663
864.823	21732
864.954	21739
865.086	21682
865.217	21770
865.349	21545
865.48	21739
865.612	21526
865.743	21766
865.875	21682
866.006	21511
866.137	21671
866.269	21591
866.4	21534
866.531	21530
866.662	21557
866.793	21614
866.924	21564
867.055	21545
867.186	21538
867.317	21580
867.448	21424
867.579	21553
867.71	21393
867.841	21466
867.972	21511
868.103	21591
868.233	21629
868.364	21633
868.495	21618
868.625	21766
868.756	21907
868.886	21705
869.017	21823
869.147	21854
869.278	21930
869.408	21698
869.539	21778
869.669	21892
869.799	21850
869.929	21911
870.06	21876
870.19	22025
870.32	21994
870.45	22135
870.58	22116
870.71	22219
870.84	22272
870.97	22150
871.1	22150
871.23	22303
871.36	22398
871.489	22238
871.619	22272
871.749	22402
871.879	22394
872.008	22497
872.138	22394
872.267	22322
872.397	22272
872.526	22166
872.656	22226
872.785	22226
872.915	22455
873.044	22443
873.173	22329
873.303	22542
873.432	22470
873.561	22421
873.69	22440
873.819	22417
873.948	22421
874.077	22303
874.206	22318
874.335	22493
874.464	22504
874.593	22702
874.722	22713
874.851	22702
874.979	22649
875.108	22668
875.237	22523
875.365	22478
875.494	22538
875.623	22592
875.751	22504
875.88	22653
876.008	22672
876.136	22786
876.265	23041
876.393	23094
876.521	23052
876.65	23048
876.778	22953
876.906	22885
877.034	22965
877.162	22946
877.29	22934
877.418	22968
877.546	23098
877.674	22942
877.802	22946
877.93	22896
878.058	22923
878.185	22839
878.313	22835
878.441	22923
878.568	22733
878.696	22869
878.824	23136
878.951	23056
879.079	23086
879.206	23299
879.333	22908
879.461	22953
879.588	23147
879.715	23052
879.842	23322
879.97	23033
880.097	22771
880.224	22797
880.351	22755
880.478	22805
880.605	22706
880.732	22805
880.859	22987
880.986	22923
881.112	22752
881.239	22615
881.366	22527
881.493	22493
881.619	22333
881.746	22337
881.872	22432
881.999	22337
882.125	22128
882.252	22417
882.378	22352
882.505	22428
882.631	22188
882.757	22090
882.883	22147
883.01	21975
883.136	21979
883.262	21956
883.388	21816
883.514	22150
883.64	22101
883.766	22010
883.892	21838
884.018	21907
884.143	21979
884.269	22006
884.395	21713
884.52	21625
884.646	21656
884.772	21641
884.897	21469
885.023	21690
885.148	21876
885.274	21789
885.399	21739
885.524	21660
885.65	21660
885.775	21679
885.9	21545
886.025	21728
886.15	21762
886.275	21675
886.4	21648
886.525	21660
886.65	21545
886.775	21488
886.9	21736
887.025	21880
887.149	21618
887.274	21435
887.399	21496
887.523	21351
887.648	21382
887.773	21294
887.897	21504
888.021	21462
888.146	21382
888.27	21504
888.395	21496
888.519	21542
888.643	21485
888.767	21542
888.891	21291
889.015	21241
889.139	21321
889.263	21173
889.387	21477
889.511	21443
889.635	21321
889.759	21211
889.883	21169
890.006	21142
890.13	21397
890.254	21214
890.377	21241
890.501	20975
890.624	20952
890.748	21066
890.871	20963
890.995	20705
891.118	20743
891.241	20842
891.364	20796
891.488	20880
891.611	20754
891.734	20857
891.857	20777
891.98	20762
892.103	20830
892.226	20807
892.349	20838
892.471	20522
892.594	20743
892.717	20739
892.839	20697
892.962	20769
893.085	20731
893.207	20769
893.33	20571
893.452	20644
893.575	20823
893.697	20606
893.819	20899
893.941	20899
894.064	20716
894.186	20648
894.308	20613
894.43	20720
894.552	20895
894.674	20686
894.796	20549
894.918	20629
895.04	20602
895.161	20781
895.283	20746
895.405	20621
895.526	20693
895.648	20762
895.769	20686
895.891	20727
896.012	20735
896.134	20769
896.255	20636
896.376	20579
896.498	20670
896.619	20712
896.74	20705
896.861	20868
896.982	20975
897.103	21062
897.224	21104
897.345	20971
897.466	20902
897.587	21024
897.708	21089
897.828	20967
897.949	20754
898.07	20735
898.19	20819
898.311	20880
898.431	20823
898.552	20758
898.672	20929
898.792	21036
898.913	20914
899.033	20769
899.153	20750
899.273	20644
899.393	20609
899.513	20697
899.633	20606
899.753	20632
899.873	20716
899.993	20590
900.113	20659
900.232	20632
900.352	20488
900.472	20454
900.591	20355
900.711	20423
900.83	20389
900.95	20457
901.069	20389
901.189	20298
901.308	20073
901.427	19936
901.546	19940
901.665	20107
901.784	19921
901.904	19795
902.023	19658
902.141	19571
902.26	19487
902.379	19586
902.498	19540
902.617	19407
902.735	19495
902.854	19460
902.973	19308
903.091	19244
903.21	19148
903.328	19107
903.446	19015
903.565	18993
903.683	18932
903.801	18947
903.919	18787
904.038	19000
904.156	18779
904.274	18833
904.392	18665
904.51	18711
904.627	18738
904.745	18871
904.863	18722
904.981	18525
905.098	18300
905.216	18418
905.334	18517
905.451	18380
905.569	18407
905.686	18311
905.803	18441
905.921	18213
906.038	18304
906.155	18311
906.272	18049
906.389	18174
906.506	17977
906.623	17973
906.74	17942
906.857	17798
906.974	17722
907.091	17912
907.208	18007
907.324	17961
907.441	17668
907.557	17642
907.674	17661
907.79	17459
907.907	17684
908.023	17653
908.139	17661
908.256	17520
908.372	17505
908.488	17433
908.604	17395
908.72	17265
908.836	17356
908.952	17349
909.068	17383
909.184	17471
909.3	17406
909.415	17265
909.531	17368
909.647	17121
909.762	17014
909.878	16987
909.993	16953
910.108	16949
910.224	17064
910.339	16965
910.454	16782
910.57	16812
910.685	16752
910.8	16976
910.915	17041
911.03	16733
911.145	16729
911.259	16683
911.374	16717
911.489	16569
911.604	16504
911.718	16386
911.833	16421
911.947	16257
912.062	16223
912.176	16462
912.291	16337
912.405	16352
912.519	16588
912.633	16607
912.748	16409
912.862	16333
912.976	16200
913.09	16154
913.204	16169
913.318	16249
913.431	16284
913.545	16207
913.659	16306
913.772	16055
913.886	16025
914	15865
914.113	16086
914.226	16036
914.34	15953
914.453	15861
914.566	16048
914.68	15857
914.793	15804
914.906	15637
915.019	15656
915.132	15530
915.245	15530
915.358	15587
915.47	15553
915.583	15557
915.696	15606
915.809	15751
915.921	15770
916.034	15412
916.146	15466
916.259	15428
916.371	15576
916.483	15564
916.595	15393
916.708	15462
916.82	15401
916.932	15256
917.044	15370
917.156	15325
917.268	15275
917.38	15272
917.491	15226
917.603	15195
917.715	15188
917.826	15294
917.938	15116
918.049	15058
918.161	15199
918.272	15310
918.384	15306
918.495	15032
918.606	14925
918.717	14918
918.828	15009
918.939	15028
919.05	14872
919.161	14971
919.272	14811
919.383	14811
919.494	15051
919.604	15142
919.715	14944
919.826	14743
919.936	14864
920.047	15024
920.157	14883
920.267	15089
920.378	14918
920.488	14971
920.598	15108
920.708	15214
920.818	15013
920.928	15009
921.038	15294
921.148	15097
921.258	14929
921.368	14731
921.477	14762
921.587	14621
921.697	14473
921.806	14693
921.916	14549
922.025	14385
922.134	14237
922.244	14210
922.353	14366
922.462	14161
922.571	14187
922.68	13997
922.789	13913
922.898	13963
923.007	13868
923.116	13928
923.224	13906
923.333	13974
923.442	13776
923.55	13818
923.659	13734
923.767	13761
923.876	13727
923.984	13731
924.092	13609
924.201	13594
924.309	13616
924.417	13590
924.525	13426
924.633	13556
924.741	14571
924.849	13407
924.956	13483
925.064	13381
925.172	13259
925.279	13266
925.387	13297
925.494	13282
925.602	13426
925.709	13354
925.816	13221
925.924	13187
926.031	13362
926.138	13301
926.245	13289
926.352	13091
926.459	13278
926.566	13202
926.673	13346
926.779	13031
926.886	13103
926.993	12920
927.099	12825
927.206	12894
927.312	12798
927.419	12897
927.525	12833
927.631	12909
927.737	12745
927.843	12772
927.95	12601
928.056	12650
928.162	12700
928.267	12715
928.373	13396
928.479	12715
928.585	12578
928.69	12654
928.796	12688
928.901	12582
929.007	12448
929.112	12601
929.218	12467
929.323	12456
929.428	12369
929.533	12547
929.638	12319
929.743	12338
929.848	12388
929.953	12407
930.058	12201
930.163	12068
930.267	12095
930.372	12220
930.477	12068
930.581	12243
930.685	12079
930.79	11973
930.894	11965
930.998	11927
931.103	11992
931.207	11710
931.311	11634
931.415	11585
931.519	11402
931.623	11299
