Data from test_V78500241_615.txt Node
Date: Fri Mar 25 15:46:03 CST 2022
User: usil
Spectrometer: V785-0024
Trigger mode: 0
Integration Time (sec): 4.000000E-1
Scans to average: 1
Nonlinearity correction enabled: false
Boxcar width: 0
Storing dark spectrum: false
XAxis mode: Wavelengths
Number of Pixels in Spectrum: 1024
>>>>>Begin Spectral Data<<<<<
801.071	27717
801.214	27823
801.356	27568
801.499	27447
801.641	27420
801.783	27291
801.926	27420
802.068	27424
802.211	27306
802.353	27192
802.496	27104
802.638	27001
802.78	26967
802.923	26876
803.065	26880
803.208	26861
803.35	26971
803.492	27028
803.635	27077
803.777	26971
803.919	27165
804.061	27382
804.204	27218
804.346	27032
804.488	27032
804.63	27157
804.773	27062
804.915	27291
805.057	27169
805.199	27096
805.341	27146
805.483	27294
805.626	27249
805.768	27154
805.91	27218
806.052	27351
806.194	27283
806.336	27458
806.478	27291
806.62	27317
806.762	27386
806.904	27523
807.046	27789
807.188	27793
807.33	27614
807.472	27648
807.614	27466
807.756	27587
807.898	27618
808.04	27454
808.182	27523
808.324	27488
808.465	27705
808.607	27812
808.749	27895
808.891	28032
809.033	28006
809.174	28139
809.316	27914
809.458	28002
809.6	27819
809.741	28078
809.883	28109
810.025	28238
810.166	28131
810.308	28192
810.45	28150
810.591	28090
810.733	28013
810.875	27979
811.016	27679
811.158	27785
811.299	28044
811.441	28086
811.582	28093
811.724	28013
811.865	27846
812.007	27789
812.148	27793
812.29	27991
812.431	28181
812.573	28314
812.714	28299
812.855	28394
812.997	28466
813.138	28740
813.279	28618
813.421	28478
813.562	28344
813.703	28249
813.845	28147
813.986	27823
814.127	27686
814.268	27606
814.41	27690
814.551	27599
814.692	27625
814.833	27542
814.974	27660
815.115	27557
815.256	27515
815.397	27599
815.539	27481
815.68	27287
815.821	27351
815.962	27515
816.103	27340
816.244	27283
816.385	27131
816.526	27226
816.666	27051
816.807	26921
816.948	26971
817.089	27039
817.23	26811
817.371	26971
817.512	26864
817.653	26887
817.793	26819
817.934	26815
818.075	26880
818.216	26963
818.356	26986
818.497	26880
818.638	26560
818.778	26613
818.919	26686
819.06	26625
819.2	26773
819.341	26872
819.481	26834
819.622	26960
819.762	27176
819.903	27203
820.043	27192
820.184	26899
820.324	26880
820.465	27062
820.605	27055
820.746	26933
820.886	26792
821.026	26948
821.167	26933
821.307	27017
821.447	26861
821.588	26849
821.728	26834
821.868	26400
822.008	26412
822.149	26457
822.289	26370
822.429	26119
822.569	26035
822.709	26046
822.849	25791
822.99	25913
823.13	25791
823.27	25940
823.41	25753
823.55	25693
823.69	25700
823.83	25624
823.97	25457
824.11	25369
824.25	25331
824.389	25464
824.529	25609
824.669	25518
824.809	25639
824.949	25620
825.089	25605
825.228	25506
825.368	25434
825.508	25434
825.648	25441
825.787	25312
825.927	25426
826.067	25339
826.206	25354
826.346	25495
826.485	25411
826.625	25369
826.765	25365
826.904	25384
827.044	25168
827.183	25061
827.323	24996
827.462	24966
827.601	25050
827.741	25031
827.88	25023
828.02	25031
828.159	25137
828.298	25019
828.437	25168
828.577	25103
828.716	25175
828.855	25004
828.994	24791
829.134	24757
829.273	24734
829.412	24757
829.551	24574
829.69	24726
829.829	24703
829.968	24787
830.107	24825
830.246	24901
830.385	24715
830.524	24677
830.663	24582
830.802	24505
830.941	24445
831.08	24315
831.219	24502
831.357	24475
831.496	24772
831.635	24479
831.774	24327
831.913	24338
832.051	24148
832.19	24129
832.329	24171
832.467	23965
832.606	23977
832.744	23916
832.883	24064
833.022	23980
833.16	23988
833.299	24106
833.437	24003
833.576	23988
833.714	24117
833.852	24224
833.991	24144
834.129	24327
834.267	24201
834.406	24129
834.544	24125
834.682	24182
834.821	24060
834.959	24235
835.097	24110
835.235	24079
835.373	24087
835.511	24091
835.65	23916
835.788	23855
835.926	23863
836.064	23703
836.202	23805
836.34	23996
836.478	24011
836.615	23923
836.753	23843
836.891	24011
837.029	24045
837.167	23809
837.305	23920
837.443	23760
837.58	23691
837.718	23908
837.856	23741
837.993	23771
838.131	23790
838.269	23627
838.406	23707
838.544	23547
838.681	23444
838.819	23455
838.956	23208
839.094	23334
839.231	23372
839.369	23452
839.506	23649
839.643	23585
839.781	23368
839.918	23208
840.055	23200
840.193	23277
840.33	23151
840.467	23143
840.604	23208
840.742	23353
840.879	22995
841.016	23109
841.153	23166
841.29	23235
841.427	23151
841.564	23181
841.701	22987
841.838	23109
841.975	23010
842.112	23010
842.249	23064
842.385	22904
842.522	23105
842.659	23006
842.796	22999
842.933	22816
843.069	22721
843.206	22824
843.343	22987
843.479	22885
843.616	22881
843.752	22660
843.889	22759
844.025	22850
844.162	22698
844.298	22717
844.435	22637
844.571	22637
844.708	22938
844.844	22858
844.98	22694
845.117	22809
845.253	22641
845.389	22672
845.525	22596
845.661	22599
845.798	22314
845.934	22580
846.07	22436
846.206	22413
846.342	22421
846.478	22462
846.614	22204
846.75	21994
846.886	22169
847.022	22265
847.158	22150
847.294	22272
847.429	22120
847.565	22063
847.701	22379
847.837	21835
847.972	21861
848.108	22120
848.244	22025
848.379	21637
848.515	21865
848.65	21759
848.786	21838
848.921	21808
849.057	21816
849.192	21869
849.328	21865
849.463	21732
849.598	21701
849.734	21682
849.869	21633
850.004	21580
850.14	21568
850.275	21576
850.41	21374
850.545	21393
850.68	21549
850.815	21515
850.95	21542
851.085	21705
851.22	21603
851.355	21492
851.49	21481
851.625	21458
851.76	21447
851.895	21359
852.03	21473
852.165	21561
852.299	21633
852.434	21656
852.569	21557
852.703	21431
852.838	21542
852.973	21679
853.107	21663
853.242	21428
853.376	21405
853.511	21226
853.645	21329
853.78	21348
853.914	21336
854.048	21363
854.183	21275
854.317	21378
854.451	21397
854.585	21340
854.72	21336
854.854	21355
854.988	21260
855.122	21313
855.256	21291
855.39	21245
855.524	21363
855.658	21412
855.792	21367
855.926	21321
856.06	21351
856.194	21439
856.327	21306
856.461	21260
856.595	21207
856.729	21382
856.862	21466
856.996	21256
857.13	21374
857.263	21500
857.397	21428
857.53	21313
857.664	21367
857.797	21443
857.931	21504
858.064	21363
858.197	21431
858.331	21317
858.464	21214
858.597	21161
858.731	21386
858.864	21264
858.997	21165
859.13	21279
859.263	21351
859.396	21401
859.529	21355
859.662	21241
859.795	21302
859.928	21351
860.061	21542
860.194	21587
860.327	21374
860.46	21340
860.592	21606
860.725	21447
860.858	21542
860.99	21325
861.123	21226
861.256	21154
861.388	21260
861.521	21888
861.653	21176
861.786	21100
861.918	21081
862.05	21310
862.183	21260
862.315	21188
862.447	21386
862.58	21180
862.712	20975
862.844	21043
862.976	21161
863.108	21009
863.24	21428
863.372	20963
863.504	20998
863.636	21161
863.768	21051
863.9	21154
864.032	20994
864.164	21081
864.296	21116
864.428	21001
864.559	21100
864.691	21108
864.823	21043
864.954	21020
865.086	20975
865.217	20876
865.349	20982
865.48	21051
865.612	21032
865.743	21066
865.875	20979
866.006	20861
866.137	20834
866.269	20944
866.4	21051
866.531	20864
866.662	20895
866.793	20895
866.924	20986
867.055	20899
867.186	20891
867.317	20876
867.448	20906
867.579	20830
867.71	20750
867.841	20864
867.972	20845
868.103	20872
868.233	20857
868.364	20937
868.495	21077
868.625	21142
868.756	21211
868.886	21043
869.017	21146
869.147	21218
869.278	21302
869.408	21218
869.539	21142
869.669	21233
869.799	21195
869.929	21226
870.06	21218
870.19	21545
870.32	21351
870.45	21477
870.58	21515
870.71	21656
870.84	21526
870.97	21549
871.1	21447
871.23	21823
871.36	21709
871.489	21595
871.619	21781
871.749	21660
871.879	21781
872.008	21709
872.138	21797
872.267	21717
872.397	21576
872.526	21485
872.656	21477
872.785	21507
872.915	21732
873.044	21804
873.173	21892
873.303	21728
873.432	21770
873.561	21911
873.69	21705
873.819	21759
873.948	21899
874.077	21774
874.206	21679
874.335	21690
874.464	21857
874.593	21892
874.722	21964
874.851	21975
874.979	21945
875.108	21987
875.237	21895
875.365	21884
875.494	21869
875.623	22051
875.751	21956
875.88	21907
876.008	22185
876.136	22162
876.265	22443
876.393	22440
876.521	22333
876.65	22405
876.778	22341
876.906	22318
877.034	22230
877.162	22348
877.29	22234
877.418	22314
877.546	22478
877.674	22291
877.802	22375
877.93	22318
878.058	22287
878.185	22204
878.313	22299
878.441	22341
878.568	22196
878.696	22166
878.824	22402
878.951	22325
879.079	22481
879.206	22554
879.333	22466
879.461	22322
879.588	22436
879.715	22592
879.842	22626
879.97	22306
880.097	22158
880.224	22150
880.351	22200
880.478	22135
880.605	22078
880.732	22086
880.859	22352
880.986	22173
881.112	22223
881.239	22040
881.366	21838
881.493	21766
881.619	21789
881.746	21785
881.872	21766
881.999	21637
882.125	21675
882.252	21644
882.378	21705
882.505	21747
882.631	21606
882.757	21397
882.883	21500
883.01	21367
883.136	21340
883.262	21291
883.388	21351
883.514	21488
883.64	21412
883.766	21344
883.892	21077
884.018	21233
884.143	21340
884.269	21420
884.395	21085
884.52	20975
884.646	21127
884.772	20998
884.897	20868
885.023	21176
885.148	21188
885.274	21218
885.399	21142
885.524	21077
885.65	21070
885.775	21085
885.9	21024
886.025	21199
886.15	21195
886.275	20952
886.4	20830
886.525	21104
886.65	21009
886.775	21032
886.9	21043
887.025	21260
887.149	20990
887.274	20918
887.399	20811
887.523	20834
887.648	20651
887.773	20670
887.897	20906
888.021	20769
888.146	20868
888.27	20899
888.395	21028
888.519	20769
888.643	20819
888.767	20891
888.891	20697
889.015	20613
889.139	20621
889.263	20659
889.387	20781
889.511	20823
889.635	20815
889.759	20613
889.883	20651
890.006	20568
890.13	20693
890.254	20503
890.377	20518
890.501	20332
890.624	20339
890.748	20320
890.871	20195
890.995	20111
891.118	20218
891.241	20218
891.364	20191
891.488	20259
891.611	20248
891.734	20301
891.857	20210
891.98	20073
892.103	20164
892.226	20229
892.349	20100
892.471	20054
892.594	20084
892.717	20126
892.839	20054
892.962	20180
893.085	20180
893.207	20119
893.33	19978
893.452	20005
893.575	20088
893.697	20065
893.819	20248
893.941	20324
894.064	20229
894.186	20084
894.308	20001
894.43	20202
894.552	20218
894.674	20191
894.796	19913
894.918	19997
895.04	20149
895.161	20107
895.283	20035
895.405	19967
895.526	20031
895.648	19959
895.769	20096
895.891	20130
896.012	20233
896.134	20237
896.255	20065
896.376	19997
896.498	20020
896.619	20122
896.74	20046
896.861	20115
896.982	20514
897.103	20583
897.224	20355
897.345	20317
897.466	20259
897.587	20286
897.708	20427
897.828	20355
897.949	20252
898.07	20267
898.19	20271
898.311	20408
898.431	20317
898.552	20332
898.672	20324
898.792	20461
898.913	20294
899.033	20278
899.153	20008
899.273	19997
899.393	20142
899.513	20046
899.633	20062
899.753	20096
899.873	20016
899.993	20016
900.113	19963
900.232	20020
900.352	20027
900.472	19784
900.591	19830
900.711	19856
900.83	19833
900.95	19974
901.069	19925
901.189	19772
901.308	19567
901.427	19381
901.546	19544
901.665	19396
901.784	19441
901.904	19358
902.023	19133
902.141	19012
902.26	18886
902.379	19072
902.498	19004
902.617	18856
902.735	18932
902.854	18825
902.973	18840
903.091	18692
903.21	18654
903.328	18593
903.446	18528
903.565	18437
903.683	18441
903.801	18281
903.919	18270
904.038	18285
904.156	18178
904.274	18216
904.392	18292
904.51	18121
904.627	18216
904.745	18232
904.863	18262
904.981	18034
905.098	17885
905.216	17866
905.334	17870
905.451	17931
905.569	17897
905.686	17863
905.803	17817
905.921	17615
906.038	17684
906.155	17707
906.272	17414
906.389	17684
906.506	17341
906.623	17486
906.74	17391
906.857	17303
906.974	17269
907.091	17433
907.208	17539
907.324	17516
907.441	17265
907.557	17117
907.674	16995
907.79	17113
907.907	17037
908.023	17109
908.139	17147
908.256	16934
908.372	16949
908.488	17113
908.604	16805
908.72	16866
908.836	16866
908.952	16839
909.068	16900
909.184	16934
909.3	16835
909.415	16801
909.531	16843
909.647	16672
909.762	16584
909.878	16569
909.993	16641
910.108	16497
910.224	16535
910.339	16683
910.454	16424
910.57	16382
910.685	16303
910.8	16561
910.915	16500
911.03	16348
911.145	16226
911.259	16215
911.374	16147
911.489	16010
911.604	16101
911.718	15983
911.833	15937
911.947	15884
912.062	15751
912.176	16002
912.291	15781
912.405	15869
912.519	16086
912.633	16147
912.748	16021
912.862	15831
912.976	15785
913.09	15610
913.204	15667
913.318	15686
913.431	15698
913.545	15819
913.659	15781
913.772	15622
913.886	15473
914	15526
914.113	15587
914.226	15603
914.34	15591
914.453	15428
914.566	15477
914.68	15542
914.793	15306
914.906	15249
915.019	15188
915.132	15150
915.245	15161
915.358	15184
915.47	15138
915.583	15142
915.696	15154
915.809	15157
915.921	15302
916.034	15104
916.146	15043
916.259	15043
916.371	14998
916.483	15119
916.595	15055
916.708	15043
916.82	14963
916.932	15013
917.044	14948
917.156	14914
917.268	14735
917.38	14811
917.491	14746
917.603	14819
917.715	14842
917.826	14891
917.938	14739
918.049	14663
918.161	14739
918.272	14883
918.384	14906
918.495	14705
918.606	14514
918.717	14503
918.828	14575
918.939	14530
919.05	14396
919.161	14507
919.272	14336
919.383	14415
919.494	14533
919.604	14701
919.715	14552
919.826	14446
919.936	14526
920.047	14495
920.157	14541
920.267	14651
920.378	14549
920.488	14537
920.598	14712
920.708	14773
920.818	14762
920.928	14682
921.038	14830
921.148	14716
921.258	14377
921.368	14278
921.477	14271
921.587	14301
921.697	14149
921.806	14229
921.916	13997
922.025	13879
922.134	13913
922.244	13883
922.353	13970
922.462	13727
922.571	13715
922.68	13605
922.789	13521
922.898	13582
923.007	13422
923.116	13567
923.224	13578
923.333	13483
923.442	13350
923.55	13301
923.659	13396
923.767	13476
923.876	13365
923.984	13438
924.092	13206
924.201	13339
924.309	13301
924.417	13278
924.525	13202
924.633	13126
924.741	14225
924.849	13008
924.956	13149
925.064	12989
925.172	12916
925.279	12943
925.387	12913
925.494	12981
925.602	13012
925.709	12947
925.816	12848
925.924	12920
926.031	13000
926.138	12848
926.245	12932
926.352	12738
926.459	12962
926.566	12985
926.673	12840
926.779	12760
926.886	12658
926.993	12502
927.099	12479
927.206	12490
927.312	12399
927.419	12540
927.525	12418
927.631	12627
927.737	12388
927.843	12285
927.95	12251
928.056	12330
928.162	12300
928.267	12410
928.373	13008
928.479	12433
928.585	12144
928.69	12296
928.796	12292
928.901	12205
929.007	12038
929.112	12159
929.218	12121
929.323	12114
929.428	12072
929.533	12194
929.638	11969
929.743	12034
929.848	12087
929.953	11992
930.058	11904
930.163	11733
930.267	11809
930.372	11958
930.477	11684
930.581	11954
930.685	11828
930.79	11714
930.894	11649
930.998	11653
931.103	11824
931.207	11459
931.311	11345
931.415	11227
931.519	11025
931.623	11003
