Data from test_V78500241_602.txt Node
Date: Fri Mar 25 15:45:58 CST 2022
User: usil
Spectrometer: V785-0024
Trigger mode: 0
Integration Time (sec): 4.000000E-1
Scans to average: 1
Nonlinearity correction enabled: false
Boxcar width: 0
Storing dark spectrum: false
XAxis mode: Wavelengths
Number of Pixels in Spectrum: 1024
>>>>>Begin Spectral Data<<<<<
801.071	27473
801.214	27344
801.356	27192
801.499	27184
801.641	27062
801.783	26994
801.926	27047
802.068	27051
802.211	26883
802.353	26739
802.496	26518
802.638	26720
802.78	26606
802.923	26594
803.065	26590
803.208	26560
803.35	26629
803.492	26758
803.635	26777
803.777	26670
803.919	26773
804.061	26998
804.204	26735
804.346	26746
804.488	26716
804.63	26769
804.773	26579
804.915	26857
805.057	26933
805.199	26731
805.341	26910
805.483	26956
805.626	26933
805.768	26735
805.91	26876
806.052	26777
806.194	26914
806.336	27104
806.478	26986
806.62	26918
806.762	27112
806.904	27135
807.046	27481
807.188	27382
807.33	27279
807.472	27340
807.614	27283
807.756	27226
807.898	27188
808.04	27009
808.182	27199
808.324	27192
808.465	27252
808.607	27306
808.749	27481
808.891	27599
809.033	27808
809.174	27557
809.316	27439
809.458	27637
809.6	27610
809.741	27724
809.883	27671
810.025	27876
810.166	27694
810.308	27732
810.45	27660
810.591	27732
810.733	27633
810.875	27454
811.016	27553
811.158	27462
811.299	27622
811.441	27705
811.582	27755
811.724	27515
811.865	27325
812.007	27576
812.148	27606
812.29	27542
812.431	27675
812.573	27945
812.714	27994
812.855	28082
812.997	28188
813.138	28276
813.279	28261
813.421	28135
813.562	27911
813.703	27941
813.845	27694
813.986	27454
814.127	27245
814.268	27272
814.41	27294
814.551	27173
814.692	27241
814.833	27161
814.974	27233
815.115	27298
815.256	27017
815.397	27058
815.539	27142
815.68	27127
815.821	26925
815.962	26853
816.103	27032
816.244	26876
816.385	26811
816.526	26819
816.666	26701
816.807	26469
816.948	26571
817.089	26613
817.23	26560
817.371	26473
817.512	26419
817.653	26503
817.793	26339
817.934	26419
818.075	26415
818.216	26453
818.356	26583
818.497	26351
818.638	26351
818.778	26290
818.919	26107
819.06	26233
819.2	26465
819.341	26488
819.481	26453
819.622	26602
819.762	26746
819.903	26648
820.043	26640
820.184	26568
820.324	26446
820.465	26689
820.605	26514
820.746	26526
820.886	26374
821.026	26492
821.167	26537
821.307	26511
821.447	26533
821.588	26358
821.728	26396
821.868	26027
822.008	25993
822.149	25974
822.289	25822
822.429	25811
822.569	25586
822.709	25586
822.849	25468
822.99	25525
823.13	25537
823.27	25460
823.41	25255
823.55	25088
823.69	25244
823.83	25270
823.97	25129
824.11	24947
824.25	25069
824.389	25137
824.529	25110
824.669	25053
824.809	25240
824.949	25160
825.089	25213
825.228	25084
825.368	25069
825.508	24996
825.648	24913
825.787	25031
825.927	25008
826.067	24791
826.206	24795
826.346	25179
826.485	24905
826.625	24947
826.765	25031
826.904	25042
827.044	24677
827.183	24681
827.323	24620
827.462	24696
827.601	24570
827.741	24608
827.88	24642
828.02	24505
828.159	24677
828.298	24707
828.437	24677
828.577	24642
828.716	24764
828.855	24555
828.994	24262
829.134	24380
829.273	24361
829.412	24410
829.551	24213
829.69	24296
829.829	24456
829.968	24395
830.107	24498
830.246	24410
830.385	24281
830.524	24251
830.663	24083
830.802	24194
830.941	23931
831.08	23958
831.219	24011
831.357	24083
831.496	24228
831.635	23988
831.774	23817
831.913	23840
832.051	23767
832.19	23733
832.329	23764
832.467	23642
832.606	23573
832.744	23589
832.883	23585
833.022	23592
833.16	23573
833.299	23615
833.437	23592
833.576	23668
833.714	23699
833.852	23703
833.991	23821
834.129	23733
834.267	23824
834.406	23809
834.544	23783
834.682	23722
834.821	23802
834.959	23912
835.097	23646
835.235	23703
835.373	23570
835.511	23585
835.65	23425
835.788	23543
835.926	23311
836.064	23315
836.202	23414
836.34	23528
836.478	23604
836.615	23417
836.753	23611
836.891	23608
837.029	23539
837.167	23433
837.305	23391
837.443	23398
837.58	23280
837.718	23387
837.856	23516
837.993	23345
838.131	23467
838.269	23250
838.406	23326
838.544	23109
838.681	22923
838.819	23022
838.956	22930
839.094	22847
839.231	22877
839.369	22949
839.506	23231
839.643	22976
839.781	22744
839.918	22835
840.055	22835
840.193	22778
840.33	22824
840.467	22698
840.604	22881
840.742	22980
840.879	22622
841.016	22622
841.153	22641
841.29	22752
841.427	22820
841.564	22740
841.701	22816
841.838	22786
841.975	22702
842.112	22577
842.249	22527
842.385	22550
842.522	22615
842.659	22481
842.796	22497
842.933	22462
843.069	22527
843.206	22382
843.343	22645
843.479	22584
843.616	22599
843.752	22360
843.889	22322
844.025	22531
844.162	22246
844.298	22322
844.435	22287
844.571	22150
844.708	22325
844.844	22413
844.98	22299
845.117	22367
845.253	22329
845.389	22185
845.525	22276
845.661	22158
845.798	21945
845.934	22063
846.07	22090
846.206	22139
846.342	22166
846.478	22021
846.614	21892
846.75	21774
846.886	21739
847.022	21922
847.158	21709
847.294	21854
847.429	21785
847.565	21694
847.701	21991
847.837	21481
847.972	21397
848.108	21572
848.244	21568
848.379	21317
848.515	21424
848.65	21397
848.786	21386
848.921	21344
849.057	21401
849.192	21313
849.328	21416
849.463	21469
849.598	21237
849.734	21332
849.869	21161
850.004	21154
850.14	21135
850.275	21161
850.41	21047
850.545	21036
850.68	21161
850.815	21142
850.95	21116
851.085	21165
851.22	21245
851.355	21135
851.49	21051
851.625	21081
851.76	21070
851.895	20967
852.03	21020
852.165	21165
852.299	21039
852.434	21100
852.569	21302
852.703	21146
852.838	21298
852.973	21173
853.107	21237
853.242	20967
853.376	20914
853.511	20937
853.645	20883
853.78	21066
853.914	20956
854.048	20975
854.183	20925
854.317	20933
854.451	21135
854.585	20876
854.72	20956
854.854	20960
854.988	20773
855.122	20925
855.256	20796
855.39	20929
855.524	20895
855.658	20956
855.792	20937
855.926	20899
856.06	20918
856.194	21116
856.327	20830
856.461	20868
856.595	20781
856.729	20864
856.862	20933
856.996	20918
857.13	21043
857.263	20944
857.397	21058
857.53	20941
857.664	20963
857.797	21013
857.931	20967
858.064	20990
858.197	21180
858.331	20902
858.464	20804
858.597	20876
858.731	20937
858.864	20868
858.997	20746
859.13	20872
859.263	20952
859.396	20998
859.529	20853
859.662	20826
859.795	20830
859.928	20815
860.061	21081
860.194	21226
860.327	21001
860.46	20807
860.592	21001
860.725	21093
860.858	21123
860.99	20975
861.123	20880
861.256	20921
861.388	20986
861.521	21496
861.653	20876
861.786	20632
861.918	20705
862.05	20819
862.183	20777
862.315	20800
862.447	20823
862.58	20925
862.712	20785
862.844	20556
862.976	20697
863.108	20682
863.24	21150
863.372	20583
863.504	20670
863.636	20579
863.768	20689
863.9	20651
864.032	20457
864.164	20583
864.296	20640
864.428	20663
864.559	20655
864.691	20849
864.823	20636
864.954	20488
865.086	20587
865.217	20549
865.349	20450
865.48	20518
865.612	20625
865.743	20583
865.875	20545
866.006	20571
866.137	20598
866.269	20579
866.4	20488
866.531	20571
866.662	20393
866.793	20522
866.924	20560
867.055	20564
867.186	20423
867.317	20454
867.448	20393
867.579	20518
867.71	20377
867.841	20518
867.972	20533
868.103	20602
868.233	20511
868.364	20598
868.495	20549
868.625	20735
868.756	20712
868.886	20682
869.017	20716
869.147	20781
869.278	20834
869.408	20701
869.539	20823
869.669	20864
869.799	20952
869.929	20956
870.06	20731
870.19	20998
870.32	21017
870.45	21184
870.58	21135
870.71	21188
870.84	21252
870.97	21108
871.1	21017
871.23	21393
871.36	21370
871.489	21256
871.619	21184
871.749	21367
871.879	21382
872.008	21454
872.138	21367
872.267	21340
872.397	21188
872.526	21157
872.656	21214
872.785	21218
872.915	21431
873.044	21515
873.173	21389
873.303	21428
873.432	21469
873.561	21500
873.69	21401
873.819	21329
873.948	21507
874.077	21511
874.206	21344
874.335	21397
874.464	21485
874.593	21663
874.722	21580
874.851	21709
874.979	21583
875.108	21682
875.237	21542
875.365	21488
875.494	21545
875.623	21679
875.751	21428
875.88	21553
876.008	21713
876.136	21804
876.265	21945
876.393	22215
876.521	22017
876.65	22097
876.778	21979
876.906	21987
877.034	21915
877.162	22010
877.29	21926
877.418	21949
877.546	22048
877.674	22067
877.802	22002
877.93	21960
878.058	21888
878.185	21838
878.313	21892
878.441	21968
878.568	21789
878.696	22002
878.824	21937
878.951	22010
879.079	22135
879.206	22382
879.333	22188
879.461	22078
879.588	21975
879.715	22101
879.842	22272
879.97	22063
880.097	21720
880.224	21682
880.351	21842
880.478	21751
880.605	21633
880.732	21724
880.859	22025
880.986	21812
881.112	21770
881.239	21488
881.366	21587
881.493	21386
881.619	21367
881.746	21488
881.872	21405
881.999	21420
882.125	21264
882.252	21367
882.378	21294
882.505	21439
882.631	21237
882.757	21055
882.883	21230
883.01	21047
883.136	21032
883.262	20967
883.388	20975
883.514	20982
883.64	20994
883.766	20998
883.892	20853
884.018	20864
884.143	21020
884.269	21096
884.395	20708
884.52	20727
884.646	20720
884.772	20598
884.897	20636
885.023	20689
885.148	20731
885.274	20823
885.399	20781
885.524	20731
885.65	20636
885.775	20705
885.9	20762
886.025	20785
886.15	20785
886.275	20568
886.4	20701
886.525	20613
886.65	20583
886.775	20575
886.9	20712
887.025	20811
887.149	20731
887.274	20446
887.399	20507
887.523	20434
887.648	20473
887.773	20484
887.897	20659
888.021	20469
888.146	20469
888.27	20568
888.395	20587
888.519	20492
888.643	20457
888.767	20594
888.891	20423
889.015	20336
889.139	20328
889.263	20286
889.387	20446
889.511	20518
889.635	20317
889.759	20214
889.883	20381
890.006	20320
890.13	20374
890.254	20271
890.377	20199
890.501	20084
890.624	19997
890.748	20126
890.871	19940
890.995	19932
891.118	19803
891.241	19871
891.364	19849
891.488	19906
891.611	19833
891.734	19875
891.857	19909
891.98	19906
892.103	19898
892.226	19928
892.349	19902
892.471	19727
892.594	19795
892.717	19772
892.839	19833
892.962	19708
893.085	19875
893.207	19868
893.33	19666
893.452	19632
893.575	19822
893.697	19700
893.819	20005
893.941	19989
894.064	19940
894.186	19639
894.308	19674
894.43	19951
894.552	20050
894.674	19799
894.796	19719
894.918	19704
895.04	19780
895.161	19826
895.283	19776
895.405	19700
895.526	19761
895.648	19826
895.769	19734
895.891	19833
896.012	19871
896.134	19811
896.255	19883
896.376	19769
896.498	19757
896.619	19833
896.74	19727
896.861	19856
896.982	20050
897.103	20233
897.224	20138
897.345	20065
897.466	19909
897.587	19970
897.708	20134
897.828	19993
897.949	19940
898.07	19738
898.19	19989
898.311	20062
898.431	19936
898.552	20005
898.672	20103
898.792	20012
898.913	19982
899.033	19959
899.153	19818
899.273	19860
899.393	19700
899.513	19708
899.633	19826
899.753	19959
899.873	19700
899.993	19761
900.113	19803
900.232	19753
900.352	19578
900.472	19727
900.591	19540
900.711	19590
900.83	19563
900.95	19620
901.069	19681
901.189	19422
901.308	19126
901.427	19046
901.546	19221
901.665	19145
901.784	19187
901.904	18932
902.023	18954
902.141	18688
902.26	18696
902.379	18802
902.498	18730
902.617	18639
902.735	18730
902.854	18658
902.973	18525
903.091	18353
903.21	18350
903.328	18327
903.446	18186
903.565	18106
903.683	18083
903.801	17984
903.919	18114
904.038	18034
904.156	17859
904.274	18007
904.392	17866
904.51	17912
904.627	17901
904.745	17889
904.863	17931
904.981	17642
905.098	17699
905.216	17581
905.334	17668
905.451	17551
905.569	17486
905.686	17691
905.803	17566
905.921	17353
906.038	17562
906.155	17425
906.272	17341
906.389	17322
906.506	17109
906.623	17143
906.74	17083
906.857	16980
906.974	17025
907.091	17140
907.208	17318
907.324	17189
907.441	17025
907.557	16869
907.674	16938
907.79	16866
907.907	16816
908.023	16740
908.139	16839
908.256	16752
908.372	16713
908.488	16774
908.604	16538
908.72	16531
908.836	16622
908.952	16531
909.068	16561
909.184	16653
909.3	16603
909.415	16558
909.531	16611
909.647	16261
909.762	16287
909.878	16242
909.993	16219
910.108	16249
910.224	16200
910.339	16249
910.454	16124
910.57	16078
910.685	15987
910.8	16230
910.915	16207
911.03	16109
911.145	15926
911.259	15842
911.374	15800
911.489	15850
911.604	15781
911.718	15553
911.833	15663
911.947	15553
912.062	15500
912.176	15675
912.291	15679
912.405	15694
912.519	15857
912.633	15793
912.748	15682
912.862	15663
912.976	15492
913.09	15359
913.204	15454
913.318	15393
913.431	15469
913.545	15591
913.659	15648
913.772	15443
913.886	15211
914	15142
914.113	15416
914.226	15340
914.34	15268
914.453	15119
914.566	15180
914.68	15077
914.793	15116
914.906	14921
915.019	14899
915.132	14872
915.245	14800
915.358	14857
915.47	14872
915.583	14990
915.696	14876
915.809	14986
915.921	14979
916.034	14815
916.146	14804
916.259	14697
916.371	14819
916.483	14823
916.595	14720
916.708	14674
916.82	14689
916.932	14644
917.044	14670
917.156	14625
917.268	14511
917.38	14503
917.491	14488
917.603	14492
917.715	14583
917.826	14571
917.938	14461
918.049	14385
918.161	14473
918.272	14556
918.384	14636
918.495	14507
918.606	14294
918.717	14229
918.828	14313
918.939	14336
919.05	14320
919.161	14164
919.272	14100
919.383	14168
919.494	14317
919.604	14385
919.715	14278
919.826	14168
919.936	14290
920.047	14328
920.157	14229
920.267	14415
920.378	14305
920.488	14256
920.598	14476
920.708	14571
920.818	14393
920.928	14400
921.038	14564
921.148	14522
921.258	14195
921.368	14134
921.477	14027
921.587	14008
921.697	13761
921.806	13959
921.916	13875
922.025	13677
922.134	13655
922.244	13616
922.353	13734
922.462	13499
922.571	13415
922.68	13377
922.789	13274
922.898	13274
923.007	13194
923.116	13331
923.224	13240
923.333	13168
923.442	13168
923.55	13156
923.659	13107
923.767	13187
923.876	13107
923.984	13149
924.092	13110
924.201	13023
924.309	13072
924.417	13065
924.525	12966
924.633	12871
924.741	13841
924.849	12738
924.956	12905
925.064	12757
925.172	12658
925.279	12681
925.387	12798
925.494	12772
925.602	12806
925.709	12802
925.816	12623
925.924	12715
926.031	12795
926.138	12639
926.245	12642
926.352	12559
926.459	12711
926.566	12711
926.673	12631
926.779	12437
926.886	12433
926.993	12319
927.099	12346
927.206	12243
927.312	12235
927.419	12365
927.525	12243
927.631	12407
927.737	12239
927.843	12197
927.95	12068
928.056	12129
928.162	12159
928.267	12121
928.373	12806
928.479	12144
928.585	11958
928.69	12106
928.796	12167
928.901	11988
929.007	11824
929.112	11980
929.218	11920
929.323	11866
929.428	11935
929.533	11942
929.638	11821
929.743	11809
929.848	11779
929.953	11767
930.058	11661
930.163	11535
930.267	11611
930.372	11638
930.477	11433
930.581	11790
930.685	11638
930.79	11551
930.894	11524
930.998	11459
931.103	11539
931.207	11185
931.311	11037
931.415	10946
931.519	10847
931.623	10835
