Data from test_V78500241_2584.txt Node
Date: Fri Mar 25 15:59:42 CST 2022
User: usil
Spectrometer: V785-0024
Trigger mode: 0
Integration Time (sec): 4.000000E-1
Scans to average: 1
Nonlinearity correction enabled: false
Boxcar width: 0
Storing dark spectrum: false
XAxis mode: Wavelengths
Number of Pixels in Spectrum: 1024
>>>>>Begin Spectral Data<<<<<
801.071	28504
801.214	28481
801.356	28295
801.499	28173
801.641	28147
801.783	28204
801.926	28291
802.068	28090
802.211	28025
802.353	28207
802.496	27854
802.638	27835
802.78	27789
802.923	27785
803.065	27686
803.208	27709
803.35	27835
803.492	27865
803.635	28086
803.777	28032
803.919	28021
804.061	28382
804.204	28101
804.346	28025
804.488	27956
804.63	28044
804.773	27934
804.915	28177
805.057	28261
805.199	28029
805.341	28131
805.483	28097
805.626	28135
805.768	28200
805.91	28223
806.052	28246
806.194	28238
806.336	28546
806.478	28226
806.62	28230
806.762	28504
806.904	28516
807.046	28634
807.188	28679
807.33	28660
807.472	28660
807.614	28691
807.756	28653
807.898	28538
808.04	28508
808.182	28489
808.324	28436
808.465	28622
808.607	28915
808.749	28904
808.891	28980
809.033	29128
809.174	28866
809.316	28980
809.458	28904
809.6	28847
809.741	29025
809.883	28984
810.025	29143
810.166	29181
810.308	29277
810.45	29037
810.591	29029
810.733	29064
810.875	28892
811.016	28919
811.158	28748
811.299	29178
811.441	28976
811.582	29105
811.724	28843
811.865	28816
812.007	28919
812.148	28812
812.29	29003
812.431	29178
812.573	29223
812.714	29341
812.855	29474
812.997	29395
813.138	29497
813.279	29551
813.421	29391
813.562	29337
813.703	29254
813.845	29113
813.986	28793
814.127	28801
814.268	28497
814.41	28729
814.551	28546
814.692	28778
814.833	28577
814.974	28554
815.115	28500
815.256	28653
815.397	28478
815.539	28428
815.68	28344
815.821	28447
815.962	28287
816.103	28409
816.244	28322
816.385	28219
816.526	28207
816.666	27911
816.807	27827
816.948	27854
817.089	28082
817.23	27941
817.371	27743
817.512	28010
817.653	27903
817.793	27972
817.934	27808
818.075	27876
818.216	27972
818.356	27888
818.497	27793
818.638	27545
818.778	27720
818.919	27717
819.06	27641
819.2	27778
819.341	27819
819.481	27850
819.622	28124
819.762	28185
819.903	28223
820.043	28181
820.184	28025
820.324	27972
820.465	28116
820.605	28150
820.746	28070
820.886	27991
821.026	27930
821.167	28109
821.307	28093
821.447	27918
821.588	27812
821.728	27679
821.868	27698
822.008	27447
822.149	27492
822.289	27397
822.429	27135
822.569	27051
822.709	27077
822.849	26861
822.99	26960
823.13	26849
823.27	26838
823.41	26716
823.55	26590
823.69	26720
823.83	26716
823.97	26594
824.11	26514
824.25	26507
824.389	26518
824.529	26636
824.669	26419
824.809	26758
824.949	26522
825.089	26598
825.228	26621
825.368	26450
825.508	26377
825.648	26488
825.787	26469
825.927	26461
826.067	26355
826.206	26324
826.346	26442
826.485	26408
826.625	26461
826.765	26533
826.904	26427
827.044	26199
827.183	26115
827.323	26176
827.462	26233
827.601	26073
827.741	26122
827.88	26263
828.02	26069
828.159	26145
828.298	26065
828.437	26058
828.577	26145
828.716	26199
828.855	26050
828.994	25883
829.134	25788
829.273	25906
829.412	25670
829.551	25757
829.69	25772
829.829	25959
829.968	25932
830.107	25845
830.246	25784
830.385	25750
830.524	25734
830.663	25540
830.802	25506
830.941	25457
831.08	25495
831.219	25483
831.357	25430
831.496	25719
831.635	25403
831.774	25472
831.913	25247
832.051	25225
832.19	25240
832.329	25244
832.467	25141
832.606	25133
832.744	25053
832.883	24833
833.022	24966
833.16	24947
833.299	25133
833.437	25019
833.576	25103
833.714	25031
833.852	25202
833.991	25156
834.129	25362
834.267	25274
834.406	25194
834.544	25232
834.682	25331
834.821	25160
834.959	25168
835.097	25126
835.235	25228
835.373	24985
835.511	25065
835.65	25050
835.788	25099
835.926	24882
836.064	24730
836.202	24776
836.34	25012
836.478	25091
836.615	24935
836.753	24875
836.891	25099
837.029	24935
837.167	24886
837.305	24894
837.443	24711
837.58	24844
837.718	24821
837.856	24760
837.993	24673
838.131	24833
838.269	24681
838.406	24722
838.544	24536
838.681	24437
838.819	24311
838.956	24330
839.094	24228
839.231	24315
839.369	24505
839.506	24665
839.643	24490
839.781	24281
839.918	24098
840.055	24247
840.193	24247
840.33	24216
840.467	24163
840.604	24117
840.742	24388
840.879	24053
841.016	24117
841.153	24117
841.29	24251
841.427	24083
841.564	24216
841.701	24148
841.838	24076
841.975	24102
842.112	24136
842.249	23954
842.385	24011
842.522	24167
842.659	24018
842.796	23923
842.933	23965
843.069	23824
843.206	23980
843.343	24045
843.479	23908
843.616	23927
843.752	23824
843.889	23748
844.025	23893
844.162	23627
844.298	23828
844.435	23684
844.571	23638
844.708	23665
844.844	23897
844.98	23836
845.117	23760
845.253	23638
845.389	23615
845.525	23619
845.661	23611
845.798	23448
845.934	23368
846.07	23463
846.206	23604
846.342	23596
846.478	23193
846.614	23292
846.75	23010
846.886	23273
847.022	23261
847.158	23250
847.294	23220
847.429	23143
847.565	23204
847.701	23353
847.837	22938
847.972	22835
848.108	23075
848.244	22972
848.379	22862
848.515	22729
848.65	22763
848.786	22733
848.921	22790
849.057	22915
849.192	22805
849.328	22847
849.463	22805
849.598	22653
849.734	22588
849.869	22546
850.004	22599
850.14	22493
850.275	22542
850.41	22436
850.545	22474
850.68	22432
850.815	22584
850.95	22550
851.085	22713
851.22	22656
851.355	22596
851.49	22417
851.625	22504
851.76	22417
851.895	22573
852.03	22550
852.165	22493
852.299	22402
852.434	22588
852.569	22573
852.703	22432
852.838	22516
852.973	22542
853.107	22618
853.242	22466
853.376	22322
853.511	22188
853.645	22257
853.78	22398
853.914	22261
854.048	22223
854.183	22337
854.317	22337
854.451	22546
854.585	22299
854.72	22291
854.854	22352
854.988	22325
855.122	22390
855.256	22287
855.39	22337
855.524	22409
855.658	22382
855.792	22265
855.926	22390
856.06	22329
856.194	22360
856.327	22253
856.461	22234
856.595	22310
856.729	22417
856.862	22451
856.996	22451
857.13	22478
857.263	22360
857.397	22489
857.53	22379
857.664	22310
857.797	22356
857.931	22421
858.064	22402
858.197	22462
858.331	22291
858.464	22249
858.597	22230
858.731	22234
858.864	22226
858.997	22341
859.13	22432
859.263	22386
859.396	22421
859.529	22234
859.662	22253
859.795	22306
859.928	22322
860.061	22451
860.194	22470
860.327	22421
860.46	22409
860.592	22341
860.725	22584
860.858	22421
860.99	22135
861.123	22261
861.256	22299
861.388	22234
861.521	23018
861.653	22150
861.786	22044
861.918	22158
862.05	22173
862.183	22226
862.315	22287
862.447	22306
862.58	22249
862.712	22238
862.844	21994
862.976	22135
863.108	22063
863.24	22588
863.372	22055
863.504	22143
863.636	22002
863.768	22070
863.9	21956
864.032	21994
864.164	22036
864.296	22070
864.428	22139
864.559	22029
864.691	22044
864.823	22055
864.954	21934
865.086	22013
865.217	21751
865.349	21960
865.48	21838
865.612	21964
865.743	22112
865.875	21991
866.006	21964
866.137	21857
866.269	21987
866.4	21747
866.531	21835
866.662	21846
866.793	21892
866.924	21880
867.055	21903
867.186	21930
867.317	21884
867.448	21831
867.579	21869
867.71	21633
867.841	21675
867.972	21865
868.103	21876
868.233	21899
868.364	21850
868.495	21937
868.625	22124
868.756	22135
868.886	21994
869.017	22158
869.147	22109
869.278	22131
869.408	22139
869.539	22021
869.669	22116
869.799	22131
869.929	22185
870.06	22363
870.19	22303
870.32	22390
870.45	22379
870.58	22508
870.71	22607
870.84	22546
870.97	22531
871.1	22538
871.23	22542
871.36	22672
871.489	22645
871.619	22508
871.749	22664
871.879	22679
872.008	22748
872.138	22755
872.267	22618
872.397	22641
872.526	22493
872.656	22523
872.785	22489
872.915	22706
873.044	22809
873.173	22755
873.303	22824
873.432	22691
873.561	22721
873.69	22645
873.819	22713
873.948	22786
874.077	22706
874.206	22694
874.335	22634
874.464	22843
874.593	22961
874.722	22927
874.851	22835
874.979	22980
875.108	22957
875.237	22892
875.365	22839
875.494	22778
875.623	22911
875.751	22896
875.88	23014
876.008	23060
876.136	23170
876.265	23303
876.393	23379
876.521	23467
876.65	23429
876.778	23231
876.906	23311
877.034	23265
877.162	23368
877.29	23254
877.418	23277
877.546	23242
877.674	23299
877.802	23273
877.93	23277
878.058	23162
878.185	23075
878.313	23083
878.441	23136
878.568	22972
878.696	23208
878.824	23387
878.951	23341
879.079	23493
879.206	23524
879.333	23452
879.461	23337
879.588	23410
879.715	23360
879.842	23524
879.97	23334
880.097	23102
880.224	23044
880.351	23109
880.478	23029
880.605	23041
880.732	23113
880.859	23330
880.986	23090
881.112	22995
881.239	22896
881.366	22759
881.493	22717
881.619	22641
881.746	22607
881.872	22656
881.999	22687
882.125	22641
882.252	22668
882.378	22569
882.505	22729
882.631	22474
882.757	22424
882.883	22504
883.01	22188
883.136	22246
883.262	22169
883.388	22185
883.514	22344
883.64	22344
883.766	22207
883.892	22040
884.018	22185
884.143	22143
884.269	22447
884.395	22093
884.52	21819
884.646	22048
884.772	21930
884.897	21930
885.023	21831
885.148	22036
885.274	22135
885.399	21994
885.524	21945
885.65	21915
885.775	21987
885.9	21949
886.025	22063
886.15	22067
886.275	21934
886.4	21911
886.525	21968
886.65	21812
886.775	21797
886.9	22025
887.025	22135
887.149	21854
887.274	21739
887.399	21762
887.523	21812
887.648	21747
887.773	21591
887.897	21759
888.021	21819
888.146	21690
888.27	21679
888.395	21945
888.519	21762
888.643	21682
888.767	21724
888.891	21675
889.015	21553
889.139	21637
889.263	21587
889.387	21644
889.511	21739
889.635	21644
889.759	21557
889.883	21515
890.006	21481
890.13	21656
890.254	21370
890.377	21458
890.501	21351
890.624	21302
890.748	21264
890.871	21146
890.995	21051
891.118	20994
891.241	21085
891.364	21100
891.488	21207
891.611	21024
891.734	21043
891.857	21123
891.98	20986
892.103	21001
892.226	20960
892.349	21077
892.471	20845
892.594	21020
892.717	20963
892.839	20948
892.962	21032
893.085	20876
893.207	21119
893.33	20800
893.452	20902
893.575	21017
893.697	20876
893.819	21123
893.941	21150
894.064	21192
894.186	21028
894.308	20834
894.43	21051
894.552	21108
894.674	21028
894.796	20849
894.918	20811
895.04	20910
895.161	21024
895.283	20941
895.405	20800
895.526	20876
895.648	20925
895.769	20979
895.891	20929
896.012	20960
896.134	20960
896.255	20899
896.376	20929
896.498	20952
896.619	20952
896.74	20902
896.861	21036
896.982	21355
897.103	21416
897.224	21207
897.345	21119
897.466	21081
897.587	21214
897.708	21268
897.828	21264
897.949	21051
898.07	21017
898.19	21119
898.311	21150
898.431	21077
898.552	21047
898.672	21256
898.792	21146
898.913	21154
899.033	21055
899.153	20956
899.273	20720
899.393	20998
899.513	20861
899.633	20887
899.753	20887
899.873	20811
899.993	20883
900.113	20807
900.232	20902
900.352	20788
900.472	20762
900.591	20625
900.711	20636
900.83	20530
900.95	20651
901.069	20769
901.189	20590
901.308	20332
901.427	20180
901.546	20309
901.665	20267
901.784	20229
901.904	20100
902.023	19921
902.141	19753
902.26	19780
902.379	19769
902.498	19704
902.617	19731
902.735	19830
902.854	19723
902.973	19628
903.091	19438
903.21	19438
903.328	19411
903.446	19285
903.565	19126
903.683	19179
903.801	19038
903.919	19072
904.038	19118
904.156	18962
904.274	19038
904.392	18901
904.51	18935
904.627	18894
904.745	19076
904.863	18947
904.981	18741
905.098	18623
905.216	18540
905.334	18684
905.451	18597
905.569	18597
905.686	18749
905.803	18661
905.921	18380
906.038	18517
906.155	18441
906.272	18346
906.389	18277
906.506	18129
906.623	18266
906.74	18117
906.857	18019
906.974	17996
907.091	18201
907.208	18205
907.324	18110
907.441	17980
907.557	17923
907.674	17840
907.79	17726
907.907	17798
908.023	17958
908.139	17874
908.256	17821
908.372	17783
908.488	17722
908.604	17611
908.72	17623
908.836	17532
908.952	17566
909.068	17482
909.184	17596
909.3	17615
909.415	17577
909.531	17421
909.647	17307
909.762	17330
909.878	17284
909.993	17307
910.108	17360
910.224	17162
910.339	17246
910.454	17162
910.57	17018
910.685	17033
910.8	17052
910.915	17254
911.03	16999
911.145	16911
911.259	16908
911.374	16835
911.489	16774
911.604	16759
911.718	16523
911.833	16637
911.947	16402
912.062	16306
912.176	16523
912.291	16561
912.405	16607
912.519	16831
912.633	16706
912.748	16577
912.862	16546
912.976	16367
913.09	16344
913.204	16284
913.318	16318
913.431	16424
913.545	16466
913.659	16466
913.772	16287
913.886	16173
914	16188
914.113	16238
914.226	16204
914.34	16246
914.453	16002
914.566	16204
914.68	16093
914.793	16067
914.906	15797
915.019	15827
915.132	15732
915.245	15633
915.358	15762
915.47	15812
915.583	15701
915.696	15800
915.809	15911
915.921	15888
916.034	15698
916.146	15667
916.259	15629
916.371	15892
916.483	15728
916.595	15584
916.708	15599
916.82	15595
916.932	15507
917.044	15526
917.156	15473
917.268	15462
917.38	15386
917.491	15393
917.603	15405
917.715	15420
917.826	15473
917.938	15291
918.049	15264
918.161	15370
918.272	15424
918.384	15405
918.495	15287
918.606	15211
918.717	15074
918.828	15150
918.939	15146
919.05	15020
919.161	15207
919.272	14872
919.383	15081
919.494	15127
919.604	15329
919.715	15093
919.826	15074
919.936	14998
920.047	15119
920.157	15085
920.267	15344
920.378	15070
920.488	14986
920.598	15218
920.708	15420
920.818	15192
920.928	15169
921.038	15344
921.148	15363
921.258	15024
921.368	14872
921.477	14853
921.587	14815
921.697	14682
921.806	14838
921.916	14632
922.025	14465
922.134	14480
922.244	14408
922.353	14461
922.462	14305
922.571	14206
922.68	14218
922.789	14065
922.898	14130
923.007	14054
923.116	14134
923.224	14054
923.333	14088
923.442	13967
923.55	13894
923.659	13887
923.767	13890
923.876	13864
923.984	13830
924.092	13879
924.201	13871
924.309	13799
924.417	13811
924.525	13795
924.633	13826
924.741	14568
924.849	13514
924.956	13613
925.064	13510
925.172	13346
925.279	13411
925.387	13430
925.494	13487
925.602	13590
925.709	13563
925.816	13381
925.924	13392
926.031	13472
926.138	13434
926.245	13487
926.352	13270
926.459	13464
926.566	13384
926.673	13419
926.779	13282
926.886	13095
926.993	13069
927.099	13027
927.206	12989
927.312	12924
927.419	12954
927.525	13042
927.631	13027
927.737	12920
927.843	12875
927.95	12730
928.056	12837
928.162	12852
928.267	12840
928.373	13415
928.479	12878
928.585	12677
928.69	12810
928.796	12791
928.901	12757
929.007	12502
929.112	12825
929.218	12646
929.323	12578
929.428	12509
929.533	12711
929.638	12536
929.743	12536
929.848	12528
929.953	12483
930.058	12315
930.163	12285
930.267	12243
930.372	12388
930.477	12159
930.581	12350
930.685	12224
930.79	12110
930.894	12133
930.998	12102
931.103	12194
931.207	11863
931.311	11828
931.415	11688
931.519	11558
931.623	11493
