Data from test_V78500241_3756.txt Node
Date: Fri Mar 25 16:07:49 CST 2022
User: usil
Spectrometer: V785-0024
Trigger mode: 0
Integration Time (sec): 4.000000E-1
Scans to average: 1
Nonlinearity correction enabled: false
Boxcar width: 0
Storing dark spectrum: false
XAxis mode: Wavelengths
Number of Pixels in Spectrum: 1024
>>>>>Begin Spectral Data<<<<<
801.071	21108
801.214	21108
801.356	21024
801.499	21074
801.641	21039
801.783	21116
801.926	21184
802.068	21431
802.211	21306
802.353	21310
802.496	21298
802.638	21374
802.78	21275
802.923	21294
803.065	21370
803.208	21321
803.35	21644
803.492	21804
803.635	21888
803.777	21842
803.919	21922
804.061	22371
804.204	22093
804.346	22048
804.488	21998
804.63	22078
804.773	22017
804.915	22177
805.057	22268
805.199	22177
805.341	22367
805.483	22295
805.626	22257
805.768	22318
805.91	22303
806.052	22390
806.194	22284
806.336	22527
806.478	22352
806.62	22561
806.762	22542
806.904	22721
807.046	22850
807.188	22805
807.33	22691
807.472	22782
807.614	22618
807.756	22668
807.898	22672
808.04	22546
808.182	22455
808.324	22542
808.465	22656
808.607	22782
808.749	23018
808.891	22934
809.033	22976
809.174	23056
809.316	22965
809.458	22831
809.6	22740
809.741	22976
809.883	22984
810.025	23170
810.166	23212
810.308	23018
810.45	23113
810.591	23067
810.733	22797
810.875	22889
811.016	22759
811.158	22729
811.299	22740
811.441	23022
811.582	22987
811.724	22782
811.865	22725
812.007	22812
812.148	22790
812.29	22839
812.431	22919
812.573	23048
812.714	23231
812.855	23398
812.997	23505
813.138	23551
813.279	23459
813.421	23383
813.562	23368
813.703	23136
813.845	23113
813.986	22812
814.127	22675
814.268	22489
814.41	22580
814.551	22641
814.692	22584
814.833	22561
814.974	22455
815.115	22573
815.256	22599
815.397	22436
815.539	22379
815.68	22337
815.821	22348
815.962	22447
816.103	22451
816.244	22268
816.385	22204
816.526	22150
816.666	22070
816.807	22017
816.948	22086
817.089	22150
817.23	22006
817.371	21968
817.512	21956
817.653	22029
817.793	21991
817.934	22044
818.075	22055
818.216	21953
818.356	21994
818.497	21956
818.638	21846
818.778	21915
818.919	21770
819.06	21911
819.2	22006
819.341	22116
819.481	22109
819.622	22211
819.762	22478
819.903	22527
820.043	22272
820.184	22303
820.324	22276
820.465	22348
820.605	22287
820.746	22344
820.886	22280
821.026	22405
821.167	22318
821.307	22565
821.447	22379
821.588	22223
821.728	22177
821.868	22002
822.008	22002
822.149	21934
822.289	21907
822.429	21694
822.569	21614
822.709	21568
822.849	21568
822.99	21325
823.13	21500
823.27	21428
823.41	21279
823.55	21203
823.69	21313
823.83	21313
823.97	21256
824.11	21081
824.25	21081
824.389	21081
824.529	21260
824.669	21173
824.809	21336
824.949	21180
825.089	21306
825.228	21192
825.368	21100
825.508	21047
825.648	21081
825.787	21127
825.927	21184
826.067	21024
826.206	21112
826.346	21355
826.485	21256
826.625	21176
826.765	21268
826.904	21230
827.044	21028
827.183	20914
827.323	20842
827.462	21020
827.601	20941
827.741	20937
827.88	20921
828.02	20758
828.159	20914
828.298	21017
828.437	21005
828.577	20982
828.716	21188
828.855	20834
828.994	20826
829.134	20834
829.273	20785
829.412	20720
829.551	20804
829.69	20804
829.829	20891
829.968	20853
830.107	20876
830.246	20861
830.385	20887
830.524	20754
830.663	20674
830.802	20571
830.941	20495
831.08	20438
831.219	20621
831.357	20606
831.496	20705
831.635	20457
831.774	20514
831.913	20412
832.051	20404
832.19	20351
832.329	20408
832.467	20256
832.606	20233
832.744	20206
832.883	20301
833.022	20294
833.16	20267
833.299	20366
833.437	20389
833.576	20434
833.714	20351
833.852	20355
833.991	20431
834.129	20549
834.267	20465
834.406	20473
834.544	20488
834.682	20408
834.821	20514
834.959	20727
835.097	20533
835.235	20606
835.373	20541
835.511	20632
835.65	20484
835.788	20396
835.926	20393
836.064	20324
836.202	20305
836.34	20488
836.478	20514
836.615	20514
836.753	20568
836.891	20533
837.029	20609
837.167	20476
837.305	20461
837.443	20412
837.58	20457
837.718	20564
837.856	20492
837.993	20377
838.131	20473
838.269	20351
838.406	20370
838.544	20294
838.681	20126
838.819	20252
838.956	20020
839.094	20012
839.231	20111
839.369	20145
839.506	20438
839.643	20324
839.781	20195
839.918	20054
840.055	19982
840.193	20031
840.33	20058
840.467	20153
840.604	20202
840.742	20389
840.879	19955
841.016	19947
841.153	20065
841.29	20328
841.427	20161
841.564	20199
841.701	20054
841.838	20161
841.975	20157
842.112	20183
842.249	20081
842.385	20077
842.522	20244
842.659	20084
842.796	19951
842.933	20134
843.069	20024
843.206	19989
843.343	20138
843.479	20153
843.616	20149
843.752	19986
843.889	19947
844.025	20062
844.162	19807
844.298	19925
844.435	19997
844.571	19902
844.708	20027
844.844	20214
844.98	20077
845.117	20024
845.253	20001
845.389	19841
845.525	19963
845.661	19807
845.798	19822
845.934	19795
846.07	19723
846.206	19883
846.342	19890
846.478	19898
846.614	19521
846.75	19480
846.886	19597
847.022	19689
847.158	19635
847.294	19658
847.429	19689
847.565	19548
847.701	19883
847.837	19453
847.972	19400
848.108	19460
848.244	19575
848.379	19350
848.515	19301
848.65	19213
848.786	19297
848.921	19343
849.057	19381
849.192	19445
849.328	19373
849.463	19400
849.598	19312
849.734	19278
849.869	19213
850.004	19255
850.14	19183
850.275	19034
850.41	19084
850.545	19152
850.68	19156
850.815	19160
850.95	19046
851.085	19301
851.22	19266
851.355	19206
851.49	19114
851.625	19179
851.76	19137
851.895	19031
852.03	19031
852.165	19217
852.299	19156
852.434	19266
852.569	19148
852.703	19129
852.838	19301
852.973	19430
853.107	19392
853.242	19217
853.376	19046
853.511	18905
853.645	19069
853.78	19019
853.914	19114
854.048	18970
854.183	18958
854.317	19027
854.451	19236
854.585	19110
854.72	19110
854.854	19225
854.988	19133
855.122	19038
855.256	18909
855.39	18935
855.524	19110
855.658	19171
855.792	19061
855.926	19137
856.06	19152
856.194	19126
856.327	19145
856.461	19126
856.595	18977
856.729	19053
856.862	19209
856.996	19232
857.13	19141
857.263	19156
857.397	19209
857.53	19050
857.664	19247
857.797	19213
857.931	19240
858.064	19091
858.197	19141
858.331	19213
858.464	19061
858.597	19008
858.731	19141
858.864	19107
858.997	19118
859.13	19110
859.263	19126
859.396	19228
859.529	19198
859.662	19000
859.795	19126
859.928	19168
860.061	19171
860.194	19324
860.327	19148
860.46	19198
860.592	19255
860.725	19350
860.858	19324
860.99	19133
861.123	19206
861.256	19099
861.388	19053
861.521	19887
861.653	19019
861.786	18943
861.918	18894
862.05	19050
862.183	19107
862.315	19076
862.447	19225
862.58	18913
862.712	18878
862.844	18916
862.976	18947
863.108	18890
863.24	19411
863.372	18825
863.504	18867
863.636	18913
863.768	18954
863.9	19027
864.032	18852
864.164	18916
864.296	18981
864.428	18882
864.559	18985
864.691	19012
864.823	18913
864.954	18932
865.086	19053
865.217	18844
865.349	18734
865.48	18783
865.612	18829
865.743	18939
865.875	18833
866.006	18894
866.137	18875
866.269	18863
866.4	18802
866.531	18787
866.662	18722
866.793	18795
866.924	18882
867.055	18757
867.186	18806
867.317	18661
867.448	18779
867.579	18825
867.71	18753
867.841	18760
867.972	18764
868.103	18814
868.233	18764
868.364	18700
868.495	18859
868.625	19031
868.756	19141
868.886	19076
869.017	18958
869.147	19053
869.278	19179
869.408	19050
869.539	19038
869.669	19164
869.799	19145
869.929	19251
870.06	19247
870.19	19324
870.32	19350
870.45	19434
870.58	19468
870.71	19563
870.84	19483
870.97	19487
871.1	19434
871.23	19712
871.36	19746
871.489	19628
871.619	19632
871.749	19563
871.879	19731
872.008	19685
872.138	19632
872.267	19647
872.397	19529
872.526	19525
872.656	19369
872.785	19540
872.915	19700
873.044	19791
873.173	19677
873.303	19746
873.432	19772
873.561	19890
873.69	19750
873.819	19849
873.948	19750
874.077	19651
874.206	19727
874.335	19715
874.464	19849
874.593	20005
874.722	19940
874.851	19944
874.979	19944
875.108	19936
875.237	19944
875.365	19913
875.494	19894
875.623	20145
875.751	20012
875.88	20084
876.008	20058
876.136	20183
876.265	20438
876.393	20465
876.521	20339
876.65	20434
876.778	20473
876.906	20298
877.034	20381
877.162	20377
877.29	20206
877.418	20286
877.546	20412
877.674	20320
877.802	20442
877.93	20290
878.058	20343
878.185	20202
878.313	20290
878.441	20278
878.568	20119
878.696	20320
878.824	20454
878.951	20476
879.079	20549
879.206	20731
879.333	20427
879.461	20412
879.588	20419
879.715	20568
879.842	20651
879.97	20514
880.097	20294
880.224	20271
880.351	20271
880.478	20301
880.605	20126
880.732	20195
880.859	20339
880.986	20263
881.112	20286
881.239	20046
881.366	19947
881.493	19947
881.619	19761
881.746	19849
881.872	19925
881.999	19742
882.125	19795
882.252	19826
882.378	19830
882.505	19921
882.631	19772
882.757	19677
882.883	19639
883.01	19632
883.136	19468
883.262	19434
883.388	19373
883.514	19480
883.64	19559
883.766	19460
883.892	19266
884.018	19483
884.143	19514
884.269	19700
884.395	19244
884.52	19194
884.646	19228
884.772	19225
884.897	19080
885.023	19251
885.148	19354
885.274	19316
885.399	19384
885.524	19156
885.65	19168
885.775	19217
885.9	19099
886.025	19187
886.15	19304
886.275	19107
886.4	19110
886.525	19179
886.65	19164
886.775	19175
886.9	19358
887.025	19464
887.149	19266
887.274	18981
887.399	19008
887.523	19046
887.648	18886
887.773	19027
887.897	19091
888.021	19012
888.146	19042
888.27	19057
888.395	18973
888.519	19019
888.643	19034
888.767	18993
888.891	18928
889.015	18776
889.139	18943
889.263	18814
889.387	18890
889.511	19050
889.635	18916
889.759	18661
889.883	18764
890.006	18779
890.13	18696
890.254	18711
890.377	18715
890.501	18597
890.624	18441
890.748	18631
890.871	18483
890.995	18422
891.118	18292
891.241	18407
891.364	18330
891.488	18323
891.611	18357
891.734	18414
891.857	18494
891.98	18330
892.103	18380
892.226	18350
892.349	18152
892.471	18057
892.594	18254
892.717	18292
892.839	18270
892.962	18220
893.085	18330
893.207	18114
893.33	18041
893.452	18194
893.575	18216
893.697	18197
893.819	18350
893.941	18418
894.064	18388
894.186	18030
894.308	18003
894.43	18144
894.552	18197
894.674	18182
894.796	17927
894.918	18095
895.04	18003
895.161	18148
895.283	18053
895.405	17939
895.526	17992
895.648	17950
895.769	18110
895.891	18049
896.012	17965
896.134	17973
896.255	17931
896.376	17954
896.498	18057
896.619	17939
896.74	17882
896.861	17969
896.982	18106
897.103	18285
897.224	18011
897.345	18068
897.466	17950
897.587	17961
897.708	18091
897.828	17988
897.949	17923
898.07	17665
898.19	17775
898.311	17980
898.431	17764
898.552	17798
898.672	17935
898.792	17737
898.913	17703
899.033	17684
899.153	17463
899.273	17391
899.393	17444
899.513	17360
899.633	17414
899.753	17387
899.873	17379
899.993	17349
900.113	17288
900.232	17334
900.352	17288
900.472	17235
900.591	17128
900.711	17318
900.83	17056
900.95	17254
901.069	17337
901.189	17102
901.308	16968
901.427	16736
901.546	16873
901.665	16752
901.784	16908
901.904	16793
902.023	16748
902.141	16523
902.26	16382
902.379	16500
902.498	16493
902.617	16546
902.735	16527
902.854	16538
902.973	16409
903.091	16306
903.21	16299
903.328	16348
903.446	16219
903.565	16265
903.683	16173
903.801	16188
903.919	16295
904.038	16257
904.156	16188
904.274	16143
904.392	16173
904.51	16074
904.627	16284
904.745	16185
904.863	16196
904.981	16078
905.098	15968
905.216	16048
905.334	16048
905.451	16006
905.569	16051
905.686	16116
905.803	16204
905.921	15922
906.038	15998
906.155	15937
906.272	15892
906.389	15831
906.506	15739
906.623	15770
906.74	15789
906.857	15717
906.974	15736
907.091	15975
907.208	16124
907.324	15903
907.441	15842
907.557	15545
907.674	15633
907.79	15523
907.907	15713
908.023	15739
908.139	15679
908.256	15663
908.372	15641
908.488	15648
908.604	15545
908.72	15443
908.836	15405
908.952	15477
909.068	15469
909.184	15549
909.3	15500
909.415	15545
909.531	15606
909.647	15321
909.762	15237
909.878	15150
909.993	15268
910.108	15192
910.224	15180
910.339	15329
910.454	15207
910.57	15176
910.685	15009
910.8	15329
910.915	15332
911.03	15157
911.145	14979
911.259	14990
911.374	14887
911.489	14979
911.604	14849
911.718	14674
911.833	14800
911.947	14663
912.062	14598
912.176	14727
912.291	14739
912.405	14712
912.519	14941
912.633	14971
912.748	14838
912.862	14674
912.976	14602
913.09	14575
913.204	14503
913.318	14579
913.431	14705
913.545	14663
913.659	14724
913.772	14678
913.886	14514
914	14457
914.113	14511
914.226	14575
914.34	14549
914.453	14343
914.566	14552
914.68	14358
914.793	14336
914.906	14138
915.019	13989
915.132	14134
915.245	14077
915.358	14103
915.47	14050
915.583	14138
915.696	14058
915.809	14164
915.921	14229
916.034	14027
916.146	14016
916.259	14069
916.371	14062
916.483	14001
916.595	13955
916.708	14016
916.82	13978
916.932	13902
917.044	13902
917.156	13947
917.268	13776
917.38	13883
917.491	13811
917.603	13765
917.715	13795
917.826	13871
917.938	13772
918.049	13624
918.161	13814
918.272	13879
918.384	13871
918.495	13769
918.606	13639
918.717	13559
918.828	13643
918.939	13613
919.05	13495
919.161	13556
919.272	13369
919.383	13407
919.494	13670
919.604	13803
919.715	13525
919.826	13464
919.936	13563
920.047	13651
920.157	13643
920.267	13738
920.378	13620
920.488	13521
920.598	13746
920.708	13753
920.818	13719
920.928	13696
921.038	14031
921.148	13879
921.258	13594
921.368	13449
921.477	13316
921.587	13308
921.697	13247
921.806	13343
921.916	13225
922.025	13027
922.134	13023
922.244	12939
922.353	12924
922.462	12916
922.571	12867
922.68	12627
922.789	12502
922.898	12646
923.007	12582
923.116	12631
923.224	12726
923.333	12646
923.442	12452
923.55	12490
923.659	12521
923.767	12555
923.876	12490
923.984	12506
924.092	12342
924.201	12407
924.309	12369
924.417	12418
924.525	12315
924.633	12300
924.741	13343
924.849	12201
924.956	12304
925.064	12095
925.172	12129
925.279	12095
925.387	12034
925.494	12045
925.602	12270
925.709	12148
925.816	12049
925.924	12064
926.031	12175
926.138	12110
926.245	12121
926.352	11977
926.459	12030
926.566	12117
926.673	12019
926.779	11798
926.886	11813
926.993	11699
927.099	11668
927.206	11642
927.312	11703
927.419	11668
927.525	11611
927.631	11726
927.737	11623
927.843	11436
927.95	11364
928.056	11444
928.162	11482
928.267	11577
928.373	12152
928.479	11600
928.585	11296
928.69	11501
928.796	11478
928.901	11280
929.007	11231
929.112	11356
929.218	11372
929.323	11216
929.428	11227
929.533	11433
929.638	11159
929.743	11170
929.848	11178
929.953	11117
930.058	11056
930.163	10892
930.267	10923
930.372	11094
930.477	10896
930.581	11124
930.685	11003
930.79	10862
930.894	10896
930.998	10850
931.103	10873
931.207	10558
931.311	10565
931.415	10455
931.519	10242
931.623	10242
