Data from test_V78500241_2324.txt Node
Date: Fri Mar 25 15:57:53 CST 2022
User: usil
Spectrometer: V785-0024
Trigger mode: 0
Integration Time (sec): 4.000000E-1
Scans to average: 1
Nonlinearity correction enabled: false
Boxcar width: 0
Storing dark spectrum: false
XAxis mode: Wavelengths
Number of Pixels in Spectrum: 1024
>>>>>Begin Spectral Data<<<<<
801.071	28911
801.214	28786
801.356	28527
801.499	28580
801.641	28497
801.783	28455
801.926	28557
802.068	28535
802.211	28382
802.353	28398
802.496	28207
802.638	28306
802.78	28211
802.923	28150
803.065	28158
803.208	28181
803.35	28234
803.492	28158
803.635	28428
803.777	28272
803.919	28440
804.061	28653
804.204	28371
804.346	28459
804.488	28360
804.63	28367
804.773	28325
804.915	28428
805.057	28679
805.199	28493
805.341	28599
805.483	28713
805.626	28542
805.768	28352
805.91	28550
806.052	28580
806.194	28527
806.336	28588
806.478	28637
806.62	28729
806.762	28831
806.904	28915
807.046	29121
807.188	29128
807.33	29083
807.472	29128
807.614	29048
807.756	29204
807.898	28946
808.04	28900
808.182	28820
808.324	28911
808.465	29041
808.607	29254
808.749	29280
808.891	29220
809.033	29387
809.174	29258
809.316	29315
809.458	29296
809.6	29311
809.741	29345
809.883	29387
810.025	29691
810.166	29539
810.308	29558
810.45	29596
810.591	29459
810.733	29425
810.875	29265
811.016	29273
811.158	29311
811.299	29463
811.441	29493
811.582	29554
811.724	29227
811.865	29258
812.007	29250
812.148	29414
812.29	29375
812.431	29509
812.573	29665
812.714	29699
812.855	29726
812.997	29958
813.138	30197
813.279	29878
813.421	29824
813.562	29703
813.703	29680
813.845	29661
813.986	29269
814.127	29014
814.268	29033
814.41	28991
814.551	29048
814.692	29147
814.833	28885
814.974	29037
815.115	28995
815.256	28866
815.397	28934
815.539	29044
815.68	28919
815.821	28782
815.962	28843
816.103	28752
816.244	28618
816.385	28546
816.526	28694
816.666	28306
816.807	28367
816.948	28360
817.089	28409
817.23	28401
817.371	28344
817.512	28314
817.653	28390
817.793	28253
817.934	28363
818.075	28272
818.216	28337
818.356	28280
818.497	28204
818.638	28181
818.778	28181
818.919	28093
819.06	28120
819.2	28287
819.341	28333
819.481	28303
819.622	28523
819.762	28805
819.903	28554
820.043	28618
820.184	28531
820.324	28485
820.465	28516
820.605	28470
820.746	28531
820.886	28436
821.026	28573
821.167	28428
821.307	28519
821.447	28417
821.588	28196
821.728	28143
821.868	28131
822.008	27911
822.149	27857
822.289	27690
822.429	27583
822.569	27545
822.709	27561
822.849	27256
822.99	27260
823.13	27374
823.27	27348
823.41	27138
823.55	27138
823.69	27218
823.83	27207
823.97	27150
824.11	26918
824.25	26971
824.389	26982
824.529	27020
824.669	27036
824.809	27074
824.949	27001
825.089	27192
825.228	26998
825.368	26804
825.508	26861
825.648	26773
825.787	26933
825.927	27009
826.067	26849
826.206	26746
826.346	26785
826.485	27051
826.625	26990
826.765	26982
826.904	26868
827.044	26571
827.183	26476
827.323	26575
827.462	26830
827.601	26613
827.741	26571
827.88	26598
828.02	26495
828.159	26549
828.298	26549
828.437	26682
828.577	26461
828.716	26864
828.855	26450
828.994	26237
829.134	26324
829.273	26404
829.412	26130
829.551	26256
829.69	26221
829.829	26290
829.968	26469
830.107	26389
830.246	26358
830.385	26161
830.524	26206
830.663	26134
830.802	25997
830.941	25871
831.08	25818
831.219	25993
831.357	25909
831.496	26096
831.635	25852
831.774	25727
831.913	25772
832.051	25586
832.19	25685
832.329	25613
832.467	25552
832.606	25613
832.744	25510
832.883	25529
833.022	25354
833.16	25514
833.299	25639
833.437	25582
833.576	25674
833.714	25590
833.852	25712
833.991	25681
834.129	25788
834.267	25769
834.406	25586
834.544	25731
834.682	25548
834.821	25537
834.959	25772
835.097	25700
835.235	25651
835.373	25674
835.511	25628
835.65	25537
835.788	25396
835.926	25274
836.064	25179
836.202	25270
836.34	25438
836.478	25495
836.615	25457
836.753	25476
836.891	25487
837.029	25457
837.167	25274
837.305	25259
837.443	25316
837.58	25213
837.718	25343
837.856	25373
837.993	25251
838.131	25301
838.269	25126
838.406	25209
838.544	25095
838.681	24981
838.819	24878
838.956	24658
839.094	24578
839.231	24585
839.369	24935
839.506	25004
839.643	24958
839.781	24582
839.918	24692
840.055	24791
840.193	24692
840.33	24661
840.467	24703
840.604	24654
840.742	24867
840.879	24661
841.016	24467
841.153	24372
841.29	24711
841.427	24646
841.564	24585
841.701	24597
841.838	24498
841.975	24429
842.112	24532
842.249	24422
842.385	24292
842.522	24681
842.659	24505
842.796	24403
842.933	24319
843.069	24308
843.206	24285
843.343	24380
843.479	24525
843.616	24429
843.752	24091
843.889	24273
844.025	24201
844.162	24098
844.298	24197
844.435	24140
844.571	24106
844.708	24205
844.844	24327
844.98	24327
845.117	24190
845.253	24091
845.389	23950
845.525	24083
845.661	24034
845.798	23901
845.934	23802
846.07	23790
846.206	24015
846.342	23866
846.478	23798
846.614	23657
846.75	23433
846.886	23604
847.022	23748
847.158	23554
847.294	23596
847.429	23615
847.565	23741
847.701	23794
847.837	23265
847.972	23299
848.108	23497
848.244	23383
848.379	23212
848.515	23174
848.65	23147
848.786	23162
848.921	23178
849.057	23277
849.192	23223
849.328	23197
849.463	23193
849.598	23098
849.734	23102
849.869	22999
850.004	22949
850.14	22908
850.275	22961
850.41	22824
850.545	22885
850.68	22934
850.815	23006
850.95	22949
851.085	23124
851.22	23079
851.355	22869
851.49	22839
851.625	22892
851.76	22930
851.895	22965
852.03	22984
852.165	23029
852.299	23102
852.434	23064
852.569	22999
852.703	22908
852.838	23113
852.973	23128
853.107	22946
853.242	22908
853.376	22873
853.511	22641
853.645	22755
853.78	22965
853.914	22744
854.048	22786
854.183	22873
854.317	22752
854.451	23060
854.585	22782
854.72	22656
854.854	22748
854.988	22797
855.122	22908
855.256	22607
855.39	22702
855.524	22801
855.658	22797
855.792	22771
855.926	22816
856.06	22797
856.194	22877
856.327	22740
856.461	22679
856.595	22805
856.729	22873
856.862	22957
856.996	22820
857.13	23010
857.263	22904
857.397	22938
857.53	22797
857.664	22900
857.797	22900
857.931	22892
858.064	22831
858.197	22949
858.331	22729
858.464	22744
858.597	22675
858.731	22725
858.864	22828
858.997	22733
859.13	22691
859.263	22889
859.396	22942
859.529	22702
859.662	22736
859.795	22744
859.928	22809
860.061	22953
860.194	23159
860.327	22835
860.46	22896
860.592	22957
860.725	22866
860.858	22831
860.99	22786
861.123	22679
861.256	22767
861.388	22892
861.521	23417
861.653	22736
861.786	22512
861.918	22592
862.05	22637
862.183	22626
862.315	22641
862.447	22611
862.58	22694
862.712	22622
862.844	22588
862.976	22550
863.108	22546
863.24	22889
863.372	22352
863.504	22375
863.636	22485
863.768	22504
863.9	22550
864.032	22561
864.164	22440
864.296	22481
864.428	22538
864.559	22485
864.691	22618
864.823	22508
864.954	22443
865.086	22519
865.217	22367
865.349	22348
865.48	22428
865.612	22371
865.743	22554
865.875	22478
866.006	22436
866.137	22341
866.269	22360
866.4	22382
866.531	22246
866.662	22261
866.793	22291
866.924	22348
867.055	22310
867.186	22363
867.317	22333
867.448	22093
867.579	22356
867.71	22181
867.841	22192
867.972	22367
868.103	22230
868.233	22333
868.364	22207
868.495	22451
868.625	22481
868.756	22626
868.886	22436
869.017	22474
869.147	22672
869.278	22656
869.408	22504
869.539	22618
869.669	22565
869.799	22500
869.929	22736
870.06	22675
870.19	22873
870.32	22759
870.45	22839
870.58	22949
870.71	23014
870.84	23048
870.97	22805
871.1	22953
871.23	23071
871.36	23212
871.489	23010
871.619	22987
871.749	23155
871.879	23071
872.008	23227
872.138	23166
872.267	23193
872.397	23075
872.526	22919
872.656	22919
872.785	22968
872.915	23330
873.044	23174
873.173	23212
873.303	23307
873.432	23189
873.561	23166
873.69	23185
873.819	23098
873.948	23098
874.077	23124
874.206	23166
874.335	23189
874.464	23315
874.593	23330
874.722	23433
874.851	23360
874.979	23414
875.108	23296
875.237	23288
875.365	23170
875.494	23299
875.623	23414
875.751	23220
875.88	23341
876.008	23452
876.136	23535
876.265	23726
876.393	23863
876.521	23843
876.65	23859
876.778	23630
876.906	23653
877.034	23745
877.162	23710
877.29	23611
877.418	23741
877.546	23752
877.674	23668
877.802	23657
877.93	23646
878.058	23718
878.185	23570
878.313	23604
878.441	23665
878.568	23421
878.696	23600
878.824	23695
878.951	23832
879.079	23821
879.206	23939
879.333	23764
879.461	23798
879.588	23687
879.715	23775
879.842	23954
879.97	23771
880.097	23646
880.224	23429
880.351	23627
880.478	23474
880.605	23459
880.732	23486
880.859	23748
880.986	23486
881.112	23463
881.239	23395
881.366	23250
881.493	23265
881.619	23083
881.746	23136
881.872	23102
881.999	22991
882.125	23147
882.252	23003
882.378	23014
882.505	23010
882.631	22911
882.757	22736
882.883	22816
883.01	22812
883.136	22706
883.262	22607
883.388	22577
883.514	22664
883.64	22774
883.766	22573
883.892	22470
884.018	22485
884.143	22645
884.269	22748
884.395	22447
884.52	22386
884.646	22440
884.772	22402
884.897	22291
885.023	22432
885.148	22440
885.274	22622
885.399	22386
885.524	22417
885.65	22322
885.775	22402
885.9	22204
886.025	22432
886.15	22428
886.275	22337
886.4	22265
886.525	22310
886.65	22306
886.775	22325
886.9	22424
887.025	22535
887.149	22238
887.274	22188
887.399	22074
887.523	22101
887.648	22048
887.773	22063
887.897	22147
888.021	22158
888.146	22090
888.27	22249
888.395	22219
888.519	22162
888.643	22105
888.767	22185
888.891	22036
889.015	22032
889.139	21911
889.263	21907
889.387	22139
889.511	22044
889.635	21975
889.759	21861
889.883	21797
890.006	21915
890.13	21983
890.254	21774
890.377	21991
890.501	21812
890.624	21625
890.748	21568
890.871	21473
890.995	21378
891.118	21462
891.241	21428
891.364	21538
891.488	21625
891.611	21389
891.734	21450
891.857	21367
891.98	21378
892.103	21473
892.226	21424
892.349	21325
892.471	21241
892.594	21249
892.717	21389
892.839	21207
892.962	21382
893.085	21401
893.207	21340
893.33	21279
893.452	21214
893.575	21359
893.697	21233
893.819	21408
893.941	21576
894.064	21408
894.186	21344
894.308	21226
894.43	21454
894.552	21416
894.674	21374
894.796	21279
894.918	21264
895.04	21367
895.161	21401
895.283	21272
895.405	21245
895.526	21256
895.648	21237
895.769	21359
895.891	21291
896.012	21439
896.134	21401
896.255	21329
896.376	21298
896.498	21348
896.619	21306
896.74	21317
896.861	21359
896.982	21633
897.103	21842
897.224	21583
897.345	21561
897.466	21462
897.587	21606
897.708	21660
897.828	21572
897.949	21401
898.07	21336
898.19	21405
898.311	21545
898.431	21485
898.552	21450
898.672	21595
898.792	21477
898.913	21557
899.033	21408
899.153	21321
899.273	21211
899.393	21135
899.513	21260
899.633	21268
899.753	21230
899.873	21203
899.993	21169
900.113	21211
900.232	21218
900.352	21176
900.472	21112
900.591	20883
900.711	20937
900.83	20994
900.95	21214
901.069	21104
901.189	20937
901.308	20701
901.427	20636
901.546	20514
901.665	20484
901.784	20514
901.904	20419
902.023	20370
902.141	20225
902.26	20031
902.379	20176
902.498	20027
902.617	20058
902.735	20062
902.854	20069
902.973	19894
903.091	19738
903.21	19719
903.328	19715
903.446	19590
903.565	19594
903.683	19518
903.801	19396
903.919	19529
904.038	19358
904.156	19392
904.274	19381
904.392	19324
904.51	19240
904.627	19240
904.745	19301
904.863	19327
904.981	19129
905.098	18867
905.216	19004
905.334	18977
905.451	18996
905.569	18882
905.686	18985
905.803	18905
905.921	18749
906.038	18844
906.155	18711
906.272	18627
906.389	18730
906.506	18429
906.623	18422
906.74	18494
906.857	18289
906.974	18334
907.091	18448
907.208	18608
907.324	18479
907.441	18296
907.557	18308
907.674	18213
907.79	18125
907.907	18079
908.023	18266
908.139	18182
908.256	18095
908.372	18015
908.488	18026
908.604	18060
908.72	17904
908.836	17969
908.952	17885
909.068	17805
909.184	18011
909.3	17824
909.415	17847
909.531	17863
909.647	17741
909.762	17630
909.878	17570
909.993	17608
910.108	17558
910.224	17524
910.339	17539
910.454	17368
910.57	17417
910.685	17254
910.8	17585
910.915	17524
911.03	17299
911.145	17151
911.259	17121
911.374	17185
911.489	16991
911.604	16980
911.718	16824
911.833	16938
911.947	16767
912.062	16664
912.176	16873
912.291	16930
912.405	16892
912.519	17045
912.633	17045
912.748	16923
912.862	16885
912.976	16672
913.09	16580
913.204	16664
913.318	16637
913.431	16725
913.545	16778
913.659	16786
913.772	16542
913.886	16558
914	16443
914.113	16584
914.226	16561
914.34	16596
914.453	16371
914.566	16443
914.68	16375
914.793	16253
914.906	16150
915.019	16048
915.132	16036
915.245	16029
915.358	16002
915.47	16071
915.583	16120
915.696	16097
915.809	16158
915.921	16150
916.034	15987
916.146	16002
916.259	15918
916.371	16032
916.483	16131
916.595	15774
916.708	15812
916.82	15766
916.932	15736
917.044	15766
917.156	15808
917.268	15633
917.38	15648
917.491	15671
917.603	15671
917.715	15675
917.826	15713
917.938	15523
918.049	15466
918.161	15610
918.272	15705
918.384	15641
918.495	15538
918.606	15473
918.717	15370
918.828	15515
918.939	15504
919.05	15359
919.161	15386
919.272	15173
919.383	15260
919.494	15401
919.604	15568
919.715	15393
919.826	15249
919.936	15408
920.047	15336
920.157	15332
920.267	15564
920.378	15382
920.488	15260
920.598	15481
920.708	15633
920.818	15549
920.928	15412
921.038	15633
921.148	15603
921.258	15332
921.368	15211
921.477	15005
921.587	15039
921.697	14948
921.806	15127
921.916	14845
922.025	14727
922.134	14743
922.244	14735
922.353	14739
922.462	14621
922.571	14610
922.68	14381
922.789	14332
922.898	14358
923.007	14389
923.116	14336
923.224	14355
923.333	14252
923.442	14256
923.55	14191
923.659	14164
923.767	14305
923.876	14111
923.984	14123
924.092	14058
924.201	14119
924.309	14107
924.417	14119
924.525	13963
924.633	14024
924.741	14960
924.849	13856
924.956	13928
925.064	13788
925.172	13677
925.279	13738
925.387	13750
925.494	13753
925.602	13902
925.709	13769
925.816	13624
925.924	13738
926.031	13803
926.138	13567
926.245	13658
926.352	13582
926.459	13632
926.566	13624
926.673	13651
926.779	13597
926.886	13544
926.993	13358
927.099	13266
927.206	13225
927.312	13297
927.419	13339
927.525	13301
927.631	13384
927.737	13107
927.843	13171
927.95	13046
928.056	12951
928.162	13080
928.267	13118
928.373	13727
928.479	13107
928.585	12890
928.69	12943
928.796	13046
928.901	12882
929.007	12897
929.112	12905
929.218	12909
929.323	12833
929.428	12787
929.533	12905
929.638	12798
929.743	12681
929.848	12722
929.953	12658
930.058	12654
930.163	12509
930.267	12403
930.372	12551
930.477	12410
930.581	12646
930.685	12536
930.79	12315
930.894	12361
930.998	12315
931.103	12448
931.207	12098
931.311	11992
931.415	11874
931.519	11695
931.623	11745
