Data from test_V78500241_153.txt Node
Date: Fri Mar 25 15:42:51 CST 2022
User: usil
Spectrometer: V785-0024
Trigger mode: 0
Integration Time (sec): 4.000000E-1
Scans to average: 1
Nonlinearity correction enabled: false
Boxcar width: 0
Storing dark spectrum: false
XAxis mode: Wavelengths
Number of Pixels in Spectrum: 1024
>>>>>Begin Spectral Data<<<<<
801.071	29672
801.214	29608
801.356	29334
801.499	29189
801.641	29166
801.783	29151
801.926	29227
802.068	29136
802.211	29025
802.353	29029
802.496	28908
802.638	28793
802.78	28805
802.923	28660
803.065	28649
803.208	28744
803.35	28820
803.492	28790
803.635	28953
803.777	28679
803.919	29022
804.061	29429
804.204	28892
804.346	28660
804.488	28961
804.63	28755
804.773	28683
804.915	28915
805.057	28793
805.199	28858
805.341	28900
805.483	28980
805.626	29010
805.768	28850
805.91	29018
806.052	29136
806.194	28995
806.336	29083
806.478	29048
806.62	29025
806.762	28995
806.904	29242
807.046	29535
807.188	29406
807.33	29375
807.472	29448
807.614	29299
807.756	29208
807.898	29102
808.04	29200
808.182	29003
808.324	29204
808.465	29261
808.607	29387
808.749	29493
808.891	29516
809.033	29684
809.174	29543
809.316	29627
809.458	29642
809.6	29535
809.741	29745
809.883	29562
810.025	29893
810.166	29828
810.308	29649
810.45	29630
810.591	29760
810.733	29368
810.875	29471
811.016	29547
811.158	29535
811.299	29589
811.441	29668
811.582	29722
811.724	29421
811.865	29467
812.007	29524
812.148	29535
812.29	29524
812.431	29630
812.573	29851
812.714	29950
812.855	29954
812.997	30079
813.138	30235
813.279	30243
813.421	30106
813.562	29908
813.703	29779
813.845	29646
813.986	29414
814.127	29258
814.268	29094
814.41	29143
814.551	29029
814.692	29185
814.833	28965
814.974	28984
815.115	28942
815.256	28957
815.397	28900
815.539	28946
815.68	28881
815.821	28771
815.962	28854
816.103	28885
816.244	28733
816.385	28573
816.526	28478
816.666	28287
816.807	28337
816.948	28242
817.089	28512
817.23	28337
817.371	28261
817.512	28185
817.653	28299
817.793	28090
817.934	28238
818.075	28265
818.216	28109
818.356	28253
818.497	28040
818.638	27975
818.778	27953
818.919	27964
819.06	27895
819.2	28017
819.341	28204
819.481	28036
819.622	28192
819.762	28493
819.903	28363
820.043	28333
820.184	28462
820.324	28272
820.465	28310
820.605	28109
820.746	28257
820.886	27964
821.026	28196
821.167	28017
821.307	28261
821.447	28120
821.588	28070
821.728	27945
821.868	27709
822.008	27466
822.149	27610
822.289	27599
822.429	27355
822.569	27233
822.709	27222
822.849	27047
822.99	26918
823.13	26899
823.27	26975
823.41	26792
823.55	26651
823.69	26921
823.83	26891
823.97	26785
824.11	26625
824.25	26442
824.389	26602
824.529	26769
824.669	26552
824.809	26891
824.949	26640
825.089	26644
825.228	26594
825.368	26465
825.508	26476
825.648	26533
825.787	26469
825.927	26537
826.067	26252
826.206	26294
826.346	26552
826.485	26465
826.625	26476
826.765	26598
826.904	26389
827.044	26176
827.183	26183
827.323	25966
827.462	26107
827.601	26138
827.741	26092
827.88	26088
828.02	25909
828.159	26077
828.298	26107
828.437	25997
828.577	26001
828.716	26103
828.855	25917
828.994	25791
829.134	25807
829.273	25769
829.412	25856
829.551	25738
829.69	25731
829.829	25674
829.968	25723
830.107	25780
830.246	25689
830.385	25674
830.524	25628
830.663	25567
830.802	25411
830.941	25388
831.08	25312
831.219	25331
831.357	25316
831.496	25438
831.635	25225
831.774	25072
831.913	25133
832.051	25084
832.19	25072
832.329	24981
832.467	24981
832.606	24798
832.744	24924
832.883	24905
833.022	24897
833.16	24749
833.299	24947
833.437	24875
833.576	24977
833.714	24916
833.852	24825
833.991	24928
834.129	24958
834.267	24943
834.406	24867
834.544	25000
834.682	24844
834.821	24719
834.959	25050
835.097	24715
835.235	24932
835.373	24871
835.511	24696
835.65	24798
835.788	24540
835.926	24585
836.064	24540
836.202	24639
836.34	24791
836.478	24764
836.615	24620
836.753	24669
836.891	24772
837.029	24764
837.167	24570
837.305	24547
837.443	24452
837.58	24486
837.718	24532
837.856	24566
837.993	24509
838.131	24498
838.269	24353
838.406	24426
838.544	24266
838.681	24247
838.819	24083
838.956	23939
839.094	23935
839.231	24083
839.369	24064
839.506	24239
839.643	24167
839.781	23851
839.918	23878
840.055	23691
840.193	23813
840.33	23817
840.467	23790
840.604	23878
840.742	24057
840.879	23627
841.016	23642
841.153	23615
841.29	23855
841.427	23790
841.564	23764
841.701	23809
841.838	23745
841.975	23653
842.112	23805
842.249	23592
842.385	23562
842.522	23779
842.659	23611
842.796	23505
842.933	23608
843.069	23429
843.206	23539
843.343	23554
843.479	23482
843.616	23448
843.752	23227
843.889	23216
844.025	23307
844.162	23223
844.298	23440
844.435	23223
844.571	23235
844.708	23303
844.844	23326
844.98	23311
845.117	23322
845.253	23090
845.389	22995
845.525	23090
845.661	23094
845.798	22889
845.934	22976
846.07	22809
846.206	22919
846.342	23124
846.478	22919
846.614	22877
846.75	22569
846.886	22721
847.022	22698
847.158	22675
847.294	22645
847.429	22752
847.565	22645
847.701	22881
847.837	22394
847.972	22512
848.108	22538
848.244	22409
848.379	22272
848.515	22192
848.65	22143
848.786	22192
848.921	22196
849.057	22352
849.192	22268
849.328	22181
849.463	22139
849.598	22147
849.734	22112
849.869	22044
850.004	22040
850.14	21922
850.275	21918
850.41	21861
850.545	21831
850.68	21854
850.815	22006
850.95	21937
851.085	22181
851.22	21888
851.355	21903
851.49	21861
851.625	21892
851.76	21827
851.895	21778
852.03	21842
852.165	21926
852.299	21895
852.434	21888
852.569	21998
852.703	22021
852.838	21892
852.973	21998
853.107	21983
853.242	21850
853.376	21789
853.511	21469
853.645	21732
853.78	21770
853.914	21701
854.048	21759
854.183	21675
854.317	21705
854.451	21816
854.585	21622
854.72	21663
854.854	21701
854.988	21686
855.122	21614
855.256	21671
855.39	21705
855.524	21831
855.658	21686
855.792	21610
855.926	21739
856.06	21698
856.194	21698
856.327	21595
856.461	21549
856.595	21583
856.729	21641
856.862	21823
856.996	21686
857.13	21701
857.263	21827
857.397	21720
857.53	21648
857.664	21732
857.797	21644
857.931	21679
858.064	21713
858.197	21831
858.331	21580
858.464	21515
858.597	21496
858.731	21652
858.864	21561
858.997	21701
859.13	21644
859.263	21538
859.396	21717
859.529	21591
859.662	21572
859.795	21504
859.928	21591
860.061	21717
860.194	21842
860.327	21751
860.46	21507
860.592	21701
860.725	21869
860.858	21759
860.99	21599
861.123	21492
861.256	21625
861.388	21583
861.521	22173
861.653	21557
861.786	21428
861.918	21591
862.05	21572
862.183	21618
862.315	21625
862.447	21648
862.58	21637
862.712	21416
862.844	21252
862.976	21519
863.108	21287
863.24	21713
863.372	21287
863.504	21283
863.636	21481
863.768	21382
863.9	21336
864.032	21249
864.164	21287
864.296	21310
864.428	21439
864.559	21287
864.691	21397
864.823	21344
864.954	21252
865.086	21260
865.217	21226
865.349	21066
865.48	21249
865.612	21165
865.743	21462
865.875	21188
866.006	21135
866.137	21184
866.269	21199
866.4	21207
866.531	21203
866.662	21119
866.793	21085
866.924	21173
867.055	21188
867.186	21032
867.317	21043
867.448	20963
867.579	21218
867.71	20986
867.841	21085
867.972	21108
868.103	21047
868.233	21146
868.364	21180
868.495	21237
868.625	21344
868.756	21549
868.886	21237
869.017	21374
869.147	21351
869.278	21583
869.408	21439
869.539	21241
869.669	21447
869.799	21378
869.929	21519
870.06	21462
870.19	21660
870.32	21580
870.45	21701
870.58	21785
870.71	21895
870.84	21846
870.97	21774
871.1	21603
871.23	21903
871.36	21835
871.489	21865
871.619	21987
871.749	22055
871.879	21979
872.008	22040
872.138	21907
872.267	21880
872.397	21694
872.526	21880
872.656	21812
872.785	21576
872.915	21934
873.044	22010
873.173	21895
873.303	22048
873.432	22055
873.561	22147
873.69	21987
873.819	21968
873.948	21960
874.077	22044
874.206	21937
874.335	21850
874.464	22051
874.593	22185
874.722	22051
874.851	22196
874.979	22306
875.108	22306
875.237	22166
875.365	22234
875.494	22215
875.623	22188
875.751	22192
875.88	22246
876.008	22352
876.136	22287
876.265	22615
876.393	22782
876.521	22554
876.65	22767
876.778	22713
876.906	22504
877.034	22516
877.162	22535
877.29	22691
877.418	22588
877.546	22531
877.674	22455
877.802	22557
877.93	22538
878.058	22508
878.185	22363
878.313	22459
878.441	22596
878.568	22314
878.696	22561
878.824	22531
878.951	22641
879.079	22649
879.206	22809
879.333	22702
879.461	22485
879.588	22660
879.715	22656
879.842	22820
879.97	22489
880.097	22379
880.224	22462
880.351	22421
880.478	22375
880.605	22325
880.732	22481
880.859	22691
880.986	22314
881.112	22413
881.239	22192
881.366	22207
881.493	22048
881.619	21934
881.746	21987
881.872	21991
881.999	21831
882.125	21949
882.252	21987
882.378	21956
882.505	22078
882.631	21876
882.757	21766
882.883	21785
883.01	21549
883.136	21644
883.262	21523
883.388	21698
883.514	21667
883.64	21660
883.766	21583
883.892	21393
884.018	21367
884.143	21561
884.269	21614
884.395	21298
884.52	21176
884.646	21405
884.772	21325
884.897	21169
885.023	21313
885.148	21424
885.274	21447
885.399	21405
885.524	21218
885.65	21230
885.775	21192
885.9	21363
886.025	21321
886.15	21359
886.275	21199
886.4	21127
886.525	21233
886.65	21268
886.775	21260
886.9	21317
887.025	21572
887.149	21203
887.274	21123
887.399	21047
887.523	21195
887.648	20956
887.773	20956
887.897	21127
888.021	21085
888.146	20891
888.27	21047
888.395	21077
888.519	21119
888.643	21089
888.767	21039
888.891	20944
889.015	20872
889.139	20906
889.263	20792
889.387	20914
889.511	20937
889.635	20941
889.759	20724
889.883	20686
890.006	20899
890.13	20910
890.254	20750
890.377	20678
890.501	20571
890.624	20507
890.748	20590
890.871	20431
890.995	20355
891.118	20320
891.241	20461
891.364	20423
891.488	20492
891.611	20351
891.734	20385
891.857	20423
891.98	20454
892.103	20469
892.226	20488
892.349	20423
892.471	20309
892.594	20377
892.717	20400
892.839	20301
892.962	20301
893.085	20495
893.207	20233
893.33	20256
893.452	20145
893.575	20286
893.697	20229
893.819	20454
893.941	20484
894.064	20473
894.186	20202
894.308	20248
894.43	20465
894.552	20366
894.674	20355
894.796	20298
894.918	20202
895.04	20240
895.161	20374
895.283	20358
895.405	20278
895.526	20309
895.648	20183
895.769	20347
895.891	20347
896.012	20305
896.134	20301
896.255	20233
896.376	20301
896.498	20301
896.619	20427
896.74	20298
896.861	20385
896.982	20659
897.103	20929
897.224	20659
897.345	20476
897.466	20518
897.587	20484
897.708	20575
897.828	20545
897.949	20450
898.07	20332
898.19	20461
898.311	20606
898.431	20370
898.552	20530
898.672	20533
898.792	20473
898.913	20522
899.033	20400
899.153	20161
899.273	20164
899.393	20240
899.513	20248
899.633	20202
899.753	20259
899.873	20122
899.993	20176
900.113	20077
900.232	20221
900.352	20103
900.472	20005
900.591	19887
900.711	20005
900.83	19909
900.95	20157
901.069	20088
901.189	19928
901.308	19727
901.427	19647
901.546	19422
901.665	19521
901.784	19590
901.904	19453
902.023	19377
902.141	19084
902.26	19042
902.379	19046
902.498	19091
902.617	19023
902.735	19053
902.854	19076
902.973	19015
903.091	18726
903.21	18692
903.328	18768
903.446	18585
903.565	18555
903.683	18502
903.801	18376
903.919	18471
904.038	18464
904.156	18228
904.274	18418
904.392	18178
904.51	18273
904.627	18330
904.745	18228
904.863	18289
904.981	17984
905.098	17901
905.216	17870
905.334	17836
905.451	17988
905.569	17916
905.686	17954
905.803	17870
905.921	17676
906.038	17745
906.155	17756
906.272	17653
906.389	17577
906.506	17592
906.623	17535
906.74	17505
906.857	17345
906.974	17368
907.091	17372
907.208	17611
907.324	17474
907.441	17387
907.557	17277
907.674	17079
907.79	17090
907.907	17174
908.023	16949
908.139	17113
908.256	17094
908.372	17029
908.488	17006
908.604	16957
908.72	16706
908.836	16828
908.952	16736
909.068	16889
909.184	16991
909.3	16771
909.415	16839
909.531	16778
909.647	16527
909.762	16516
909.878	16523
909.993	16485
910.108	16504
910.224	16432
910.339	16462
910.454	16360
910.57	16382
910.685	16322
910.8	16500
910.915	16363
911.03	16230
911.145	16154
911.259	16131
911.374	16120
911.489	16044
911.604	15964
911.718	15835
911.833	15930
911.947	15835
912.062	15770
912.176	15857
912.291	15865
912.405	15778
912.519	16017
912.633	16116
912.748	15850
912.862	15789
912.976	15663
913.09	15572
913.204	15663
913.318	15618
913.431	15709
913.545	15759
913.659	15739
913.772	15572
913.886	15454
914	15450
914.113	15485
914.226	15519
914.34	15469
914.453	15325
914.566	15431
914.68	15336
914.793	15382
914.906	15062
915.019	15074
915.132	14956
915.245	15017
915.358	15020
915.47	15055
915.583	15081
915.696	15032
915.809	15218
915.921	15203
916.034	14941
916.146	14952
916.259	14967
916.371	14975
916.483	15020
916.595	14857
916.708	14777
916.82	14933
916.932	14986
917.044	14788
917.156	14746
917.268	14659
917.38	14811
917.491	14693
917.603	14686
917.715	14785
917.826	14750
917.938	14651
918.049	14511
918.161	14583
918.272	14731
918.384	14682
918.495	14590
918.606	14549
918.717	14457
918.828	14431
918.939	14549
919.05	14301
919.161	14339
919.272	14206
919.383	14221
919.494	14408
919.604	14610
919.715	14465
919.826	14294
919.936	14385
920.047	14366
920.157	14400
920.267	14579
920.378	14370
920.488	14370
920.598	14632
920.708	14632
920.818	14522
920.928	14404
921.038	14648
921.148	14549
921.258	14298
921.368	14233
921.477	14153
921.587	14084
921.697	14031
921.806	14046
921.916	14016
922.025	13746
922.134	13738
922.244	13689
922.353	13826
922.462	13605
922.571	13521
922.68	13324
922.789	13369
922.898	13472
923.007	13316
923.116	13441
923.224	13343
923.333	13278
923.442	13213
923.55	13206
923.659	13202
923.767	13259
923.876	13156
923.984	13217
924.092	13118
924.201	13091
924.309	13141
924.417	13114
924.525	12958
924.633	13084
924.741	13807
924.849	12951
924.956	13000
925.064	12856
925.172	12726
925.279	12776
925.387	12760
925.494	12802
925.602	12935
925.709	12848
925.816	12684
925.924	12768
926.031	12791
926.138	12833
926.245	12833
926.352	12662
926.459	12863
926.566	12848
926.673	12677
926.779	12616
926.886	12464
926.993	12399
927.099	12388
927.206	12330
927.312	12330
927.419	12414
927.525	12285
927.631	12391
927.737	12243
927.843	12235
927.95	12209
928.056	12239
928.162	12220
928.267	12243
928.373	12837
928.479	12262
928.585	11992
928.69	12167
928.796	12228
928.901	12041
929.007	11927
929.112	12041
929.218	11946
929.323	11889
929.428	11840
929.533	12030
929.638	11836
929.743	11821
929.848	11950
929.953	11836
930.058	11775
930.163	11581
930.267	11604
930.372	11752
930.477	11512
930.581	11737
930.685	11676
930.79	11440
930.894	11505
930.998	11467
931.103	11611
931.207	11265
931.311	11235
931.415	10987
931.519	10831
931.623	10816
