Data from test_V78500241_2624.txt Node
Date: Fri Mar 25 15:59:58 CST 2022
User: usil
Spectrometer: V785-0024
Trigger mode: 0
Integration Time (sec): 4.000000E-1
Scans to average: 1
Nonlinearity correction enabled: false
Boxcar width: 0
Storing dark spectrum: false
XAxis mode: Wavelengths
Number of Pixels in Spectrum: 1024
>>>>>Begin Spectral Data<<<<<
801.071	28896
801.214	28904
801.356	28721
801.499	28702
801.641	28500
801.783	28516
801.926	28713
802.068	28771
802.211	28618
802.353	28519
802.496	28272
802.638	28314
802.78	28386
802.923	28325
803.065	28265
803.208	28348
803.35	28352
803.492	28367
803.635	28519
803.777	28500
803.919	28538
804.061	29025
804.204	28538
804.346	28580
804.488	28527
804.63	28599
804.773	28622
804.915	28725
805.057	28664
805.199	28630
805.341	28618
805.483	28721
805.626	28740
805.768	28615
805.91	28786
806.052	28850
806.194	28672
806.336	28961
806.478	28805
806.62	28653
806.762	28896
806.904	28961
807.046	29429
807.188	29231
807.33	29174
807.472	29147
807.614	29124
807.756	29280
807.898	29189
808.04	29006
808.182	28923
808.324	29159
808.465	29029
808.607	29402
808.749	29288
808.891	29638
809.033	29703
809.174	29535
809.316	29474
809.458	29448
809.6	29345
809.741	29570
809.883	29531
810.025	29699
810.166	29726
810.308	29718
810.45	29862
810.591	29661
810.733	29459
810.875	29463
811.016	29330
811.158	29402
811.299	29353
811.441	29570
811.582	29733
811.724	29589
811.865	29497
812.007	29501
812.148	29543
812.29	29600
812.431	29615
812.573	29779
812.714	29965
812.855	30072
812.997	30091
813.138	30235
813.279	30159
813.421	30030
813.562	30133
813.703	29866
813.845	29726
813.986	29535
814.127	29311
814.268	29349
814.41	29284
814.551	29109
814.692	29315
814.833	29246
814.974	29128
815.115	29292
815.256	28972
815.397	29277
815.539	29003
815.68	29124
815.821	28984
815.962	28961
816.103	29003
816.244	28892
816.385	28771
816.526	28873
816.666	28694
816.807	28561
816.948	28569
817.089	28512
817.23	28573
817.371	28596
817.512	28459
817.653	28417
817.793	28512
817.934	28405
818.075	28470
818.216	28504
818.356	28481
818.497	28550
818.638	28341
818.778	28093
818.919	28379
819.06	28428
819.2	28322
819.341	28607
819.481	28481
819.622	28675
819.762	28873
819.903	28938
820.043	28694
820.184	28637
820.324	28713
820.465	28694
820.605	28596
820.746	28577
820.886	28603
821.026	28626
821.167	28508
821.307	28653
821.447	28557
821.588	28394
821.728	28280
821.868	28272
822.008	28124
822.149	28082
822.289	27895
822.429	27759
822.569	27595
822.709	27633
822.849	27603
822.99	27545
823.13	27625
823.27	27660
823.41	27374
823.55	27332
823.69	27397
823.83	27435
823.97	27325
824.11	27138
824.25	27203
824.389	27222
824.529	27355
824.669	27112
824.809	27310
824.949	27226
825.089	27298
825.228	27173
825.368	26990
825.508	27032
825.648	27043
825.787	27131
825.927	27131
826.067	27047
826.206	27116
826.346	26929
826.485	27154
826.625	26982
826.765	27336
826.904	27127
827.044	26986
827.183	26712
827.323	26655
827.462	26800
827.601	26735
827.741	26731
827.88	26800
828.02	26739
828.159	26701
828.298	26762
828.437	26853
828.577	26667
828.716	26918
828.855	26838
828.994	26518
829.134	26423
829.273	26514
829.412	26396
829.551	26381
829.69	26453
829.829	26632
829.968	26537
830.107	26568
830.246	26457
830.385	26278
830.524	26282
830.663	26343
830.802	26191
830.941	26024
831.08	26062
831.219	26130
831.357	26130
831.496	26404
831.635	26100
831.774	25951
831.913	25959
832.051	25898
832.19	25890
832.329	25917
832.467	25776
832.606	25693
832.744	25628
832.883	25731
833.022	25765
833.16	25693
833.299	25947
833.437	25765
833.576	25814
833.714	25715
833.852	25811
833.991	25955
834.129	25830
834.267	25791
834.406	25765
834.544	25845
834.682	25731
834.821	25734
834.959	25894
835.097	25734
835.235	25704
835.373	25795
835.511	25868
835.65	25655
835.788	25628
835.926	25487
836.064	25514
836.202	25453
836.34	25563
836.478	25689
836.615	25544
836.753	25674
836.891	25795
837.029	25651
837.167	25518
837.305	25563
837.443	25453
837.58	25518
837.718	25540
837.856	25434
837.993	25540
838.131	25415
838.269	25396
838.406	25301
838.544	25350
838.681	25015
838.819	25050
838.956	24985
839.094	24829
839.231	24913
839.369	25065
839.506	25282
839.643	25202
839.781	24878
839.918	24856
840.055	24890
840.193	25019
840.33	24802
840.467	24798
840.604	24840
840.742	25137
840.879	24650
841.016	24753
841.153	24692
841.29	24901
841.427	24829
841.564	24741
841.701	24627
841.838	24867
841.975	24665
842.112	24749
842.249	24639
842.385	24505
842.522	24684
842.659	24711
842.796	24544
842.933	24528
843.069	24426
843.206	24505
843.343	24601
843.479	24623
843.616	24521
843.752	24251
843.889	24395
844.025	24551
844.162	24361
844.298	24441
844.435	24308
844.571	24369
844.708	24410
844.844	24452
844.98	24471
845.117	24418
845.253	24228
845.389	24213
845.525	24235
845.661	24079
845.798	23916
845.934	24152
846.07	24030
846.206	24076
846.342	24232
846.478	24114
846.614	23756
846.75	23775
846.886	23726
847.022	23908
847.158	23866
847.294	23878
847.429	23878
847.565	23764
847.701	23980
847.837	23619
847.972	23512
848.108	23528
848.244	23596
848.379	23395
848.515	23337
848.65	23299
848.786	23535
848.921	23383
849.057	23562
849.192	23459
849.328	23368
849.463	23448
849.598	23406
849.734	23311
849.869	23178
850.004	23132
850.14	23178
850.275	23094
850.41	23121
850.545	23067
850.68	23048
850.815	23288
850.95	23098
851.085	23254
851.22	23231
851.355	23132
851.49	23170
851.625	23083
851.76	23083
851.895	23098
852.03	23117
852.165	23212
852.299	23231
852.434	23349
852.569	23128
852.703	23121
852.838	23162
852.973	23318
853.107	23178
853.242	22976
853.376	23018
853.511	22847
853.645	22904
853.78	22919
853.914	22862
854.048	22835
854.183	22965
854.317	22946
854.451	23090
854.585	22812
854.72	22904
854.854	22999
854.988	22934
855.122	22858
855.256	22847
855.39	22957
855.524	23052
855.658	22972
855.792	22858
855.926	22942
856.06	22946
856.194	22946
856.327	22999
856.461	22934
856.595	22881
856.729	22809
856.862	23064
856.996	23064
857.13	22919
857.263	22953
857.397	22980
857.53	22858
857.664	22892
857.797	22991
857.931	23003
858.064	22984
858.197	23094
858.331	22866
858.464	22896
858.597	22919
858.731	22900
858.864	22927
858.997	22957
859.13	23048
859.263	23022
859.396	23003
859.529	23064
859.662	22949
859.795	22923
859.928	22976
860.061	23090
860.194	23102
860.327	22953
860.46	22873
860.592	23018
860.725	23250
860.858	23029
860.99	23006
861.123	22752
861.256	23044
861.388	22877
861.521	23710
861.653	22877
861.786	22660
861.918	22710
862.05	22858
862.183	22869
862.315	22831
862.447	22831
862.58	22877
862.712	22656
862.844	22702
862.976	22752
863.108	22725
863.24	23003
863.372	22656
863.504	22702
863.636	22630
863.768	22538
863.9	22535
864.032	22634
864.164	22649
864.296	22611
864.428	22717
864.559	22759
864.691	22679
864.823	22687
864.954	22641
865.086	22588
865.217	22504
865.349	22455
865.48	22512
865.612	22474
865.743	22592
865.875	22436
866.006	22592
866.137	22493
866.269	22451
866.4	22660
866.531	22531
866.662	22462
866.793	22436
866.924	22348
867.055	22447
867.186	22375
867.317	22253
867.448	22257
867.579	22409
867.71	22337
867.841	22230
867.972	22398
868.103	22394
868.233	22535
868.364	22554
868.495	22618
868.625	22596
868.756	22793
868.886	22725
869.017	22607
869.147	22835
869.278	22763
869.408	22797
869.539	22672
869.669	22812
869.799	22748
869.929	22850
870.06	22782
870.19	22984
870.32	23064
870.45	22980
870.58	23064
870.71	23128
870.84	23193
870.97	23109
871.1	23197
871.23	23250
871.36	23376
871.489	23231
871.619	23364
871.749	23318
871.879	23330
872.008	23414
872.138	23204
872.267	23303
872.397	23216
872.526	23033
872.656	23094
872.785	23048
872.915	23372
873.044	23444
873.173	23379
873.303	23387
873.432	23376
873.561	23463
873.69	23277
873.819	23349
873.948	23341
874.077	23303
874.206	23181
874.335	23250
874.464	23505
874.593	23573
874.722	23566
874.851	23459
874.979	23474
875.108	23543
875.237	23585
875.365	23429
875.494	23482
875.623	23501
875.751	23547
875.88	23429
876.008	23638
876.136	23642
876.265	23916
876.393	23988
876.521	23935
876.65	23897
876.778	23992
876.906	23775
877.034	23786
877.162	23893
877.29	23889
877.418	23916
877.546	23783
877.674	23821
877.802	23798
877.93	23908
878.058	23760
878.185	23592
878.313	23882
878.441	23802
878.568	23566
878.696	23809
878.824	23939
878.951	24079
879.079	23988
879.206	24072
879.333	23999
879.461	23889
879.588	23977
879.715	24022
879.842	24171
879.97	23939
880.097	23638
880.224	23649
880.351	23585
880.478	23737
880.605	23501
880.732	23684
880.859	23840
880.986	23714
881.112	23634
881.239	23478
881.366	23356
881.493	23311
881.619	23250
881.746	23280
881.872	23159
881.999	23216
882.125	23269
882.252	23200
882.378	23334
882.505	23349
882.631	22949
882.757	22938
882.883	22987
883.01	22725
883.136	22812
883.262	22763
883.388	22774
883.514	22843
883.64	22809
883.766	22801
883.892	22793
884.018	22748
884.143	22877
884.269	22805
884.395	22557
884.52	22550
884.646	22668
884.772	22451
884.897	22459
885.023	22588
885.148	22588
885.274	22607
885.399	22702
885.524	22504
885.65	22557
885.775	22516
885.9	22516
886.025	22630
886.15	22626
886.275	22390
886.4	22295
886.525	22428
886.65	22478
886.775	22367
886.9	22500
887.025	22702
887.149	22440
887.274	22413
887.399	22188
887.523	22287
887.648	22135
887.773	22124
887.897	22242
888.021	22310
888.146	22192
888.27	22325
888.395	22455
888.519	22158
888.643	22207
888.767	22333
888.891	22261
889.015	22131
889.139	22074
889.263	21953
889.387	22211
889.511	22265
889.635	22318
889.759	22029
889.883	21979
890.006	22029
890.13	22173
890.254	21945
890.377	21926
890.501	21930
890.624	21797
890.748	21861
890.871	21629
890.995	21599
891.118	21595
891.241	21557
891.364	21545
891.488	21682
891.611	21618
891.734	21739
891.857	21667
891.98	21507
892.103	21473
892.226	21523
892.349	21526
892.471	21325
892.594	21443
892.717	21443
892.839	21583
892.962	21363
893.085	21629
893.207	21481
893.33	21386
893.452	21260
893.575	21485
893.697	21466
893.819	21614
893.941	21686
894.064	21641
894.186	21374
894.308	21325
894.43	21431
894.552	21591
894.674	21477
894.796	21435
894.918	21557
895.04	21439
895.161	21591
895.283	21538
895.405	21443
895.526	21340
895.648	21504
895.769	21462
895.891	21523
896.012	21660
896.134	21526
896.255	21401
896.376	21313
896.498	21386
896.619	21469
896.74	21504
896.861	21515
896.982	21755
897.103	21945
897.224	21698
897.345	21759
897.466	21504
897.587	21610
897.708	21698
897.828	21690
897.949	21583
898.07	21428
898.19	21542
898.311	21724
898.431	21504
898.552	21663
898.672	21732
898.792	21633
898.913	21808
899.033	21519
899.153	21469
899.273	21325
899.393	21340
899.513	21393
899.633	21477
899.753	21389
899.873	21370
899.993	21462
900.113	21340
900.232	21447
900.352	21317
900.472	21165
900.591	21112
900.711	21142
900.83	21066
900.95	21207
901.069	21135
901.189	20963
901.308	20705
901.427	20659
901.546	20640
901.665	20777
901.784	20712
901.904	20499
902.023	20499
902.141	20358
902.26	20298
902.379	20248
902.498	20187
902.617	20126
902.735	20225
902.854	20176
902.973	20088
903.091	19879
903.21	19811
903.328	19849
903.446	19788
903.565	19674
903.683	19689
903.801	19613
903.919	19597
904.038	19712
904.156	19430
904.274	19430
904.392	19362
904.51	19472
904.627	19468
904.745	19434
904.863	19324
904.981	19145
905.098	19057
905.216	19042
905.334	19156
905.451	19072
905.569	19107
905.686	19034
905.803	19069
905.921	18859
906.038	19015
906.155	18810
906.272	18601
906.389	18802
906.506	18601
906.623	18566
906.74	18563
906.857	18467
906.974	18479
907.091	18635
907.208	18650
907.324	18642
907.441	18448
907.557	18388
907.674	18319
907.79	18220
907.907	18220
908.023	18311
908.139	18281
908.256	18129
908.372	18117
908.488	18095
908.604	18053
908.72	18007
908.836	17946
908.952	17920
909.068	17923
909.184	18057
909.3	18015
909.415	17901
909.531	18030
909.647	17661
909.762	17775
909.878	17623
909.993	17783
910.108	17634
910.224	17623
910.339	17638
910.454	17581
910.57	17509
910.685	17421
910.8	17752
910.915	17630
911.03	17440
911.145	17341
911.259	17170
911.374	17311
911.489	17277
911.604	17124
911.718	17064
911.833	17045
911.947	16877
912.062	16896
912.176	17033
912.291	16980
912.405	16938
912.519	17109
912.633	17136
912.748	16968
912.862	16987
912.976	16889
913.09	16668
913.204	16763
913.318	16782
913.431	16797
913.545	16923
913.659	16847
913.772	16740
913.886	16611
914	16618
914.113	16645
914.226	16668
914.34	16630
914.453	16546
914.566	16569
914.68	16424
914.793	16379
914.906	16318
915.019	16109
915.132	16162
915.245	16162
915.358	16268
915.47	16219
915.583	16147
915.696	16166
915.809	16196
915.921	16230
916.034	16188
916.146	16010
916.259	16032
916.371	16063
916.483	16131
916.595	15983
916.708	15983
916.82	15941
916.932	15907
917.044	15823
917.156	15918
917.268	15759
917.38	15755
917.491	15701
917.603	15778
917.715	15736
917.826	15964
917.938	15675
918.049	15511
918.161	15629
918.272	15865
918.384	15743
918.495	15698
918.606	15530
918.717	15504
918.828	15587
918.939	15534
919.05	15435
919.161	15435
919.272	15252
919.383	15408
919.494	15412
919.604	15717
919.715	15466
919.826	15317
919.936	15401
920.047	15557
920.157	15610
920.267	15572
920.378	15412
920.488	15344
920.598	15538
920.708	15682
920.818	15629
920.928	15584
921.038	15694
921.148	15732
921.258	15374
921.368	15180
921.477	15169
921.587	15165
921.697	15100
921.806	15157
921.916	15043
922.025	14861
922.134	14762
922.244	14735
922.353	14941
922.462	14743
922.571	14712
922.68	14450
922.789	14419
922.898	14476
923.007	14408
923.116	14434
923.224	14454
923.333	14396
923.442	14275
923.55	14267
923.659	14324
923.767	14317
923.876	14134
923.984	14358
924.092	14138
924.201	14221
924.309	14054
924.417	14138
924.525	14077
924.633	14096
924.741	14948
924.849	13841
924.956	14035
925.064	13753
925.172	13696
925.279	13845
925.387	13807
925.494	13852
925.602	13978
925.709	13852
925.816	13731
925.924	13761
926.031	13883
926.138	13677
926.245	13746
926.352	13662
926.459	13704
926.566	13776
926.673	13601
926.779	13636
926.886	13472
926.993	13445
927.099	13335
927.206	13335
927.312	13354
927.419	13483
927.525	13388
927.631	13362
927.737	13209
927.843	13129
927.95	13164
928.056	13183
928.162	13179
928.267	13228
928.373	13723
928.479	13168
928.585	13088
928.69	13072
928.796	13149
928.901	13042
929.007	12856
929.112	13050
929.218	12943
929.323	12932
929.428	12875
929.533	12966
929.638	12802
929.743	12837
929.848	12856
929.953	12856
930.058	12791
930.163	12570
930.267	12551
930.372	12753
930.477	12509
930.581	12719
930.685	12563
930.79	12410
930.894	12441
930.998	12327
931.103	12517
931.207	12144
931.311	12007
931.415	11996
931.519	11824
931.623	11684
