Data from test_V78500241_3527.txt Node
Date: Fri Mar 25 16:06:14 CST 2022
User: usil
Spectrometer: V785-0024
Trigger mode: 0
Integration Time (sec): 4.000000E-1
Scans to average: 1
Nonlinearity correction enabled: false
Boxcar width: 0
Storing dark spectrum: false
XAxis mode: Wavelengths
Number of Pixels in Spectrum: 1024
>>>>>Begin Spectral Data<<<<<
801.071	29117
801.214	28980
801.356	28797
801.499	28691
801.641	28500
801.783	28618
801.926	28656
802.068	28497
802.211	28489
802.353	28504
802.496	28428
802.638	28314
802.78	28356
802.923	28207
803.065	28204
803.208	28318
803.35	28322
803.492	28455
803.635	28542
803.777	28348
803.919	28565
804.061	28653
804.204	28531
804.346	28497
804.488	28390
804.63	28561
804.773	28569
804.915	28771
805.057	28721
805.199	28630
805.341	28694
805.483	28778
805.626	28683
805.768	28698
805.91	28664
806.052	28767
806.194	28622
806.336	28866
806.478	28641
806.62	28774
806.762	28854
806.904	29105
807.046	29307
807.188	29189
807.33	29242
807.472	29212
807.614	29086
807.756	29102
807.898	29117
808.04	29048
808.182	28987
808.324	28904
808.465	29083
808.607	29356
808.749	29349
808.891	29429
809.033	29581
809.174	29368
809.316	29452
809.458	29330
809.6	29330
809.741	29520
809.883	29482
810.025	29817
810.166	29874
810.308	29619
810.45	29676
810.591	29642
810.733	29547
810.875	29433
811.016	29307
811.158	29280
811.299	29585
811.441	29554
811.582	29630
811.724	29589
811.865	29577
812.007	29410
812.148	29524
812.29	29452
812.431	29573
812.573	29931
812.714	29847
812.855	29988
812.997	30064
813.138	30015
813.279	30121
813.421	29927
813.562	29904
813.703	29798
813.845	29703
813.986	29368
814.127	29254
814.268	29299
814.41	29220
814.551	29239
814.692	29143
814.833	29090
814.974	29166
815.115	29204
815.256	29143
815.397	28995
815.539	29109
815.68	29102
815.821	28839
815.962	28995
816.103	28995
816.244	28900
816.385	28706
816.526	28733
816.666	28691
816.807	28424
816.948	28542
817.089	28542
817.23	28523
817.371	28462
817.512	28523
817.653	28459
817.793	28462
817.934	28455
818.075	28485
818.216	28603
818.356	28489
818.497	28455
818.638	28257
818.778	28185
818.919	28280
819.06	28291
819.2	28348
819.341	28615
819.481	28417
819.622	28607
819.762	28839
819.903	28717
820.043	28702
820.184	28771
820.324	28508
820.465	28538
820.605	28527
820.746	28710
820.886	28512
821.026	28508
821.167	28607
821.307	28664
821.447	28440
821.588	28516
821.728	28246
821.868	28215
822.008	27953
822.149	28032
822.289	27918
822.429	27743
822.569	27667
822.709	27545
822.849	27515
822.99	27473
823.13	27466
823.27	27492
823.41	27268
823.55	27108
823.69	27279
823.83	27313
823.97	27298
824.11	27138
824.25	27112
824.389	27005
824.529	27169
824.669	27245
824.809	27291
824.949	27096
825.089	27218
825.228	27146
825.368	27058
825.508	26971
825.648	27036
825.787	27062
825.927	27150
826.067	26986
826.206	27066
826.346	27157
826.485	27089
826.625	27112
826.765	27203
826.904	27005
827.044	26857
827.183	26891
827.323	26781
827.462	26727
827.601	26800
827.741	26754
827.88	26830
828.02	26762
828.159	26773
828.298	26842
828.437	26842
828.577	26720
828.716	26853
828.855	26667
828.994	26332
829.134	26278
829.273	26461
829.412	26282
829.551	26484
829.69	26533
829.829	26530
829.968	26389
830.107	26655
830.246	26446
830.385	26252
830.524	26476
830.663	26267
830.802	26176
830.941	26111
831.08	25890
831.219	26183
831.357	26210
831.496	26309
831.635	26149
831.774	25963
831.913	25970
832.051	25955
832.19	25738
832.329	26088
832.467	25845
832.606	25651
832.744	25666
832.883	25757
833.022	25780
833.16	25609
833.299	25772
833.437	25849
833.576	25845
833.714	25750
833.852	25944
833.991	25936
834.129	25970
834.267	25845
834.406	25655
834.544	25879
834.682	25894
834.821	25894
834.959	26001
835.097	25677
835.235	25837
835.373	25746
835.511	25830
835.65	25616
835.788	25635
835.926	25491
836.064	25445
836.202	25479
836.34	25556
836.478	25715
836.615	25662
836.753	25525
836.891	25784
837.029	25647
837.167	25655
837.305	25571
837.443	25506
837.58	25476
837.718	25449
837.856	25445
837.993	25324
838.131	25441
838.269	25392
838.406	25320
838.544	25259
838.681	25103
838.819	24996
838.956	24882
839.094	24871
839.231	25000
839.369	25046
839.506	25400
839.643	25183
839.781	24932
839.918	25034
840.055	24833
840.193	24760
840.33	24844
840.467	24798
840.604	24863
840.742	25103
840.879	24719
841.016	24791
841.153	24810
841.29	24935
841.427	24787
841.564	24844
841.701	24776
841.838	24753
841.975	24707
842.112	24616
842.249	24677
842.385	24483
842.522	24825
842.659	24692
842.796	24623
842.933	24547
843.069	24555
843.206	24528
843.343	24563
843.479	24669
843.616	24536
843.752	24384
843.889	24319
844.025	24502
844.162	24232
844.298	24403
844.435	24365
844.571	24308
844.708	24391
844.844	24536
844.98	24380
845.117	24471
845.253	24292
845.389	24140
845.525	24254
845.661	24197
845.798	24018
845.934	24087
846.07	23946
846.206	24129
846.342	24167
846.478	24041
846.614	23984
846.75	23756
846.886	23790
847.022	23794
847.158	23783
847.294	23729
847.429	23745
847.565	23783
847.701	23999
847.837	23433
847.972	23490
848.108	23608
848.244	23551
848.379	23414
848.515	23223
848.65	23395
848.786	23414
848.921	23303
849.057	23398
849.192	23448
849.328	23493
849.463	23356
849.598	23258
849.734	23216
849.869	23181
850.004	23037
850.14	23128
850.275	23193
850.41	22961
850.545	23025
850.68	23170
850.815	23299
850.95	23143
851.085	23436
851.22	23265
851.355	23155
851.49	23193
851.625	23151
851.76	23162
851.895	23029
852.03	23025
852.165	23067
852.299	23261
852.434	23174
852.569	23181
852.703	23235
852.838	23216
852.973	23261
853.107	23345
853.242	23155
853.376	22938
853.511	22877
853.645	23014
853.78	23025
853.914	22908
854.048	22854
854.183	22881
854.317	22946
854.451	23124
854.585	22942
854.72	22991
854.854	23041
854.988	22946
855.122	22923
855.256	22786
855.39	22908
855.524	23060
855.658	23041
855.792	22949
855.926	23048
856.06	23052
856.194	23143
856.327	22972
856.461	22885
856.595	22896
856.729	22972
856.862	23064
856.996	22942
857.13	23048
857.263	23071
857.397	22987
857.53	22965
857.664	23067
857.797	22976
857.931	23022
858.064	22904
858.197	23018
858.331	22987
858.464	22812
858.597	22881
858.731	22927
858.864	22835
858.997	22862
859.13	22850
859.263	22949
859.396	22919
859.529	22946
859.662	22965
859.795	22972
859.928	22938
860.061	23117
860.194	23151
860.327	23136
860.46	22984
860.592	23090
860.725	23041
860.858	23029
860.99	23033
861.123	22873
861.256	22790
861.388	22915
861.521	23581
861.653	22847
861.786	22778
861.918	22733
862.05	22854
862.183	22797
862.315	22930
862.447	22976
862.58	22782
862.712	22733
862.844	22759
862.976	22725
863.108	22748
863.24	23132
863.372	22584
863.504	22683
863.636	22592
863.768	22694
863.9	22672
864.032	22626
864.164	22599
864.296	22744
864.428	22683
864.559	22717
864.691	22622
864.823	22679
864.954	22516
865.086	22668
865.217	22588
865.349	22504
865.48	22523
865.612	22554
865.743	22771
865.875	22523
866.006	22500
866.137	22500
866.269	22531
866.4	22580
866.531	22474
866.662	22462
866.793	22489
866.924	22413
867.055	22478
867.186	22360
867.317	22432
867.448	22443
867.579	22352
867.71	22287
867.841	22489
867.972	22405
868.103	22455
868.233	22497
868.364	22367
868.495	22542
868.625	22607
868.756	22710
868.886	22523
869.017	22630
869.147	22748
869.278	22755
869.408	22698
869.539	22706
869.669	22733
869.799	22721
869.929	22759
870.06	22843
870.19	23003
870.32	23029
870.45	23025
870.58	23128
870.71	23105
870.84	23124
870.97	23052
871.1	23018
871.23	23277
871.36	23208
871.489	23185
871.619	23227
871.749	23227
871.879	23341
872.008	23505
872.138	23280
872.267	23345
872.397	23212
872.526	23113
872.656	23113
872.785	23296
872.915	23360
873.044	23258
873.173	23364
873.303	23334
873.432	23341
873.561	23486
873.69	23360
873.819	23360
873.948	23452
874.077	23303
874.206	23246
874.335	23356
874.464	23467
874.593	23531
874.722	23429
874.851	23524
874.979	23630
875.108	23623
875.237	23490
875.365	23322
875.494	23478
875.623	23600
875.751	23486
875.88	23554
876.008	23649
876.136	23790
876.265	23718
876.393	24030
876.521	24098
876.65	23931
876.778	23999
876.906	23748
877.034	23771
877.162	23916
877.29	23863
877.418	23912
877.546	23794
877.674	23908
877.802	23821
877.93	23904
878.058	23802
878.185	23665
878.313	23729
878.441	23821
878.568	23634
878.696	23798
878.824	23927
878.951	23954
879.079	23961
879.206	24258
879.333	24072
879.461	23965
879.588	23973
879.715	23969
879.842	24125
879.97	23923
880.097	23668
880.224	23707
880.351	23756
880.478	23764
880.605	23642
880.732	23699
880.859	23973
880.986	23737
881.112	23699
881.239	23649
881.366	23433
881.493	23216
881.619	23330
881.746	23246
881.872	23269
881.999	23155
882.125	23208
882.252	23235
882.378	23212
882.505	23417
882.631	23109
882.757	22866
882.883	23025
883.01	22911
883.136	22816
883.262	22733
883.388	22752
883.514	22866
883.64	22961
883.766	22748
883.892	22713
884.018	22630
884.143	22672
884.269	22919
884.395	22592
884.52	22561
884.646	22599
884.772	22508
884.897	22519
885.023	22588
885.148	22607
885.274	22733
885.399	22611
885.524	22371
885.65	22584
885.775	22508
885.9	22333
886.025	22527
886.15	22683
886.275	22436
886.4	22478
886.525	22478
886.65	22485
886.775	22504
886.9	22679
887.025	22790
887.149	22466
887.274	22272
887.399	22367
887.523	22306
887.648	22223
887.773	22207
887.897	22310
888.021	22284
888.146	22192
888.27	22360
888.395	22291
888.519	22299
888.643	22238
888.767	22196
888.891	22265
889.015	22124
889.139	22109
889.263	21956
889.387	22188
889.511	22287
889.635	22185
889.759	22097
889.883	22013
890.006	22082
890.13	22135
890.254	21930
890.377	22029
890.501	21793
890.624	21766
890.748	21899
890.871	21675
890.995	21705
891.118	21572
891.241	21743
891.364	21709
891.488	21736
891.611	21667
891.734	21526
891.857	21713
891.98	21656
892.103	21606
892.226	21644
892.349	21599
892.471	21443
892.594	21599
892.717	21538
892.839	21439
892.962	21496
893.085	21477
893.207	21454
893.33	21374
893.452	21321
893.575	21549
893.697	21435
893.819	21717
893.941	21739
894.064	21542
894.186	21370
894.308	21466
894.43	21572
894.552	21606
894.674	21538
894.796	21367
894.918	21473
895.04	21386
895.161	21538
895.283	21469
895.405	21435
895.526	21454
895.648	21488
895.769	21408
895.891	21580
896.012	21534
896.134	21496
896.255	21519
896.376	21507
896.498	21511
896.619	21431
896.74	21435
896.861	21553
896.982	21682
897.103	22002
897.224	21637
897.345	21652
897.466	21663
897.587	21686
897.708	21804
897.828	21713
897.949	21561
898.07	21473
898.19	21561
898.311	21660
898.431	21530
898.552	21679
898.672	21804
898.792	21652
898.913	21610
899.033	21492
899.153	21386
899.273	21367
899.393	21450
899.513	21481
899.633	21450
899.753	21515
899.873	21367
899.993	21450
900.113	21268
900.232	21340
900.352	21272
900.472	21180
900.591	21100
900.711	21173
900.83	21131
900.95	21211
901.069	21150
901.189	21100
901.308	20811
901.427	20686
901.546	20701
901.665	20712
901.784	20792
901.904	20507
902.023	20484
902.141	20317
902.26	20248
902.379	20180
902.498	20107
902.617	20282
902.735	20233
902.854	20286
902.973	20176
903.091	19837
903.21	19898
903.328	19894
903.446	19784
903.565	19597
903.683	19662
903.801	19563
903.919	19723
904.038	19556
904.156	19464
904.274	19377
904.392	19422
904.51	19346
904.627	19400
904.745	19445
904.863	19468
904.981	19259
905.098	19202
905.216	19050
905.334	19152
905.451	19069
905.569	19012
905.686	19076
905.803	19080
905.921	18932
906.038	18825
906.155	18977
906.272	18810
906.389	18776
906.506	18677
906.623	18612
906.74	18578
906.857	18506
906.974	18471
907.091	18658
907.208	18601
907.324	18711
907.441	18475
907.557	18266
907.674	18296
907.79	18254
907.907	18205
908.023	18357
908.139	18266
908.256	18266
908.372	18289
908.488	18148
908.604	18007
908.72	18007
908.836	17927
908.952	17977
909.068	18057
909.184	18068
909.3	17969
909.415	18041
909.531	17996
909.647	17756
909.762	17577
909.878	17592
909.993	17699
910.108	17642
910.224	17695
910.339	17611
910.454	17509
910.57	17505
910.685	17478
910.8	17695
910.915	17623
911.03	17421
911.145	17360
911.259	17273
911.374	17318
911.489	17208
911.604	17060
911.718	16972
911.833	17014
911.947	16919
912.062	16877
912.176	17052
912.291	17098
912.405	17037
912.519	17170
912.633	17200
912.748	16927
912.862	16965
912.976	16824
913.09	16717
913.204	16736
913.318	16854
913.431	16885
913.545	16828
913.659	16786
913.772	16611
913.886	16611
914	16497
914.113	16740
914.226	16733
914.34	16618
914.453	16527
914.566	16622
914.68	16481
914.793	16379
914.906	16272
915.019	16230
915.132	16078
915.245	16147
915.358	16177
915.47	16166
915.583	16109
915.696	16215
915.809	16253
915.921	16333
916.034	16090
916.146	16086
916.259	16036
916.371	16059
916.483	16025
916.595	15991
916.708	15987
916.82	15953
916.932	15964
917.044	15918
917.156	15876
917.268	15812
917.38	15728
917.491	15812
917.603	15724
917.715	15850
917.826	15949
917.938	15663
918.049	15663
918.161	15751
918.272	15903
918.384	15827
918.495	15686
918.606	15534
918.717	15485
918.828	15618
918.939	15492
919.05	15473
919.161	15534
919.272	15336
919.383	15355
919.494	15477
919.604	15667
919.715	15511
919.826	15378
919.936	15412
920.047	15511
920.157	15458
920.267	15568
920.378	15466
920.488	15386
920.598	15694
920.708	15770
920.818	15561
920.928	15549
921.038	15663
921.148	15732
921.258	15378
921.368	15272
921.477	15321
921.587	15192
921.697	15039
921.806	15188
921.916	15024
922.025	14872
922.134	14902
922.244	14800
922.353	14895
922.462	14781
922.571	14640
922.68	14579
922.789	14408
922.898	14492
923.007	14469
923.116	14404
923.224	14400
923.333	14446
923.442	14282
923.55	14252
923.659	14294
923.767	14294
923.876	14199
923.984	14301
924.092	14126
924.201	14218
924.309	14126
924.417	14103
924.525	14058
924.633	14027
924.741	15009
924.849	13814
924.956	13875
925.064	13913
925.172	13841
925.279	13788
925.387	13894
925.494	13822
925.602	13849
925.709	13803
925.816	13738
925.924	13791
926.031	13811
926.138	13689
926.245	13742
926.352	13685
926.459	13750
926.566	13803
926.673	13731
926.779	13548
926.886	13575
926.993	13346
927.099	13396
927.206	13247
927.312	13301
927.419	13358
927.525	13350
927.631	13354
927.737	13202
927.843	13244
927.95	13129
928.056	13168
928.162	13156
928.267	13190
928.373	13814
928.479	13270
928.585	12993
928.69	13027
928.796	13065
928.901	13053
929.007	12878
929.112	13072
929.218	12993
929.323	12951
929.428	12966
929.533	12985
929.638	12779
929.743	12821
929.848	12901
929.953	12753
930.058	12654
930.163	12555
930.267	12570
930.372	12627
930.477	12502
930.581	12722
930.685	12536
930.79	12448
930.894	12350
930.998	12365
931.103	12502
931.207	12155
931.311	12060
931.415	11977
931.519	11710
931.623	11809
