Data from test_V78500241_816.txt Node
Date: Fri Mar 25 15:47:27 CST 2022
User: usil
Spectrometer: V785-0024
Trigger mode: 0
Integration Time (sec): 4.000000E-1
Scans to average: 1
Nonlinearity correction enabled: false
Boxcar width: 0
Storing dark spectrum: false
XAxis mode: Wavelengths
Number of Pixels in Spectrum: 1024
>>>>>Begin Spectral Data<<<<<
801.071	27568
801.214	27720
801.356	27249
801.499	27272
801.641	27192
801.783	27226
801.926	27150
802.068	27249
802.211	27135
802.353	27055
802.496	26842
802.638	26785
802.78	26887
802.923	26788
803.065	26804
803.208	26644
803.35	26727
803.492	26788
803.635	26883
803.777	26842
803.919	27127
804.061	27351
804.204	27043
804.346	26864
804.488	26910
804.63	26792
804.773	26834
804.915	27017
805.057	27165
805.199	26906
805.341	27017
805.483	27028
805.626	27055
805.768	26982
805.91	27188
806.052	27047
806.194	27104
806.336	27401
806.478	27195
806.62	27161
806.762	27252
806.904	27466
807.046	27644
807.188	27580
807.33	27557
807.472	27587
807.614	27427
807.756	27424
807.898	27412
808.04	27355
808.182	27363
808.324	27344
808.465	27313
808.607	27572
808.749	27663
808.891	27781
809.033	27918
809.174	27903
809.316	27800
809.458	27709
809.6	27770
809.741	27785
809.883	27972
810.025	28086
810.166	28131
810.308	28185
810.45	28006
810.591	27953
810.733	27739
810.875	27644
811.016	27663
811.158	27641
811.299	27850
811.441	27926
811.582	27865
811.724	27762
811.865	27641
812.007	27663
812.148	27793
812.29	27812
812.431	27941
812.573	28063
812.714	28223
812.855	28310
812.997	28337
813.138	28538
813.279	28546
813.421	28325
813.562	28268
813.703	28139
813.845	27964
813.986	27739
814.127	27591
814.268	27496
814.41	27355
814.551	27439
814.692	27424
814.833	27450
814.974	27481
815.115	27466
815.256	27348
815.397	27363
815.539	27237
815.68	27291
815.821	27138
815.962	27332
816.103	27218
816.244	27077
816.385	27058
816.526	26940
816.666	26826
816.807	26765
816.948	26686
817.089	26712
817.23	26708
817.371	26727
817.512	26834
817.653	26823
817.793	26762
817.934	26632
818.075	26762
818.216	26769
818.356	26552
818.497	26621
818.638	26602
818.778	26537
818.919	26328
819.06	26579
819.2	26609
819.341	26609
819.481	26788
819.622	26716
819.762	27047
819.903	26952
820.043	26800
820.184	26948
820.324	26834
820.465	26910
820.605	26807
820.746	26811
820.886	26598
821.026	26918
821.167	26838
821.307	26864
821.447	26853
821.588	26682
821.728	26617
821.868	26294
822.008	26187
822.149	26081
822.289	26240
822.429	25944
822.569	25932
822.709	25841
822.849	25799
822.99	25704
823.13	25662
823.27	25548
823.41	25499
823.55	25487
823.69	25552
823.83	25495
823.97	25578
824.11	25301
824.25	25274
824.389	25346
824.529	25430
824.669	25369
824.809	25316
824.949	25453
825.089	25502
825.228	25331
825.368	25080
825.508	25266
825.648	25266
825.787	25316
825.927	25175
826.067	25175
826.206	25145
826.346	25354
826.485	25225
826.625	25152
826.765	25407
826.904	25297
827.044	25042
827.183	24939
827.323	24859
827.462	24886
827.601	24924
827.741	24749
827.88	24867
828.02	24745
828.159	24871
828.298	24844
828.437	25023
828.577	24738
828.716	24989
828.855	24791
828.994	24688
829.134	24551
829.273	24650
829.412	24589
829.551	24646
829.69	24570
829.829	24658
829.968	24642
830.107	24707
830.246	24635
830.385	24547
830.524	24410
830.663	24388
830.802	24292
830.941	24167
831.08	24152
831.219	24327
831.357	24209
831.496	24429
831.635	24361
831.774	24102
831.913	24144
832.051	24091
832.19	24091
832.329	23999
832.467	23897
832.606	23764
832.744	23920
832.883	23847
833.022	23802
833.16	23805
833.299	23946
833.437	23824
833.576	23954
833.714	23901
833.852	24049
833.991	24041
834.129	24068
834.267	24068
834.406	23969
834.544	24022
834.682	23980
834.821	23954
834.959	24087
835.097	23954
835.235	24007
835.373	23961
835.511	23961
835.65	23775
835.788	23798
835.926	23703
836.064	23512
836.202	23699
836.34	23726
836.478	23889
836.615	23630
836.753	23798
836.891	23748
837.029	23741
837.167	23783
837.305	23638
837.443	23558
837.58	23611
837.718	23695
837.856	23649
837.993	23611
838.131	23611
838.269	23497
838.406	23520
838.544	23490
838.681	23185
838.819	23265
838.956	23041
839.094	23174
839.231	23113
839.369	23379
839.506	23459
839.643	23318
839.781	23083
839.918	22972
840.055	23022
840.193	23166
840.33	23041
840.467	23022
840.604	22972
840.742	23273
840.879	23022
841.016	22930
841.153	22839
841.29	23033
841.427	23098
841.564	23003
841.701	23037
841.838	22965
841.975	23003
842.112	22980
842.249	22850
842.385	22748
842.522	22965
842.659	22847
842.796	22748
842.933	22740
843.069	22710
843.206	22759
843.343	22934
843.479	22774
843.616	22645
843.752	22546
843.889	22599
844.025	22679
844.162	22622
844.298	22767
844.435	22542
844.571	22504
844.708	22592
844.844	22710
844.98	22622
845.117	22733
845.253	22417
845.389	22489
845.525	22344
845.661	22367
845.798	22272
845.934	22276
846.07	22322
846.206	22303
846.342	22432
846.478	22173
846.614	22112
846.75	21979
846.886	22048
847.022	22086
847.158	22131
847.294	21945
847.429	21991
847.565	21987
847.701	22158
847.837	21671
847.972	21709
848.108	21682
848.244	21827
848.379	21641
848.515	21652
848.65	21648
848.786	21591
848.921	21606
849.057	21694
849.192	21648
849.328	21652
849.463	21599
849.598	21511
849.734	21439
849.869	21466
850.004	21374
850.14	21348
850.275	21351
850.41	21237
850.545	21401
850.68	21317
850.815	21420
850.95	21218
851.085	21591
851.22	21450
851.355	21355
851.49	21283
851.625	21325
851.76	21420
851.895	21283
852.03	21249
852.165	21340
852.299	21458
852.434	21450
852.569	21336
852.703	21272
852.838	21336
852.973	21496
853.107	21439
853.242	21348
853.376	21249
853.511	21119
853.645	21249
853.78	21226
853.914	21173
854.048	21218
854.183	21093
854.317	21272
854.451	21507
854.585	21233
854.72	21184
854.854	21157
854.988	21135
855.122	21154
855.256	21093
855.39	21161
855.524	21321
855.658	21165
855.792	21230
855.926	21249
856.06	21150
856.194	21249
856.327	21207
856.461	21176
856.595	21192
856.729	21226
856.862	21397
856.996	21264
857.13	21195
857.263	21329
857.397	21268
857.53	21230
857.664	21275
857.797	21237
857.931	21275
858.064	21321
858.197	21287
858.331	21154
858.464	21157
858.597	21001
858.731	21112
858.864	21180
858.997	21203
859.13	21207
859.263	21161
859.396	21291
859.529	21142
859.662	21192
859.795	21013
859.928	21230
860.061	21355
860.194	21462
860.327	21241
860.46	21237
860.592	21321
860.725	21447
860.858	21355
860.99	21214
861.123	21169
861.256	21203
861.388	21184
861.521	21797
861.653	21173
861.786	21150
861.918	20963
862.05	21085
862.183	21108
862.315	21055
862.447	21104
862.58	21138
862.712	20906
862.844	20906
862.976	21001
863.108	20998
863.24	21416
863.372	20838
863.504	20990
863.636	20868
863.768	20887
863.9	20944
864.032	20815
864.164	20861
864.296	20948
864.428	21089
864.559	20861
864.691	21058
864.823	20868
864.954	21017
865.086	20963
865.217	20842
865.349	20712
865.48	20762
865.612	20826
865.743	20796
865.875	20663
866.006	20724
866.137	20754
866.269	20826
866.4	20735
866.531	20697
866.662	20727
866.793	20724
866.924	20594
867.055	20777
867.186	20697
867.317	20663
867.448	20720
867.579	20739
867.71	20644
867.841	20686
867.972	20765
868.103	20769
868.233	20667
868.364	20750
868.495	20826
868.625	20891
868.756	21020
868.886	20872
869.017	20948
869.147	21089
869.278	21157
869.408	21039
869.539	20899
869.669	20982
869.799	21020
869.929	21116
870.06	20994
870.19	21355
870.32	21138
870.45	21359
870.58	21370
870.71	21416
870.84	21424
870.97	21336
871.1	21405
871.23	21450
871.36	21481
871.489	21485
871.619	21599
871.749	21633
871.879	21603
872.008	21618
872.138	21599
872.267	21507
872.397	21473
872.526	21363
872.656	21462
872.785	21332
872.915	21606
873.044	21587
873.173	21580
873.303	21561
873.432	21656
873.561	21759
873.69	21622
873.819	21622
873.948	21644
874.077	21526
874.206	21557
874.335	21591
874.464	21694
874.593	21846
874.722	21804
874.851	21812
874.979	21774
875.108	21903
875.237	21800
875.365	21641
875.494	21850
875.623	21895
875.751	21922
875.88	21911
876.008	21975
876.136	21876
876.265	22344
876.393	22337
876.521	22314
876.65	22268
876.778	22188
876.906	22158
877.034	22101
877.162	22093
877.29	22166
877.418	22204
877.546	22196
877.674	22143
877.802	22097
877.93	22272
878.058	22128
878.185	22093
878.313	22055
878.441	22166
878.568	22059
878.696	22036
878.824	22280
878.951	22352
879.079	22379
879.206	22405
879.333	22459
879.461	22207
879.588	22276
879.715	22413
879.842	22481
879.97	22196
880.097	21968
880.224	22116
880.351	22006
880.478	21975
880.605	21865
880.732	22006
880.859	22169
880.986	21972
881.112	21915
881.239	21854
881.366	21686
881.493	21762
881.619	21622
881.746	21568
881.872	21576
881.999	21526
882.125	21526
882.252	21743
882.378	21656
882.505	21633
882.631	21523
882.757	21298
882.883	21374
883.01	21268
883.136	21306
883.262	21066
883.388	21192
883.514	21165
883.64	21412
883.766	21287
883.892	20956
884.018	21100
884.143	21211
884.269	21211
884.395	21009
884.52	20956
884.646	20895
884.772	20910
884.897	20804
885.023	20986
885.148	21020
885.274	21058
885.399	21024
885.524	20998
885.65	20899
885.775	20982
885.9	21058
886.025	21036
886.15	21123
886.275	20910
886.4	20762
886.525	20819
886.65	20773
886.775	20781
886.9	21032
887.025	21188
887.149	20853
887.274	20640
887.399	20640
887.523	20731
887.648	20674
887.773	20541
887.897	20785
888.021	20712
888.146	20670
888.27	20788
888.395	20788
888.519	20682
888.643	20746
888.767	20693
888.891	20632
889.015	20499
889.139	20495
889.263	20450
889.387	20545
889.511	20762
889.635	20613
889.759	20465
889.883	20457
890.006	20530
890.13	20545
890.254	20343
890.377	20431
890.501	20195
890.624	20187
890.748	20313
890.871	20244
890.995	20096
891.118	19928
891.241	20149
891.364	19997
891.488	20263
891.611	20062
891.734	19978
891.857	20062
891.98	20134
892.103	20111
892.226	20031
892.349	20062
892.471	19921
892.594	19841
892.717	19989
892.839	19959
892.962	19940
893.085	20100
893.207	19833
893.33	19799
893.452	19830
893.575	20088
893.697	19890
893.819	20157
893.941	20149
894.064	20115
894.186	19856
894.308	19742
894.43	20035
894.552	20134
894.674	19982
894.796	19925
894.918	19967
895.04	19883
895.161	20050
895.283	20077
895.405	19951
895.526	20020
895.648	19970
895.769	20039
895.891	20039
896.012	20069
896.134	20031
896.255	19986
896.376	19959
896.498	20073
896.619	20001
896.74	19997
896.861	19997
896.982	20381
897.103	20450
897.224	20259
897.345	20191
897.466	20065
897.587	20218
897.708	20423
897.828	20229
897.949	20195
898.07	20050
898.19	20122
898.311	20317
898.431	20214
898.552	20172
898.672	20237
898.792	20275
898.913	20267
899.033	20062
899.153	20065
899.273	19925
899.393	20046
899.513	19993
899.633	19997
899.753	19928
899.873	20012
899.993	20008
900.113	19906
900.232	19947
900.352	19883
900.472	19830
900.591	19677
900.711	19674
900.83	19708
900.95	19818
901.069	19871
901.189	19578
901.308	19369
901.427	19213
901.546	19354
901.665	19316
901.784	19308
901.904	19152
902.023	19076
902.141	18783
902.26	18943
902.379	18973
902.498	18905
902.617	18741
902.735	18932
902.854	18768
902.973	18715
903.091	18536
903.21	18517
903.328	18414
903.446	18273
903.565	18350
903.683	18311
903.801	18327
903.919	18342
904.038	18308
904.156	18064
904.274	18167
904.392	17980
904.51	17920
904.627	18144
904.745	18121
904.863	18136
904.981	17790
905.098	17779
905.216	17764
905.334	17859
905.451	17764
905.569	17775
905.686	17813
905.803	17752
905.921	17585
906.038	17611
906.155	17547
906.272	17391
906.389	17562
906.506	17273
906.623	17292
906.74	17292
906.857	17140
906.974	17254
907.091	17288
907.208	17391
907.324	17398
907.441	17223
907.557	16980
907.674	16984
907.79	16949
907.907	17018
908.023	17037
908.139	17003
908.256	16942
908.372	16938
908.488	16862
908.604	16706
908.72	16710
908.836	16626
908.952	16637
909.068	16679
909.184	16881
909.3	16687
909.415	16694
909.531	16592
909.647	16428
909.762	16481
909.878	16508
909.993	16493
910.108	16352
910.224	16367
910.339	16481
910.454	16272
910.57	16253
910.685	16188
910.8	16474
910.915	16440
911.03	16177
911.145	16044
911.259	15949
911.374	16090
911.489	15987
911.604	15911
911.718	15770
911.833	15854
911.947	15713
912.062	15652
912.176	15869
912.291	15892
912.405	15838
912.519	15945
912.633	15922
912.748	15804
912.862	15759
912.976	15667
913.09	15412
913.204	15549
913.318	15652
913.431	15671
913.545	15675
913.659	15724
913.772	15477
913.886	15439
914	15355
914.113	15389
914.226	15481
914.34	15405
914.453	15313
914.566	15348
914.68	15245
914.793	15272
914.906	15138
915.019	14986
915.132	14963
915.245	15005
915.358	14971
915.47	14868
915.583	14975
915.696	14944
915.809	15218
915.921	15116
916.034	14864
916.146	14823
916.259	14883
916.371	15039
916.483	14975
916.595	14891
916.708	14807
916.82	14765
916.932	14910
917.044	14883
917.156	14762
917.268	14655
917.38	14629
917.491	14678
917.603	14697
917.715	14621
917.826	14796
917.938	14560
918.049	14533
918.161	14503
918.272	14625
918.384	14849
918.495	14659
918.606	14556
918.717	14366
918.828	14431
918.939	14454
919.05	14381
919.161	14408
919.272	14115
919.383	14237
919.494	14423
919.604	14583
919.715	14366
919.826	14324
919.936	14393
920.047	14396
920.157	14423
920.267	14651
920.378	14374
920.488	14301
920.598	14564
920.708	14792
920.818	14511
920.928	14537
921.038	14610
921.148	14613
921.258	14370
921.368	14286
921.477	14199
921.587	14172
921.697	13989
921.806	14187
921.916	13997
922.025	13852
922.134	13807
922.244	13830
922.353	13799
922.462	13613
922.571	13609
922.68	13487
922.789	13388
922.898	13403
923.007	13350
923.116	13388
923.224	13377
923.333	13362
923.442	13316
923.55	13221
923.659	13304
923.767	13346
923.876	13259
923.984	13282
924.092	13149
924.201	13270
924.309	13244
924.417	13118
924.525	13080
924.633	13004
924.741	13955
924.849	12905
924.956	13019
925.064	12981
925.172	12783
925.279	12894
925.387	12901
925.494	12779
925.602	13038
925.709	12878
925.816	12757
925.924	12760
926.031	12924
926.138	12882
926.245	12810
926.352	12757
926.459	12844
926.566	12958
926.673	12738
926.779	12566
926.886	12578
926.993	12445
927.099	12479
927.206	12369
927.312	12315
927.419	12471
927.525	12353
927.631	12437
927.737	12330
927.843	12258
927.95	12072
928.056	12232
928.162	12197
928.267	12300
928.373	12932
928.479	12254
928.585	12064
928.69	12163
928.796	12171
928.901	12148
929.007	11992
929.112	12102
929.218	12114
929.323	11961
929.428	11958
929.533	12110
929.638	11908
929.743	11939
929.848	11927
929.953	11843
930.058	11809
930.163	11653
930.267	11623
930.372	11771
930.477	11672
930.581	11847
930.685	11699
930.79	11551
930.894	11615
930.998	11570
931.103	11691
931.207	11277
931.311	11155
931.415	11064
931.519	10942
931.623	10949
