Data from test_V78500241_2572.txt Node
Date: Fri Mar 25 15:59:37 CST 2022
User: usil
Spectrometer: V785-0024
Trigger mode: 0
Integration Time (sec): 4.000000E-1
Scans to average: 1
Nonlinearity correction enabled: false
Boxcar width: 0
Storing dark spectrum: false
XAxis mode: Wavelengths
Number of Pixels in Spectrum: 1024
>>>>>Begin Spectral Data<<<<<
801.071	28767
801.214	28812
801.356	28596
801.499	28611
801.641	28470
801.783	28474
801.926	28508
802.068	28481
802.211	28413
802.353	28508
802.496	28067
802.638	28215
802.78	28002
802.923	28139
803.065	27964
803.208	28143
803.35	28306
803.492	28295
803.635	28481
803.777	28310
803.919	28337
804.061	28748
804.204	28466
804.346	28421
804.488	28280
804.63	28360
804.773	28272
804.915	28436
805.057	28645
805.199	28500
805.341	28508
805.483	28565
805.626	28622
805.768	28561
805.91	28618
806.052	28592
806.194	28531
806.336	28713
806.478	28649
806.62	28565
806.762	28672
806.904	28888
807.046	29006
807.188	29200
807.33	28957
807.472	28999
807.614	29098
807.756	28976
807.898	29003
808.04	28816
808.182	28812
808.324	28968
808.465	28976
808.607	29094
808.749	29337
808.891	29444
809.033	29433
809.174	29395
809.316	29204
809.458	29223
809.6	29159
809.741	29235
809.883	29398
810.025	29551
810.166	29611
810.308	29634
810.45	29516
810.591	29448
810.733	29231
810.875	29265
811.016	29094
811.158	29121
811.299	29410
811.441	29444
811.582	29391
811.724	29288
811.865	29231
812.007	29258
812.148	29166
812.29	29421
812.431	29596
812.573	29642
812.714	29817
812.855	29771
812.997	29809
813.138	30068
813.279	29931
813.421	29802
813.562	29813
813.703	29630
813.845	29497
813.986	29307
814.127	29277
814.268	28976
814.41	29113
814.551	28972
814.692	29181
814.833	28934
814.974	28858
815.115	28968
815.256	28858
815.397	28755
815.539	28892
815.68	28774
815.821	28824
815.962	28831
816.103	28725
816.244	28599
816.385	28611
816.526	28596
816.666	28478
816.807	28455
816.948	28413
817.089	28440
817.23	28386
817.371	28272
817.512	28329
817.653	28154
817.793	28173
817.934	28306
818.075	28367
818.216	28272
818.356	28303
818.497	28265
818.638	28086
818.778	27960
818.919	28078
819.06	28166
819.2	28131
819.341	28356
819.481	28344
819.622	28497
819.762	28618
819.903	28691
820.043	28550
820.184	28485
820.324	28421
820.465	28542
820.605	28440
820.746	28413
820.886	28337
821.026	28474
821.167	28398
821.307	28542
821.447	28485
821.588	28196
821.728	28226
821.868	27945
822.008	27770
822.149	27823
822.289	27804
822.429	27568
822.569	27481
822.709	27408
822.849	27382
822.99	27355
823.13	27310
823.27	27256
823.41	27192
823.55	26994
823.69	27150
823.83	27135
823.97	27108
824.11	26933
824.25	26975
824.389	26918
824.529	27036
824.669	26979
824.809	27001
824.949	27119
825.089	27055
825.228	26948
825.368	26819
825.508	26834
825.648	26872
825.787	26960
825.927	26906
826.067	26842
826.206	26743
826.346	26849
826.485	27028
826.625	26804
826.765	26899
826.904	26849
827.044	26640
827.183	26408
827.323	26674
827.462	26613
827.601	26629
827.741	26495
827.88	26587
828.02	26518
828.159	26507
828.298	26488
828.437	26636
828.577	26636
828.716	26587
828.855	26488
828.994	26275
829.134	26275
829.273	26256
829.412	26336
829.551	26138
829.69	26248
829.829	26317
829.968	26313
830.107	26351
830.246	26370
830.385	26153
830.524	26065
830.663	26088
830.802	25864
830.941	25890
831.08	25868
831.219	25868
831.357	25966
831.496	25989
831.635	25871
831.774	25753
831.913	25662
832.051	25624
832.19	25563
832.329	25685
832.467	25582
832.606	25499
832.744	25476
832.883	25521
833.022	25529
833.16	25483
833.299	25590
833.437	25609
833.576	25540
833.714	25635
833.852	25693
833.991	25677
834.129	25689
834.267	25647
834.406	25651
834.544	25563
834.682	25632
834.821	25685
834.959	25696
835.097	25445
835.235	25616
835.373	25662
835.511	25518
835.65	25506
835.788	25476
835.926	25354
836.064	25088
836.202	25190
836.34	25369
836.478	25415
836.615	25400
836.753	25468
836.891	25411
837.029	25331
837.167	25354
837.305	25236
837.443	25426
837.58	25244
837.718	25198
837.856	25362
837.993	25251
838.131	25324
838.269	25190
838.406	25118
838.544	25015
838.681	24856
838.819	24684
838.956	24711
839.094	24623
839.231	24738
839.369	24844
839.506	25129
839.643	24905
839.781	24635
839.918	24654
840.055	24745
840.193	24597
840.33	24517
840.467	24597
840.604	24715
840.742	24882
840.879	24498
841.016	24483
841.153	24452
841.29	24661
841.427	24513
841.564	24566
841.701	24547
841.838	24521
841.975	24395
842.112	24422
842.249	24407
842.385	24296
842.522	24460
842.659	24441
842.796	24300
842.933	24342
843.069	24266
843.206	24338
843.343	24281
843.479	24437
843.616	24384
843.752	24102
843.889	24178
844.025	24235
844.162	24171
844.298	24243
844.435	24038
844.571	24148
844.708	24110
844.844	24277
844.98	24190
845.117	24178
845.253	24083
845.389	23996
845.525	24136
845.661	23977
845.798	23798
845.934	23878
846.07	23805
846.206	23843
846.342	23923
846.478	23832
846.614	23638
846.75	23543
846.886	23604
847.022	23630
847.158	23608
847.294	23463
847.429	23554
847.565	23562
847.701	23798
847.837	23334
847.972	23436
848.108	23387
848.244	23387
848.379	23315
848.515	23220
848.65	23159
848.786	23113
848.921	23170
849.057	23277
849.192	23315
849.328	23132
849.463	23090
849.598	23029
849.734	23003
849.869	22980
850.004	22873
850.14	22896
850.275	22957
850.41	22828
850.545	22942
850.68	22953
850.815	22896
850.95	23052
851.085	23140
851.22	23083
851.355	22980
851.49	22946
851.625	22999
851.76	22923
851.895	22763
852.03	22987
852.165	22946
852.299	23010
852.434	23010
852.569	22968
852.703	22953
852.838	22915
852.973	23071
853.107	23056
853.242	22930
853.376	22805
853.511	22626
853.645	22672
853.78	22968
853.914	22736
854.048	22584
854.183	22790
854.317	22839
854.451	23018
854.585	22797
854.72	22759
854.854	22858
854.988	22683
855.122	22717
855.256	22637
855.39	22740
855.524	22801
855.658	22854
855.792	22683
855.926	22771
856.06	22816
856.194	22877
856.327	22599
856.461	22816
856.595	22736
856.729	22759
856.862	22850
856.996	22721
857.13	22839
857.263	22820
857.397	22771
857.53	22797
857.664	22812
857.797	22767
857.931	22854
858.064	22755
858.197	22854
858.331	22733
858.464	22675
858.597	22637
858.731	22786
858.864	22664
858.997	22736
859.13	22729
859.263	22755
859.396	22759
859.529	22725
859.662	22588
859.795	22740
859.928	22679
860.061	22927
860.194	23033
860.327	22752
860.46	22816
860.592	22793
860.725	22797
860.858	22889
860.99	22721
861.123	22630
861.256	22626
861.388	22782
861.521	23425
861.653	22557
861.786	22546
861.918	22626
862.05	22656
862.183	22622
862.315	22782
862.447	22733
862.58	22774
862.712	22455
862.844	22459
862.976	22428
863.108	22436
863.24	22927
863.372	22379
863.504	22428
863.636	22470
863.768	22474
863.9	22489
864.032	22413
864.164	22386
864.296	22348
864.428	22577
864.559	22550
864.691	22500
864.823	22272
864.954	22523
865.086	22398
865.217	22329
865.349	22257
865.48	22162
865.612	22337
865.743	22508
865.875	22318
866.006	22287
866.137	22280
866.269	22306
866.4	22192
866.531	22257
866.662	22291
866.793	22139
866.924	22166
867.055	22276
867.186	22246
867.317	22280
867.448	22185
867.579	22253
867.71	22173
867.841	22219
867.972	22284
868.103	22257
868.233	22337
868.364	22253
868.495	22284
868.625	22519
868.756	22645
868.886	22398
869.017	22421
869.147	22599
869.278	22596
869.408	22398
869.539	22409
869.669	22508
869.799	22557
869.929	22740
870.06	22634
870.19	22892
870.32	22854
870.45	22862
870.58	22896
870.71	22934
870.84	22949
870.97	22820
871.1	22805
871.23	22968
871.36	23037
871.489	23014
871.619	23170
871.749	22885
871.879	23079
872.008	23250
872.138	23124
872.267	23128
872.397	23033
872.526	22900
872.656	23075
872.785	22965
872.915	23098
873.044	23216
873.173	23132
873.303	23197
873.432	23197
873.561	23261
873.69	23200
873.819	23140
873.948	23193
874.077	23258
874.206	23102
874.335	23246
874.464	23181
874.593	23395
874.722	23254
874.851	23482
874.979	23299
875.108	23490
875.237	23330
875.365	23216
875.494	23387
875.623	23486
875.751	23307
875.88	23307
876.008	23341
876.136	23520
876.265	23771
876.393	23817
876.521	23809
876.65	23965
876.778	23805
876.906	23809
877.034	23668
877.162	23726
877.29	23653
877.418	23737
877.546	23813
877.674	23627
877.802	23733
877.93	23661
878.058	23687
878.185	23490
878.313	23531
878.441	23676
878.568	23524
878.696	23672
878.824	23771
878.951	23828
879.079	23840
879.206	23946
879.333	23798
879.461	23847
879.588	23954
879.715	23882
879.842	24011
879.97	23653
880.097	23486
880.224	23528
880.351	23668
880.478	23535
880.605	23505
880.732	23520
880.859	23729
880.986	23608
881.112	23512
881.239	23318
881.366	23231
881.493	23052
881.619	23117
881.746	23029
881.872	23048
881.999	23025
882.125	23105
882.252	23052
882.378	23143
882.505	23189
882.631	22980
882.757	22717
882.883	22850
883.01	22733
883.136	22755
883.262	22607
883.388	22497
883.514	22706
883.64	22729
883.766	22645
883.892	22451
884.018	22485
884.143	22710
884.269	22740
884.395	22371
884.52	22428
884.646	22455
884.772	22200
884.897	22204
885.023	22280
885.148	22455
885.274	22615
885.399	22386
885.524	22382
885.65	22394
885.775	22478
885.9	22394
886.025	22474
886.15	22466
886.275	22242
886.4	22230
886.525	22230
886.65	22306
886.775	22261
886.9	22382
887.025	22588
887.149	22371
887.274	22185
887.399	22067
887.523	22223
887.648	22044
887.773	21941
887.897	22207
888.021	22097
888.146	22055
888.27	22249
888.395	22188
888.519	22185
888.643	22021
888.767	22101
888.891	22013
889.015	21915
889.139	21880
889.263	21934
889.387	22032
889.511	22048
889.635	22025
889.759	21949
889.883	21785
890.006	21964
890.13	22063
890.254	21819
890.377	21835
890.501	21660
890.624	21671
890.748	21682
890.871	21515
890.995	21481
891.118	21389
891.241	21443
891.364	21412
891.488	21603
891.611	21526
891.734	21507
891.857	21447
891.98	21572
892.103	21538
892.226	21466
892.349	21306
892.471	21211
892.594	21519
892.717	21477
892.839	21351
892.962	21336
893.085	21420
893.207	21230
893.33	21264
893.452	21237
893.575	21420
893.697	21249
893.819	21488
893.941	21587
894.064	21519
894.186	21192
894.308	21264
894.43	21492
894.552	21496
894.674	21355
894.796	21306
894.918	21264
895.04	21264
895.161	21397
895.283	21416
895.405	21351
895.526	21268
895.648	21317
895.769	21317
895.891	21325
896.012	21424
896.134	21382
896.255	21329
896.376	21199
896.498	21298
896.619	21405
896.74	21321
896.861	21477
896.982	21671
897.103	21717
897.224	21580
897.345	21504
897.466	21511
897.587	21553
897.708	21705
897.828	21511
897.949	21549
898.07	21283
898.19	21397
898.311	21606
898.431	21447
898.552	21431
898.672	21591
898.792	21564
898.913	21431
899.033	21378
899.153	21272
899.273	21222
899.393	21230
899.513	21306
899.633	21279
899.753	21378
899.873	21146
899.993	21169
900.113	21119
900.232	21176
900.352	21142
900.472	21043
900.591	20971
900.711	21108
900.83	20975
900.95	21104
901.069	21089
901.189	20811
901.308	20651
901.427	20503
901.546	20499
901.665	20651
901.784	20587
901.904	20412
902.023	20339
902.141	20278
902.26	20050
902.379	20145
902.498	20111
902.617	19925
902.735	20016
902.854	20081
902.973	19890
903.091	19871
903.21	19761
903.328	19814
903.446	19674
903.565	19529
903.683	19567
903.801	19441
903.919	19472
904.038	19521
904.156	19331
904.274	19266
904.392	19259
904.51	19179
904.627	19232
904.745	19285
904.863	19339
904.981	19133
905.098	19000
905.216	18958
905.334	19091
905.451	18970
905.569	18916
905.686	18840
905.803	19053
905.921	18669
906.038	18920
906.155	18726
906.272	18604
906.389	18684
906.506	18502
906.623	18486
906.74	18464
906.857	18365
906.974	18467
907.091	18536
907.208	18521
907.324	18506
907.441	18410
907.557	18129
907.674	18209
907.79	18083
907.907	18034
908.023	18144
908.139	18083
908.256	18117
908.372	17923
908.488	18022
908.604	17904
908.72	17912
908.836	17988
908.952	17866
909.068	18003
909.184	17984
909.3	17847
909.415	17916
909.531	17771
909.647	17547
909.762	17570
909.878	17562
909.993	17619
910.108	17539
910.224	17589
910.339	17547
910.454	17512
910.57	17459
910.685	17368
910.8	17554
910.915	17596
911.03	17284
911.145	17258
911.259	17067
911.374	17075
911.489	17079
911.604	17025
911.718	16763
911.833	16987
911.947	16869
912.062	16835
912.176	17022
912.291	16938
912.405	16877
912.519	17037
912.633	17041
912.748	16904
912.862	16752
912.976	16755
913.09	16558
913.204	16748
913.318	16672
913.431	16790
913.545	16816
913.659	16900
913.772	16618
913.886	16489
914	16455
914.113	16569
914.226	16596
914.34	16474
914.453	16352
914.566	16485
914.68	16356
914.793	16265
914.906	16090
915.019	16048
915.132	15987
915.245	16082
915.358	16074
915.47	15930
915.583	16074
915.696	16135
915.809	16173
915.921	16215
916.034	16044
916.146	16006
916.259	15949
916.371	16071
916.483	15892
916.595	15941
916.708	15907
916.82	15918
916.932	15808
917.044	15842
917.156	15804
917.268	15648
917.38	15728
917.491	15587
917.603	15724
917.715	15842
917.826	15800
917.938	15618
918.049	15477
918.161	15572
918.272	15838
918.384	15679
918.495	15542
918.606	15351
918.717	15382
918.828	15393
918.939	15424
919.05	15397
919.161	15462
919.272	15218
919.383	15192
919.494	15389
919.604	15603
919.715	15393
919.826	15321
919.936	15374
920.047	15336
920.157	15386
920.267	15504
920.378	15469
920.488	15268
920.598	15561
920.708	15690
920.818	15526
920.928	15526
921.038	15686
921.148	15568
921.258	15310
921.368	15199
921.477	15165
921.587	14986
921.697	14845
921.806	15051
921.916	14937
922.025	14750
922.134	14777
922.244	14651
922.353	14758
922.462	14613
922.571	14507
922.68	14320
922.789	14282
922.898	14328
923.007	14351
923.116	14347
923.224	14229
923.333	14343
923.442	14210
923.55	14229
923.659	14153
923.767	14237
923.876	14149
923.984	14187
924.092	14103
924.201	14107
924.309	14123
924.417	14092
924.525	13993
924.633	13970
924.741	14895
924.849	13845
924.956	13936
925.064	13742
925.172	13582
925.279	13689
925.387	13719
925.494	13708
925.602	13852
925.709	13803
925.816	13670
925.924	13734
926.031	13799
926.138	13590
926.245	13677
926.352	13525
926.459	13704
926.566	13769
926.673	13636
926.779	13552
926.886	13422
926.993	13259
927.099	13266
927.206	13278
927.312	13194
927.419	13335
927.525	13217
927.631	13304
927.737	13171
927.843	13080
927.95	13012
928.056	12970
928.162	13053
928.267	13080
928.373	13605
928.479	13088
928.585	12947
928.69	13076
928.796	13015
928.901	12954
929.007	12776
929.112	12878
929.218	12863
929.323	12878
929.428	12700
929.533	12871
929.638	12677
929.743	12684
929.848	12730
929.953	12738
930.058	12563
930.163	12369
930.267	12490
930.372	12593
930.477	12357
930.581	12684
930.685	12521
930.79	12357
930.894	12273
930.998	12304
931.103	12448
931.207	12026
931.311	12060
931.415	11950
931.519	11718
931.623	11646
