Data from test_V78500241_1430.txt Node
Date: Fri Mar 25 15:51:42 CST 2022
User: usil
Spectrometer: V785-0024
Trigger mode: 0
Integration Time (sec): 4.000000E-1
Scans to average: 1
Nonlinearity correction enabled: false
Boxcar width: 0
Storing dark spectrum: false
XAxis mode: Wavelengths
Number of Pixels in Spectrum: 1024
>>>>>Begin Spectral Data<<<<<
801.071	28185
801.214	28230
801.356	27914
801.499	27827
801.641	27766
801.783	27789
801.926	27800
802.068	27705
802.211	27709
802.353	27705
802.496	27466
802.638	27545
802.78	27488
802.923	27462
803.065	27439
803.208	27454
803.35	27507
803.492	27606
803.635	27671
803.777	27492
803.919	27766
804.061	27968
804.204	27644
804.346	27675
804.488	27542
804.63	27808
804.773	27530
804.915	27728
805.057	27869
805.199	27641
805.341	27934
805.483	27892
805.626	27968
805.768	27583
805.91	27865
806.052	27816
806.194	27838
806.336	27953
806.478	27816
806.62	27873
806.762	27998
806.904	28093
807.046	28322
807.188	28295
807.33	28211
807.472	28314
807.614	28135
807.756	28226
807.898	28204
808.04	28109
808.182	28196
808.324	28291
808.465	28147
808.607	28382
808.749	28577
808.891	28615
809.033	28584
809.174	28504
809.316	28413
809.458	28443
809.6	28573
809.741	28683
809.883	28740
810.025	28927
810.166	28782
810.308	28710
810.45	28725
810.591	28717
810.733	28542
810.875	28504
811.016	28344
811.158	28386
811.299	28531
811.441	28641
811.582	28599
811.724	28512
811.865	28398
812.007	28561
812.148	28481
812.29	28615
812.431	28869
812.573	28919
812.714	28968
812.855	29003
812.997	29067
813.138	29231
813.279	29170
813.421	29147
813.562	29018
813.703	28721
813.845	28573
813.986	28523
814.127	28314
814.268	28356
814.41	28261
814.551	28196
814.692	28272
814.833	28090
814.974	28261
815.115	28181
815.256	28025
815.397	28070
815.539	28082
815.68	27892
815.821	28017
815.962	28036
816.103	28029
816.244	27918
816.385	27781
816.526	27804
816.666	27553
816.807	27469
816.948	27519
817.089	27614
817.23	27454
817.371	27580
817.512	27504
817.653	27549
817.793	27447
817.934	27485
818.075	27485
818.216	27488
818.356	27504
818.497	27359
818.638	27150
818.778	27298
818.919	27218
819.06	27363
819.2	27336
819.341	27439
819.481	27523
819.622	27675
819.762	27857
819.903	27660
820.043	27606
820.184	27572
820.324	27618
820.465	27732
820.605	27637
820.746	27614
820.886	27469
821.026	27690
821.167	27625
821.307	27755
821.447	27633
821.588	27408
821.728	27378
821.868	27207
822.008	27089
822.149	26918
822.289	26921
822.429	26686
822.569	26571
822.709	26636
822.849	26393
822.99	26545
823.13	26469
823.27	26358
823.41	26271
823.55	26176
823.69	26393
823.83	26400
823.97	26282
824.11	26069
824.25	26130
824.389	26073
824.529	26202
824.669	26191
824.809	26366
824.949	26233
825.089	26119
825.228	26153
825.368	26039
825.508	25811
825.648	25997
825.787	26027
825.927	26111
826.067	25849
826.206	25932
826.346	26142
826.485	26058
826.625	25997
826.765	26062
826.904	25940
827.044	25769
827.183	25734
827.323	25715
827.462	25651
827.601	25811
827.741	25616
827.88	25662
828.02	25506
828.159	25620
828.298	25761
828.437	25780
828.577	25666
828.716	25849
828.855	25559
828.994	25316
829.134	25495
829.273	25495
829.412	25339
829.551	25350
829.69	25460
829.829	25464
829.968	25491
830.107	25506
830.246	25476
830.385	25293
830.524	25324
830.663	25270
830.802	25145
830.941	24973
831.08	24943
831.219	25053
831.357	25034
831.496	25228
831.635	25046
831.774	25019
831.913	24905
832.051	24673
832.19	24791
832.329	24719
832.467	24795
832.606	24536
832.744	24601
832.883	24654
833.022	24578
833.16	24623
833.299	24684
833.437	24795
833.576	24795
833.714	24722
833.852	24802
833.991	24734
834.129	24817
834.267	24916
834.406	24730
834.544	24802
834.682	24722
834.821	24612
834.959	24745
835.097	24711
835.235	24707
835.373	24692
835.511	24741
835.65	24738
835.788	24608
835.926	24414
836.064	24384
836.202	24391
836.34	24673
836.478	24544
836.615	24559
836.753	24429
836.891	24700
837.029	24486
837.167	24437
837.305	24536
837.443	24494
837.58	24426
837.718	24372
837.856	24414
837.993	24213
838.131	24300
838.269	24319
838.406	24258
838.544	24144
838.681	23927
838.819	23901
838.956	23931
839.094	23874
839.231	23813
839.369	23950
839.506	24270
839.643	24079
839.781	23779
839.918	23786
840.055	23920
840.193	23729
840.33	23878
840.467	23687
840.604	23847
840.742	24129
840.879	23611
841.016	23707
841.153	23566
841.29	23904
841.427	23813
841.564	23737
841.701	23684
841.838	23638
841.975	23687
842.112	23623
842.249	23486
842.385	23520
842.522	23707
842.659	23558
842.796	23410
842.933	23436
843.069	23471
843.206	23414
843.343	23570
843.479	23558
843.616	23573
843.752	23337
843.889	23315
844.025	23364
844.162	23345
844.298	23360
844.435	23284
844.571	23398
844.708	23212
844.844	23436
844.98	23398
845.117	23417
845.253	23147
845.389	23254
845.525	23322
845.661	23231
845.798	23014
845.934	22999
846.07	23121
846.206	23102
846.342	23193
846.478	22919
846.614	22790
846.75	22706
846.886	22599
847.022	22850
847.158	22831
847.294	22698
847.429	22797
847.565	22748
847.701	23094
847.837	22466
847.972	22306
848.108	22637
848.244	22561
848.379	22329
848.515	22322
848.65	22379
848.786	22234
848.921	22440
849.057	22550
849.192	22318
849.328	22367
849.463	22341
849.598	22356
849.734	22135
849.869	22181
850.004	22086
850.14	22040
850.275	22067
850.41	22086
850.545	22021
850.68	22051
850.815	22131
850.95	22017
851.085	22287
851.22	22219
851.355	22082
851.49	22097
851.625	22051
851.76	22101
851.895	22025
852.03	22090
852.165	22101
852.299	22078
852.434	22261
852.569	22131
852.703	22169
852.838	22112
852.973	22398
853.107	22177
853.242	22040
853.376	21960
853.511	21846
853.645	21930
853.78	22036
853.914	21953
854.048	21816
854.183	21804
854.317	21972
854.451	22055
854.585	22105
854.72	21842
854.854	21869
854.988	21949
855.122	21873
855.256	21717
855.39	21850
855.524	21953
855.658	21926
855.792	22025
855.926	21945
856.06	21903
856.194	21991
856.327	21968
856.461	21892
856.595	21918
856.729	21983
856.862	21941
856.996	22010
857.13	21956
857.263	22086
857.397	21968
857.53	21945
857.664	21983
857.797	21915
857.931	22010
858.064	21842
858.197	22010
858.331	21994
858.464	21884
858.597	21850
858.731	21926
858.864	22010
858.997	21930
859.13	21838
859.263	21827
859.396	21907
859.529	21842
859.662	21785
859.795	21869
859.928	21926
860.061	22032
860.194	21987
860.327	21953
860.46	21903
860.592	22162
860.725	22055
860.858	22147
860.99	22006
861.123	21850
861.256	21907
861.388	21953
861.521	22637
861.653	21789
861.786	21663
861.918	21701
862.05	21808
862.183	21759
862.315	21743
862.447	21903
862.58	21816
862.712	21549
862.844	21629
862.976	21724
863.108	21720
863.24	22070
863.372	21629
863.504	21625
863.636	21572
863.768	21644
863.9	21458
864.032	21572
864.164	21671
864.296	21743
864.428	21724
864.559	21705
864.691	21717
864.823	21667
864.954	21576
865.086	21389
865.217	21606
865.349	21401
865.48	21553
865.612	21580
865.743	21614
865.875	21561
866.006	21492
866.137	21485
866.269	21526
866.4	21401
866.531	21397
866.662	21420
866.793	21454
866.924	21435
867.055	21526
867.186	21515
867.317	21504
867.448	21348
867.579	21424
867.71	21336
867.841	21272
867.972	21454
868.103	21412
868.233	21542
868.364	21492
868.495	21538
868.625	21610
868.756	21831
868.886	21587
869.017	21610
869.147	21648
869.278	21739
869.408	21694
869.539	21705
869.669	21812
869.799	21800
869.929	21686
870.06	21747
870.19	22032
870.32	21937
870.45	22070
870.58	21991
870.71	22162
870.84	22188
870.97	22074
871.1	22105
871.23	22169
871.36	22295
871.489	22196
871.619	22204
871.749	22295
871.879	22443
872.008	22436
872.138	22421
872.267	22242
872.397	21987
872.526	22169
872.656	22139
872.785	22048
872.915	22295
873.044	22356
873.173	22421
873.303	22436
873.432	22398
873.561	22489
873.69	22268
873.819	22253
873.948	22356
874.077	22394
874.206	22394
874.335	22261
874.464	22409
874.593	22668
874.722	22577
874.851	22573
874.979	22538
875.108	22660
875.237	22546
875.365	22443
875.494	22538
875.623	22573
875.751	22630
875.88	22603
876.008	22596
876.136	22660
876.265	22911
876.393	23048
876.521	22999
876.65	23022
876.778	22927
876.906	22927
877.034	22839
877.162	22828
877.29	22927
877.418	22934
877.546	22774
877.674	22873
877.802	22790
877.93	22889
878.058	22923
878.185	22653
878.313	22904
878.441	22927
878.568	22706
878.696	22835
878.824	22930
878.951	23086
879.079	23162
879.206	23124
879.333	22961
879.461	22900
879.588	23029
879.715	23071
879.842	23132
879.97	22980
880.097	22759
880.224	22790
880.351	22668
880.478	22774
880.605	22717
880.732	22744
880.859	22999
880.986	22778
881.112	22828
881.239	22497
881.366	22447
881.493	22424
881.619	22394
881.746	22344
881.872	22249
881.999	22375
882.125	22055
882.252	22234
882.378	22257
882.505	22405
882.631	22185
882.757	22010
882.883	22063
883.01	21991
883.136	21941
883.262	21850
883.388	21789
883.514	21975
883.64	22010
883.766	21819
883.892	21739
884.018	21629
884.143	21926
884.269	21987
884.395	21507
884.52	21545
884.646	21743
884.772	21568
884.897	21431
885.023	21663
885.148	21728
885.274	21724
885.399	21663
885.524	21553
885.65	21564
885.775	21766
885.9	21587
886.025	21690
886.15	21682
886.275	21553
886.4	21443
886.525	21530
886.65	21507
886.775	21500
886.9	21671
887.025	21888
887.149	21580
887.274	21416
887.399	21355
887.523	21279
887.648	21370
887.773	21344
887.897	21431
888.021	21306
888.146	21222
888.27	21599
888.395	21428
888.519	21325
888.643	21492
888.767	21435
888.891	21272
889.015	21116
889.139	21291
889.263	21119
889.387	21188
889.511	21367
889.635	21340
889.759	21146
889.883	21161
890.006	21154
890.13	21264
890.254	21055
890.377	21146
890.501	20918
890.624	20838
890.748	20994
890.871	20872
890.995	20705
891.118	20754
891.241	20697
891.364	20754
891.488	20842
891.611	20648
891.734	20807
891.857	20857
891.98	20785
892.103	20792
892.226	20739
892.349	20625
892.471	20503
892.594	20602
892.717	20518
892.839	20651
892.962	20583
893.085	20670
893.207	20644
893.33	20503
893.452	20583
893.575	20731
893.697	20667
893.819	20689
893.941	20796
894.064	20701
894.186	20590
894.308	20507
894.43	20682
894.552	20743
894.674	20712
894.796	20465
894.918	20522
895.04	20522
895.161	20644
895.283	20708
895.405	20533
895.526	20648
895.648	20659
895.769	20697
895.891	20530
896.012	20693
896.134	20708
896.255	20503
896.376	20606
896.498	20602
896.619	20686
896.74	20518
896.861	20716
896.982	20910
897.103	21108
897.224	20941
897.345	20807
897.466	20739
897.587	20861
897.708	20975
897.828	20811
897.949	20651
898.07	20667
898.19	20701
898.311	20925
898.431	20659
898.552	20796
898.672	20857
898.792	20804
898.913	20857
899.033	20670
899.153	20602
899.273	20514
899.393	20461
899.513	20621
899.633	20617
899.753	20609
899.873	20503
899.993	20552
900.113	20442
900.232	20575
900.352	20533
900.472	20229
900.591	20305
900.711	20332
900.83	20237
900.95	20389
901.069	20469
901.189	20225
901.308	19970
901.427	19909
901.546	19830
901.665	19890
901.784	19917
901.904	19811
902.023	19655
902.141	19571
902.26	19358
902.379	19525
902.498	19381
902.617	19358
902.735	19548
902.854	19415
902.973	19373
903.091	19156
903.21	19091
903.328	19012
903.446	19004
903.565	18909
903.683	19000
903.801	18856
903.919	18837
904.038	18890
904.156	18665
904.274	18802
904.392	18673
904.51	18639
904.627	18711
904.745	18608
904.863	18642
904.981	18483
905.098	18254
905.216	18342
905.334	18350
905.451	18277
905.569	18254
905.686	18429
905.803	18334
905.921	18091
906.038	18194
906.155	18209
906.272	17996
906.389	18030
906.506	17855
906.623	17703
906.74	17882
906.857	17714
906.974	17771
907.091	17855
907.208	17866
907.324	17752
907.441	17703
907.557	17585
907.674	17509
907.79	17490
907.907	17501
908.023	17566
908.139	17570
908.256	17509
908.372	17493
908.488	17516
908.604	17189
908.72	17197
908.836	17212
908.952	17197
909.068	17296
909.184	17292
909.3	17288
909.415	17326
909.531	17170
909.647	16991
909.762	16987
909.878	16953
909.993	16938
910.108	17003
910.224	16828
910.339	16831
910.454	16934
910.57	16771
910.685	16660
910.8	16930
910.915	16961
911.03	16744
911.145	16687
911.259	16561
911.374	16538
911.489	16485
911.604	16489
911.718	16341
911.833	16284
911.947	16177
912.062	16166
912.176	16348
912.291	16291
912.405	16310
912.519	16550
912.633	16436
912.748	16367
912.862	16242
912.976	16090
913.09	16040
913.204	16097
913.318	16048
913.431	16230
913.545	16116
913.659	16139
913.772	16078
913.886	15911
914	15964
914.113	15903
914.226	16017
914.34	16029
914.453	15819
914.566	15937
914.68	15766
914.793	15751
914.906	15523
915.019	15496
915.132	15435
915.245	15492
915.358	15431
915.47	15469
915.583	15557
915.696	15469
915.809	15576
915.921	15572
916.034	15397
916.146	15378
916.259	15260
916.371	15447
916.483	15416
916.595	15222
916.708	15310
916.82	15336
916.932	15268
917.044	15241
917.156	15241
917.268	15127
917.38	15180
917.491	15066
917.603	15146
917.715	15207
917.826	15188
917.938	15203
918.049	14975
918.161	15058
918.272	15180
918.384	15195
918.495	15146
918.606	14891
918.717	14906
918.828	14929
918.939	14948
919.05	14705
919.161	14811
919.272	14724
919.383	14754
919.494	14857
919.604	15074
919.715	14868
919.826	14781
919.936	14754
920.047	14880
920.157	14838
920.267	14998
920.378	14857
920.488	14857
920.598	15013
920.708	15062
920.818	14876
920.928	14918
921.038	15127
921.148	14986
921.258	14788
921.368	14636
921.477	14659
921.587	14457
921.697	14412
921.806	14492
921.916	14396
922.025	14210
922.134	14218
922.244	14149
922.353	14161
922.462	14077
922.571	13974
922.68	13925
922.789	13784
922.898	13890
923.007	13780
923.116	13868
923.224	13769
923.333	13727
923.442	13738
923.55	13685
923.659	13712
923.767	13708
923.876	13540
923.984	13689
924.092	13582
924.201	13518
924.309	13559
924.417	13582
924.525	13453
924.633	13518
924.741	14221
924.849	13301
924.956	13388
925.064	13285
925.172	13213
925.279	13179
925.387	13274
925.494	13217
925.602	13324
925.709	13221
925.816	13198
925.924	13270
926.031	13266
926.138	13179
926.245	13213
926.352	13133
926.459	13232
926.566	13190
926.673	13103
926.779	13015
926.886	13091
926.993	12882
927.099	12764
927.206	12760
927.312	12753
927.419	12795
927.525	12753
927.631	12867
927.737	12669
927.843	12688
927.95	12521
928.056	12631
928.162	12589
928.267	12677
928.373	13171
928.479	12646
928.585	12437
928.69	12620
928.796	12608
928.901	12555
929.007	12266
929.112	12433
929.218	12498
929.323	12418
929.428	12292
929.533	12448
929.638	12190
929.743	12361
929.848	12273
929.953	12300
930.058	12228
930.163	11965
930.267	12011
930.372	12098
930.477	11973
930.581	12194
930.685	12114
930.79	11958
930.894	11901
930.998	11931
931.103	11904
931.207	11642
931.311	11623
931.415	11509
931.519	11258
931.623	11258
