Data from test_V78500241_3159.txt Node
Date: Fri Mar 25 16:03:41 CST 2022
User: usil
Spectrometer: V785-0024
Trigger mode: 0
Integration Time (sec): 4.000000E-1
Scans to average: 1
Nonlinearity correction enabled: false
Boxcar width: 0
Storing dark spectrum: false
XAxis mode: Wavelengths
Number of Pixels in Spectrum: 1024
>>>>>Begin Spectral Data<<<<<
801.071	28516
801.214	28443
801.356	28352
801.499	28188
801.641	28082
801.783	28219
801.926	28093
802.068	28010
802.211	27979
802.353	28002
802.496	27835
802.638	27854
802.78	27759
802.923	27694
803.065	27656
803.208	27755
803.35	27789
803.492	27926
803.635	27979
803.777	27926
803.919	28048
804.061	28344
804.204	28116
804.346	28036
804.488	27838
804.63	27987
804.773	27941
804.915	28048
805.057	28169
805.199	28044
805.341	28070
805.483	28192
805.626	28135
805.768	28082
805.91	28002
806.052	28272
806.194	28139
806.336	28352
806.478	28238
806.62	28219
806.762	28200
806.904	28303
807.046	28702
807.188	28603
807.33	28630
807.472	28622
807.614	28599
807.756	28713
807.898	28443
808.04	28424
808.182	28421
808.324	28443
808.465	28546
808.607	28706
808.749	28843
808.891	29003
809.033	29041
809.174	28896
809.316	28797
809.458	28805
809.6	28778
809.741	28961
809.883	29033
810.025	29136
810.166	29056
810.308	29174
810.45	29041
810.591	29090
810.733	28923
810.875	28790
811.016	28752
811.158	28850
811.299	28881
811.441	28949
811.582	28995
811.724	28733
811.865	28885
812.007	28972
812.148	28866
812.29	28858
812.431	28858
812.573	29318
812.714	29227
812.855	29474
812.997	29318
813.138	29528
813.279	29425
813.421	29452
813.562	29296
813.703	29181
813.845	29022
813.986	28847
814.127	28672
814.268	28584
814.41	28497
814.551	28508
814.692	28656
814.833	28470
814.974	28519
815.115	28599
815.256	28440
815.397	28382
815.539	28447
815.68	28325
815.821	28185
815.962	28390
816.103	28287
816.244	28287
816.385	28188
816.526	28147
816.666	28010
816.807	27770
816.948	27876
817.089	28059
817.23	27945
817.371	27724
817.512	27835
817.653	27914
817.793	27854
817.934	27960
818.075	27827
818.216	27918
818.356	27804
818.497	27819
818.638	27549
818.778	27667
818.919	27561
819.06	27759
819.2	27774
819.341	27793
819.481	27823
819.622	27914
819.762	28143
819.903	28253
820.043	27907
820.184	27983
820.324	27831
820.465	28021
820.605	27968
820.746	27945
820.886	27774
821.026	27911
821.167	27968
821.307	28021
821.447	27895
821.588	27686
821.728	27701
821.868	27576
822.008	27272
822.149	27443
822.289	27401
822.429	27108
822.569	27085
822.709	27051
822.849	26960
822.99	26830
823.13	26777
823.27	26845
823.41	26648
823.55	26701
823.69	26701
823.83	26598
823.97	26651
824.11	26434
824.25	26377
824.389	26526
824.529	26473
824.669	26526
824.809	26644
824.949	26488
825.089	26594
825.228	26629
825.368	26278
825.508	26282
825.648	26480
825.787	26309
825.927	26450
826.067	26370
826.206	26408
826.346	26427
826.485	26537
826.625	26381
826.765	26476
826.904	26415
827.044	26130
827.183	26187
827.323	26069
827.462	26107
827.601	26111
827.741	26092
827.88	26138
828.02	25868
828.159	26081
828.298	26134
828.437	26107
828.577	25894
828.716	26134
828.855	25860
828.994	25845
829.134	25674
829.273	25811
829.412	25818
829.551	25746
829.69	25670
829.829	25776
829.968	25814
830.107	25753
830.246	25719
830.385	25727
830.524	25746
830.663	25540
830.802	25502
830.941	25415
831.08	25324
831.219	25518
831.357	25559
831.496	25537
831.635	25320
831.774	25304
831.913	25251
832.051	25213
832.19	25270
832.329	25209
832.467	25084
832.606	24943
832.744	24977
832.883	24966
833.022	25012
833.16	25050
833.299	25175
833.437	24985
833.576	25232
833.714	24985
833.852	25209
833.991	25339
834.129	25141
834.267	25012
834.406	25019
834.544	25247
834.682	25042
834.821	25057
834.959	25217
835.097	25012
835.235	25015
835.373	25072
835.511	25160
835.65	24844
835.788	25000
835.926	24719
836.064	24814
836.202	24681
836.34	24901
836.478	24920
836.615	24996
836.753	24958
836.891	25053
837.029	24939
837.167	24856
837.305	24806
837.443	24749
837.58	24829
837.718	24840
837.856	24779
837.993	24730
838.131	24711
838.269	24684
838.406	24574
838.544	24692
838.681	24407
838.819	24285
838.956	24277
839.094	24330
839.231	24292
839.369	24330
839.506	24646
839.643	24494
839.781	24228
839.918	24174
840.055	24262
840.193	24148
840.33	24083
840.467	24213
840.604	24273
840.742	24532
840.879	23980
841.016	23973
841.153	24140
841.29	24258
841.427	24076
841.564	24133
841.701	24159
841.838	23973
841.975	23992
842.112	24030
842.249	24068
842.385	23954
842.522	24072
842.659	23897
842.796	23771
842.933	23961
843.069	23931
843.206	23901
843.343	23805
843.479	23939
843.616	23923
843.752	23729
843.889	23672
844.025	23642
844.162	23566
844.298	23843
844.435	23695
844.571	23714
844.708	23847
844.844	23866
844.98	23779
845.117	23828
845.253	23653
845.389	23615
845.525	23623
845.661	23566
845.798	23414
845.934	23543
846.07	23360
846.206	23482
846.342	23539
846.478	23391
846.614	23250
846.75	23124
846.886	23102
847.022	23136
847.158	23136
847.294	23216
847.429	23197
847.565	23162
847.701	23421
847.837	22816
847.972	22877
848.108	23060
848.244	22877
848.379	22858
848.515	22790
848.65	22774
848.786	22637
848.921	22790
849.057	22900
849.192	22782
849.328	22953
849.463	22831
849.598	22596
849.734	22675
849.869	22573
850.004	22531
850.14	22557
850.275	22588
850.41	22474
850.545	22451
850.68	22394
850.815	22493
850.95	22322
851.085	22713
851.22	22565
851.355	22618
851.49	22508
851.625	22451
851.76	22371
851.895	22447
852.03	22409
852.165	22470
852.299	22481
852.434	22485
852.569	22508
852.703	22356
852.838	22561
852.973	22755
853.107	22557
853.242	22443
853.376	22394
853.511	22207
853.645	22291
853.78	22291
853.914	22428
854.048	22303
854.183	22371
854.317	22291
854.451	22466
854.585	22306
854.72	22371
854.854	22466
854.988	22249
855.122	22325
855.256	22322
855.39	22265
855.524	22344
855.658	22440
855.792	22226
855.926	22363
856.06	22417
856.194	22375
856.327	22356
856.461	22314
856.595	22280
856.729	22192
856.862	22417
856.996	22398
857.13	22386
857.263	22405
857.397	22382
857.53	22310
857.664	22333
857.797	22318
857.931	22481
858.064	22284
858.197	22379
858.331	22276
858.464	22192
858.597	22158
858.731	22192
858.864	22242
858.997	22287
859.13	22375
859.263	22329
859.396	22428
859.529	22272
859.662	22272
859.795	22238
859.928	22295
860.061	22451
860.194	22447
860.327	22325
860.46	22272
860.592	22424
860.725	22523
860.858	22443
860.99	22291
861.123	22265
861.256	22265
861.388	22314
861.521	23037
861.653	22169
861.786	22120
861.918	22147
862.05	22242
862.183	22246
862.315	22086
862.447	22276
862.58	22291
862.712	22158
862.844	21930
862.976	22280
863.108	22010
863.24	22337
863.372	21968
863.504	21972
863.636	21987
863.768	22055
863.9	21918
864.032	21888
864.164	22006
864.296	21998
864.428	22074
864.559	22044
864.691	22074
864.823	22036
864.954	22006
865.086	22025
865.217	21850
865.349	21842
865.48	21861
865.612	21884
865.743	21994
865.875	21838
866.006	21903
866.137	21998
866.269	21941
866.4	21755
866.531	21812
866.662	21857
866.793	21819
866.924	21831
867.055	21831
867.186	21865
867.317	21850
867.448	21713
867.579	21915
867.71	21789
867.841	21819
867.972	21884
868.103	21781
868.233	21884
868.364	21785
868.495	21930
868.625	22177
868.756	22242
868.886	22101
869.017	22128
869.147	22173
869.278	22185
869.408	22051
869.539	22097
869.669	22200
869.799	22204
869.929	22207
870.06	22162
870.19	22428
870.32	22329
870.45	22314
870.58	22386
870.71	22565
870.84	22519
870.97	22512
871.1	22371
871.23	22630
871.36	22736
871.489	22580
871.619	22573
871.749	22573
871.879	22759
872.008	22744
872.138	22767
872.267	22672
872.397	22557
872.526	22550
872.656	22375
872.785	22557
872.915	22691
873.044	22729
873.173	22653
873.303	22843
873.432	22675
873.561	22733
873.69	22630
873.819	22755
873.948	22824
874.077	22691
874.206	22653
874.335	22698
874.464	22843
874.593	22942
874.722	22942
874.851	23060
874.979	22968
875.108	22896
875.237	22877
875.365	22824
875.494	22873
875.623	22968
875.751	22938
875.88	23037
876.008	23048
876.136	23151
876.265	23330
876.393	23387
876.521	23486
876.65	23341
876.778	23356
876.906	23193
877.034	23265
877.162	23299
877.29	23170
877.418	23315
877.546	23208
877.674	23284
877.802	23220
877.93	23288
878.058	23250
878.185	23178
878.313	23216
878.441	23162
878.568	22934
878.696	23261
878.824	23197
878.951	23311
879.079	23383
879.206	23531
879.333	23372
879.461	23440
879.588	23326
879.715	23452
879.842	23562
879.97	23296
880.097	23048
880.224	23083
880.351	23136
880.478	23067
880.605	23083
880.732	22923
880.859	23231
880.986	23147
881.112	23056
881.239	22957
881.366	22812
881.493	22759
881.619	22588
881.746	22706
881.872	22679
881.999	22569
882.125	22569
882.252	22710
882.378	22710
882.505	22607
882.631	22432
882.757	22409
882.883	22265
883.01	22344
883.136	22219
883.262	22223
883.388	22112
883.514	22417
883.64	22295
883.766	22204
883.892	22150
884.018	22154
884.143	22211
884.269	22306
884.395	21945
884.52	21869
884.646	21975
884.772	21911
884.897	21827
885.023	22044
885.148	22093
885.274	22109
885.399	21987
885.524	21991
885.65	21941
885.775	21888
885.9	21831
886.025	21979
886.15	22017
886.275	21778
886.4	21979
886.525	21895
886.65	21793
886.775	21880
886.9	22120
887.025	22211
887.149	21857
887.274	21766
887.399	21732
887.523	21686
887.648	21538
887.773	21663
887.897	21857
888.021	21793
888.146	21648
888.27	21838
888.395	21736
888.519	21789
888.643	21797
888.767	21831
888.891	21603
889.015	21431
889.139	21511
889.263	21408
889.387	21606
889.511	21743
889.635	21614
889.759	21462
889.883	21469
890.006	21606
890.13	21644
890.254	21412
890.377	21401
890.501	21272
890.624	21195
890.748	21180
890.871	21051
890.995	21081
891.118	20998
891.241	21077
891.364	21089
891.488	21222
891.611	21112
891.734	21055
891.857	21142
891.98	21001
892.103	21096
892.226	20952
892.349	20948
892.471	20971
892.594	21028
892.717	20956
892.839	20990
892.962	20963
893.085	20975
893.207	20944
893.33	20834
893.452	20929
893.575	20967
893.697	20929
893.819	21165
893.941	21169
894.064	21123
894.186	20845
894.308	20872
894.43	21081
894.552	21085
894.674	21138
894.796	20853
894.918	20834
895.04	20883
895.161	21058
895.283	20925
895.405	20971
895.526	20948
895.648	20861
895.769	20925
895.891	20952
896.012	20921
896.134	20921
896.255	20910
896.376	20815
896.498	20967
896.619	20857
896.74	20785
896.861	20845
896.982	21169
897.103	21481
897.224	21188
897.345	21127
897.466	21077
897.587	21081
897.708	21135
897.828	21192
897.949	21104
898.07	20899
898.19	21085
898.311	21291
898.431	21104
898.552	21173
898.672	21291
898.792	21275
898.913	21176
899.033	21047
899.153	20990
899.273	20861
899.393	20845
899.513	20944
899.633	20883
899.753	20834
899.873	20864
899.993	20914
900.113	20807
900.232	20739
900.352	20632
900.472	20682
900.591	20670
900.711	20762
900.83	20617
900.95	20693
901.069	20724
901.189	20594
901.308	20161
901.427	20176
901.546	20164
901.665	20187
901.784	20267
901.904	20050
902.023	20058
902.141	19776
902.26	19757
902.379	19803
902.498	19780
902.617	19750
902.735	19776
902.854	19582
902.973	19609
903.091	19407
903.21	19415
903.328	19491
903.446	19274
903.565	19114
903.683	19293
903.801	19145
903.919	19110
904.038	19080
904.156	18932
904.274	19012
904.392	18745
904.51	18829
904.627	18878
904.745	18993
904.863	18966
904.981	18719
905.098	18620
905.216	18566
905.334	18639
905.451	18525
905.569	18688
905.686	18639
905.803	18551
905.921	18407
906.038	18475
906.155	18494
906.272	18388
906.389	18330
906.506	18068
906.623	18144
906.74	18060
906.857	18053
906.974	17965
907.091	18155
907.208	18228
907.324	18060
907.441	18068
907.557	17836
907.674	17832
907.79	17870
907.907	17798
908.023	17805
908.139	17828
908.256	17745
908.372	17752
908.488	17661
908.604	17570
908.72	17478
908.836	17585
908.952	17440
909.068	17611
909.184	17585
909.3	17490
909.415	17562
909.531	17592
909.647	17356
909.762	17330
909.878	17254
909.993	17185
910.108	17136
910.224	17189
910.339	17185
910.454	17102
910.57	17067
910.685	16965
910.8	17315
910.915	17246
911.03	17056
911.145	16763
911.259	16843
911.374	16930
911.489	16812
911.604	16752
911.718	16577
911.833	16527
911.947	16371
912.062	16386
912.176	16641
912.291	16675
912.405	16504
912.519	16713
912.633	16660
912.748	16599
912.862	16599
912.976	16413
913.09	16333
913.204	16341
913.318	16428
913.431	16519
913.545	16500
913.659	16584
913.772	16402
913.886	16173
914	16188
914.113	16158
914.226	16363
914.34	16276
914.453	16036
914.566	16048
914.68	16055
914.793	16101
914.906	15823
915.019	15789
915.132	15827
915.245	15713
915.358	15751
915.47	15789
915.583	15755
915.696	15728
915.809	15930
915.921	15892
916.034	15774
916.146	15732
916.259	15603
916.371	15690
916.483	15675
916.595	15511
916.708	15591
916.82	15652
916.932	15564
917.044	15568
917.156	15447
917.268	15420
917.38	15351
917.491	15344
917.603	15397
917.715	15488
917.826	15454
917.938	15351
918.049	15173
918.161	15363
918.272	15420
918.384	15424
918.495	15249
918.606	15100
918.717	15104
918.828	15154
918.939	15138
919.05	14982
919.161	15192
919.272	14906
919.383	14982
919.494	15043
919.604	15252
919.715	15131
919.826	14982
919.936	15024
920.047	15184
920.157	15123
920.267	15218
920.378	15032
920.488	15058
920.598	15317
920.708	15351
920.818	15222
920.928	15256
921.038	15332
921.148	15275
921.258	14952
921.368	14826
921.477	14895
921.587	14861
921.697	14640
921.806	14765
921.916	14640
922.025	14594
922.134	14442
922.244	14358
922.353	14530
922.462	14286
922.571	14164
922.68	14123
922.789	14103
922.898	14123
923.007	14081
923.116	14050
923.224	14035
923.333	13940
923.442	13883
923.55	13932
923.659	13917
923.767	14031
923.876	13890
923.984	13917
924.092	13822
924.201	13845
924.309	13852
924.417	13719
924.525	13784
924.633	13765
924.741	14434
924.849	13552
924.956	13670
925.064	13495
925.172	13480
925.279	13483
925.387	13548
925.494	13499
925.602	13537
925.709	13533
925.816	13392
925.924	13381
926.031	13400
926.138	13377
926.245	13426
926.352	13354
926.459	13472
926.566	13483
926.673	13320
926.779	13179
926.886	13145
926.993	13038
927.099	13000
927.206	12973
927.312	12962
927.419	12977
927.525	12989
927.631	12981
927.737	12878
927.843	12798
927.95	12700
928.056	12817
928.162	12825
928.267	12791
928.373	13472
928.479	12878
928.585	12616
928.69	12768
928.796	12863
928.901	12673
929.007	12616
929.112	12688
929.218	12692
929.323	12582
929.428	12498
929.533	12627
929.638	12437
929.743	12395
929.848	12502
929.953	12528
930.058	12365
930.163	12224
930.267	12155
930.372	12308
930.477	12228
930.581	12308
930.685	12262
930.79	12106
930.894	12049
930.998	12003
931.103	12125
931.207	11866
931.311	11733
931.415	11699
931.519	11497
931.623	11433
