Data from test_V78500241_3479.txt Node
Date: Fri Mar 25 16:05:54 CST 2022
User: usil
Spectrometer: V785-0024
Trigger mode: 0
Integration Time (sec): 4.000000E-1
Scans to average: 1
Nonlinearity correction enabled: false
Boxcar width: 0
Storing dark spectrum: false
XAxis mode: Wavelengths
Number of Pixels in Spectrum: 1024
>>>>>Begin Spectral Data<<<<<
801.071	29147
801.214	29094
801.356	28793
801.499	28824
801.641	28656
801.783	28748
801.926	28759
802.068	28626
802.211	28626
802.353	28573
802.496	28508
802.638	28436
802.78	28512
802.923	28322
803.065	28379
803.208	28291
803.35	28443
803.492	28656
803.635	28565
803.777	28538
803.919	28634
804.061	28961
804.204	28664
804.346	28489
804.488	28493
804.63	28527
804.773	28618
804.915	28691
805.057	28976
805.199	28729
805.341	28656
805.483	28839
805.626	28748
805.768	28740
805.91	28824
806.052	28900
806.194	28752
806.336	29006
806.478	28835
806.62	28976
806.762	29010
806.904	29124
807.046	29292
807.188	29311
807.33	29303
807.472	29273
807.614	29220
807.756	29208
807.898	29197
808.04	29166
808.182	29075
808.324	29193
808.465	29341
808.607	29307
808.749	29448
808.891	29691
809.033	29741
809.174	29528
809.316	29375
809.458	29482
809.6	29429
809.741	29661
809.883	29554
810.025	29817
810.166	29836
810.308	29794
810.45	29707
810.591	29619
810.733	29668
810.875	29505
811.016	29444
811.158	29566
811.299	29752
811.441	29756
811.582	29611
811.724	29444
811.865	29551
812.007	29630
812.148	29676
812.29	29619
812.431	29859
812.573	29745
812.714	30079
812.855	30106
812.997	30163
813.138	30140
813.279	30190
813.421	30136
813.562	29923
813.703	29996
813.845	29828
813.986	29497
814.127	29349
814.268	29273
814.41	29337
814.551	29311
814.692	29345
814.833	29159
814.974	29482
815.115	29398
815.256	29212
815.397	29140
815.539	29189
815.68	29124
815.821	29041
815.962	29067
816.103	29090
816.244	28991
816.385	28805
816.526	28953
816.666	28607
816.807	28626
816.948	28740
817.089	28641
817.23	28596
817.371	28679
817.512	28554
817.653	28504
817.793	28615
817.934	28592
818.075	28596
818.216	28504
818.356	28668
818.497	28615
818.638	28443
818.778	28405
818.919	28272
819.06	28573
819.2	28603
819.341	28599
819.481	28649
819.622	28805
819.762	28999
819.903	28927
820.043	28892
820.184	28721
820.324	28759
820.465	28862
820.605	28881
820.746	28771
820.886	28634
821.026	28713
821.167	28713
821.307	28694
821.447	28546
821.588	28508
821.728	28394
821.868	28116
822.008	28131
822.149	28139
822.289	27945
822.429	27873
822.569	27850
822.709	27743
822.849	27614
822.99	27622
823.13	27648
823.27	27538
823.41	27485
823.55	27351
823.69	27458
823.83	27344
823.97	27469
824.11	27355
824.25	27256
824.389	27237
824.529	27325
824.669	27351
824.809	27378
824.949	27443
825.089	27351
825.228	27321
825.368	27195
825.508	26986
825.648	27298
825.787	27116
825.927	27306
826.067	27252
826.206	27252
826.346	27298
826.485	27287
826.625	27283
826.765	27245
826.904	27268
827.044	26914
827.183	26979
827.323	26937
827.462	26952
827.601	26940
827.741	26880
827.88	26853
828.02	26705
828.159	26842
828.298	26899
828.437	26933
828.577	26823
828.716	26944
828.855	26918
828.994	26568
829.134	26549
829.273	26667
829.412	26549
829.551	26393
829.69	26484
829.829	26461
829.968	26621
830.107	26568
830.246	26712
830.385	26465
830.524	26450
830.663	26370
830.802	26233
830.941	26138
831.08	26122
831.219	26286
831.357	26336
831.496	26328
831.635	26290
831.774	26199
831.913	26126
832.051	25978
832.19	25974
832.329	25986
832.467	25780
832.606	25852
832.744	25803
832.883	25799
833.022	25738
833.16	25776
833.299	25921
833.437	25982
833.576	26008
833.714	25887
833.852	26035
833.991	25947
834.129	25966
834.267	26024
834.406	25753
834.544	26062
834.682	25894
834.821	25860
834.959	25791
835.097	25978
835.235	25879
835.373	25868
835.511	26096
835.65	25803
835.788	25837
835.926	25635
836.064	25510
836.202	25487
836.34	25864
836.478	25913
836.615	25639
836.753	25852
836.891	25830
837.029	25833
837.167	25723
837.305	25662
837.443	25719
837.58	25582
837.718	25590
837.856	25639
837.993	25563
838.131	25514
838.269	25407
838.406	25510
838.544	25472
838.681	25171
838.819	25061
838.956	25012
839.094	25015
839.231	25034
839.369	25263
839.506	25415
839.643	25263
839.781	25080
839.918	24951
840.055	25107
840.193	24935
840.33	24817
840.467	24973
840.604	24996
840.742	25320
840.879	24852
841.016	24791
841.153	24776
841.29	24913
841.427	24909
841.564	24943
841.701	24825
841.838	25000
841.975	24654
842.112	24833
842.249	24688
842.385	24681
842.522	24989
842.659	24673
842.796	24779
842.933	24627
843.069	24631
843.206	24593
843.343	24749
843.479	24738
843.616	24757
843.752	24597
843.889	24357
844.025	24525
844.162	24346
844.298	24509
844.435	24528
844.571	24418
844.708	24563
844.844	24547
844.98	24407
845.117	24547
845.253	24319
845.389	24338
845.525	24277
845.661	24258
845.798	24285
845.934	24311
846.07	24087
846.206	24323
846.342	24403
846.478	24117
846.614	23977
846.75	23840
846.886	23920
847.022	23954
847.158	23893
847.294	23923
847.429	24079
847.565	23866
847.701	24144
847.837	23573
847.972	23516
848.108	23642
848.244	23657
848.379	23589
848.515	23478
848.65	23402
848.786	23391
848.921	23478
849.057	23642
849.192	23627
849.328	23493
849.463	23505
849.598	23387
849.734	23337
849.869	23284
850.004	23155
850.14	23383
850.275	23258
850.41	23140
850.545	23155
850.68	23117
850.815	23269
850.95	23200
851.085	23440
851.22	23376
851.355	23387
851.49	23387
851.625	23315
851.76	23239
851.895	23132
852.03	23132
852.165	23193
852.299	23330
852.434	23288
852.569	23242
852.703	23189
852.838	23261
852.973	23372
853.107	23322
853.242	23254
853.376	23143
853.511	22858
853.645	23048
853.78	23273
853.914	23083
854.048	22942
854.183	23109
854.317	23105
854.451	23265
854.585	22892
854.72	23064
854.854	23204
854.988	23136
855.122	23094
855.256	22949
855.39	23083
855.524	23220
855.658	23079
855.792	23052
855.926	23109
856.06	23060
856.194	23098
856.327	22987
856.461	22904
856.595	23083
856.729	23090
856.862	23121
856.996	23075
857.13	23098
857.263	23162
857.397	23079
857.53	22934
857.664	23025
857.797	23155
857.931	23322
858.064	23006
858.197	23162
858.331	23006
858.464	23022
858.597	22877
858.731	23056
858.864	23143
858.997	23044
859.13	23010
859.263	23003
859.396	23170
859.529	23090
859.662	23109
859.795	23022
859.928	23064
860.061	23250
860.194	23288
860.327	23155
860.46	23086
860.592	23117
860.725	23117
860.858	23212
860.99	23181
861.123	22999
861.256	22987
861.388	23041
861.521	23714
861.653	22835
861.786	22987
861.918	23006
862.05	22854
862.183	22999
862.315	23083
862.447	23003
862.58	22972
862.712	22809
862.844	22858
862.976	22740
863.108	22843
863.24	23033
863.372	22938
863.504	22805
863.636	22790
863.768	22672
863.9	22858
864.032	22736
864.164	22675
864.296	22816
864.428	22850
864.559	22763
864.691	22877
864.823	22759
864.954	22717
865.086	22816
865.217	22694
865.349	22645
865.48	22637
865.612	22645
865.743	22816
865.875	22630
866.006	22535
866.137	22626
866.269	22713
866.4	22603
866.531	22550
866.662	22466
866.793	22561
866.924	22596
867.055	22535
867.186	22653
867.317	22531
867.448	22508
867.579	22485
867.71	22428
867.841	22466
867.972	22523
868.103	22542
868.233	22561
868.364	22729
868.495	22721
868.625	22748
868.756	22968
868.886	22660
869.017	22812
869.147	22919
869.278	22847
869.408	22938
869.539	22679
869.669	22847
869.799	22923
869.929	22953
870.06	22934
870.19	23060
870.32	23060
870.45	23075
870.58	23269
870.71	23383
870.84	23212
870.97	23261
871.1	23136
871.23	23246
871.36	23410
871.489	23250
871.619	23318
871.749	23292
871.879	23398
872.008	23459
872.138	23376
872.267	23334
872.397	23296
872.526	23242
872.656	23200
872.785	23239
872.915	23417
873.044	23440
873.173	23398
873.303	23398
873.432	23478
873.561	23471
873.69	23471
873.819	23341
873.948	23611
874.077	23425
874.206	23414
874.335	23417
874.464	23505
874.593	23703
874.722	23581
874.851	23756
874.979	23748
875.108	23703
875.237	23524
875.365	23444
875.494	23619
875.623	23653
875.751	23657
875.88	23638
876.008	23866
876.136	23779
876.265	24148
876.393	24228
876.521	24209
876.65	24144
876.778	24049
876.906	23923
877.034	23958
877.162	24072
877.29	23828
877.418	23958
877.546	23935
877.674	24026
877.802	23843
877.93	24015
878.058	23920
878.185	23767
878.313	23866
878.441	23908
878.568	23794
878.696	23741
878.824	23958
878.951	23954
879.079	24125
879.206	24239
879.333	24076
879.461	23988
879.588	24022
879.715	24091
879.842	24171
879.97	23927
880.097	23809
880.224	23828
880.351	23859
880.478	23908
880.605	23764
880.732	23726
880.859	24095
880.986	23687
881.112	23680
881.239	23714
881.366	23520
881.493	23444
881.619	23467
881.746	23261
881.872	23410
881.999	23356
882.125	23231
882.252	23277
882.378	23326
882.505	23353
882.631	23083
882.757	23109
882.883	23140
883.01	23029
883.136	23098
883.262	22782
883.388	22816
883.514	23022
883.64	22949
883.766	22911
883.892	22881
884.018	22820
884.143	22980
884.269	23094
884.395	22672
884.52	22557
884.646	22729
884.772	22649
884.897	22645
885.023	22596
885.148	22866
885.274	22672
885.399	22698
885.524	22637
885.65	22710
885.775	22596
885.9	22710
886.025	22713
886.15	22626
886.275	22607
886.4	22611
886.525	22649
886.65	22527
886.775	22432
886.9	22698
887.025	22752
887.149	22679
887.274	22394
887.399	22337
887.523	22409
887.648	22405
887.773	22272
887.897	22531
888.021	22371
888.146	22341
888.27	22497
888.395	22455
888.519	22367
888.643	22344
888.767	22379
888.891	22329
889.015	22219
889.139	22306
889.263	22147
889.387	22200
889.511	22356
889.635	22223
889.759	22234
889.883	22086
890.006	22181
890.13	22204
890.254	22029
890.377	22029
890.501	22139
890.624	21930
890.748	21865
890.871	21766
890.995	21770
891.118	21523
891.241	21690
891.364	21713
891.488	21671
891.611	21766
891.734	21660
891.857	21789
891.98	21701
892.103	21709
892.226	21625
892.349	21690
892.471	21450
892.594	21724
892.717	21564
892.839	21633
892.962	21728
893.085	21614
893.207	21561
893.33	21488
893.452	21488
893.575	21652
893.697	21641
893.819	21827
893.941	21778
894.064	21816
894.186	21523
894.308	21420
894.43	21660
894.552	21709
894.674	21534
894.796	21412
894.918	21618
895.04	21500
895.161	21606
895.283	21648
895.405	21519
895.526	21606
895.648	21538
895.769	21698
895.891	21561
896.012	21618
896.134	21515
896.255	21564
896.376	21473
896.498	21580
896.619	21477
896.74	21538
896.861	21515
896.982	21895
897.103	22017
897.224	21709
897.345	21713
897.466	21724
897.587	21804
897.708	21922
897.828	21739
897.949	21694
898.07	21557
898.19	21663
898.311	21789
898.431	21686
898.552	21781
898.672	21682
898.792	21800
898.913	21785
899.033	21591
899.153	21462
899.273	21443
899.393	21443
899.513	21545
899.633	21435
899.753	21492
899.873	21351
899.993	21519
900.113	21374
900.232	21500
900.352	21329
900.472	21348
900.591	21211
900.711	21313
900.83	21116
900.95	21252
901.069	21291
901.189	21138
901.308	20845
901.427	20758
901.546	20720
901.665	20792
901.784	20674
901.904	20667
902.023	20590
902.141	20484
902.26	20343
902.379	20381
902.498	20195
902.617	20259
902.735	20324
902.854	20210
902.973	20309
903.091	19967
903.21	19989
903.328	19822
903.446	19898
903.565	19818
903.683	19860
903.801	19632
903.919	19708
904.038	19658
904.156	19590
904.274	19620
904.392	19392
904.51	19518
904.627	19400
904.745	19597
904.863	19449
904.981	19422
905.098	19190
905.216	19175
905.334	19278
905.451	19107
905.569	19122
905.686	19289
905.803	19225
905.921	18859
906.038	18993
906.155	18867
906.272	18890
906.389	18840
906.506	18669
906.623	18604
906.74	18650
906.857	18551
906.974	18471
907.091	18684
907.208	18859
907.324	18631
907.441	18604
907.557	18441
907.674	18403
907.79	18300
907.907	18273
908.023	18471
908.139	18410
908.256	18296
908.372	18251
908.488	18266
908.604	18178
908.72	18140
908.836	18083
908.952	17992
909.068	18117
909.184	18159
909.3	17965
909.415	18045
909.531	18098
909.647	17802
909.762	17859
909.878	17699
909.993	17805
910.108	17802
910.224	17707
910.339	17813
910.454	17661
910.57	17604
910.685	17364
910.8	17634
910.915	17733
911.03	17539
911.145	17486
911.259	17349
911.374	17376
911.489	17303
911.604	17277
911.718	17018
911.833	17121
911.947	16980
912.062	16873
912.176	17075
912.291	17128
912.405	17033
912.519	17303
912.633	17299
912.748	16987
912.862	17113
912.976	17003
913.09	16801
913.204	16889
913.318	16892
913.431	17014
913.545	16889
913.659	16972
913.772	16759
913.886	16675
914	16778
914.113	16706
914.226	16733
914.34	16645
914.453	16577
914.566	16721
914.68	16535
914.793	16516
914.906	16303
915.019	16280
915.132	16188
915.245	16158
915.358	16287
915.47	16337
915.583	16265
915.696	16352
915.809	16322
915.921	16325
916.034	16169
916.146	16131
916.259	16196
916.371	16109
916.483	16116
916.595	16040
916.708	16032
916.82	16040
916.932	16032
917.044	15937
917.156	16036
917.268	15884
917.38	15880
917.491	15793
917.603	15892
917.715	15789
917.826	15911
917.938	15698
918.049	15663
918.161	15854
918.272	15975
918.384	15934
918.495	15800
918.606	15606
918.717	15599
918.828	15542
918.939	15507
919.05	15447
919.161	15576
919.272	15401
919.383	15393
919.494	15549
919.604	15690
919.715	15580
919.826	15443
919.936	15431
920.047	15572
920.157	15515
920.267	15720
920.378	15507
920.488	15332
920.598	15755
920.708	15770
920.818	15641
920.928	15599
921.038	15751
921.148	15812
921.258	15458
921.368	15428
921.477	15184
921.587	15203
921.697	15154
921.806	15287
921.916	15093
922.025	14994
922.134	14883
922.244	14785
922.353	14944
922.462	14674
922.571	14678
922.68	14480
922.789	14473
922.898	14503
923.007	14473
923.116	14495
923.224	14457
923.333	14526
923.442	14301
923.55	14271
923.659	14419
923.767	14358
923.876	14305
923.984	14339
924.092	14172
924.201	14278
924.309	14199
924.417	14271
924.525	14142
924.633	14134
924.741	14914
924.849	13864
924.956	14016
925.064	13902
925.172	13868
925.279	13898
925.387	13894
925.494	13795
925.602	13978
925.709	13902
925.816	13700
925.924	13769
926.031	13890
926.138	13784
926.245	13841
926.352	13761
926.459	13864
926.566	13894
926.673	13723
926.779	13552
926.886	13723
926.993	13384
927.099	13449
927.206	13289
927.312	13251
927.419	13434
927.525	13445
927.631	13434
927.737	13255
927.843	13183
927.95	13027
928.056	13213
928.162	13198
928.267	13171
928.373	13826
928.479	13187
928.585	13027
928.69	13194
928.796	13228
928.901	13034
929.007	12840
929.112	13050
929.218	13000
929.323	12916
929.428	12954
929.533	12985
929.638	12810
929.743	12844
929.848	12996
929.953	12886
930.058	12703
930.163	12578
930.267	12532
930.372	12677
930.477	12521
930.581	12757
930.685	12544
930.79	12353
930.894	12464
930.998	12418
931.103	12517
931.207	12228
931.311	12144
931.415	12019
931.519	11817
931.623	11821
