Data from test_V78500241_1012.txt Node
Date: Fri Mar 25 15:48:48 CST 2022
User: usil
Spectrometer: V785-0024
Trigger mode: 0
Integration Time (sec): 4.000000E-1
Scans to average: 1
Nonlinearity correction enabled: false
Boxcar width: 0
Storing dark spectrum: false
XAxis mode: Wavelengths
Number of Pixels in Spectrum: 1024
>>>>>Begin Spectral Data<<<<<
801.071	28070
801.214	28067
801.356	27827
801.499	27698
801.641	27660
801.783	27610
801.926	27671
802.068	27473
802.211	27610
802.353	27485
802.496	27245
802.638	27367
802.78	27252
802.923	27222
803.065	27131
803.208	27005
803.35	27222
803.492	27435
803.635	27370
803.777	27275
803.919	27507
804.061	27903
804.204	27523
804.346	27431
804.488	27313
804.63	27370
804.773	27313
804.915	27477
805.057	27408
805.199	27325
805.341	27625
805.483	27576
805.626	27462
805.768	27336
805.91	27561
806.052	27405
806.194	27545
806.336	27865
806.478	27583
806.62	27633
806.762	27682
806.904	27880
807.046	28036
807.188	28036
807.33	28032
807.472	28055
807.614	28021
807.756	27979
807.898	27838
808.04	27827
808.182	27819
808.324	27937
808.465	27892
808.607	27934
808.749	28295
808.891	28363
809.033	28295
809.174	28287
809.316	28253
809.458	28230
809.6	28166
809.741	28249
809.883	28295
810.025	28497
810.166	28485
810.308	28485
810.45	28409
810.591	28344
810.733	28185
810.875	28158
811.016	28017
811.158	28272
811.299	28375
811.441	28398
811.582	28504
811.724	28196
811.865	28280
812.007	28398
812.148	28055
812.29	28185
812.431	28310
812.573	28634
812.714	28679
812.855	28820
812.997	28915
813.138	28911
813.279	28930
813.421	28877
813.562	28755
813.703	28497
813.845	28474
813.986	28223
814.127	28036
814.268	27892
814.41	27953
814.551	27876
814.692	27983
814.833	27934
814.974	27831
815.115	27918
815.256	27766
815.397	27842
815.539	27854
815.68	27671
815.821	27720
815.962	27827
816.103	27698
816.244	27656
816.385	27549
816.526	27538
816.666	27245
816.807	27233
816.948	27367
817.089	27363
817.23	27218
817.371	27268
817.512	27283
817.653	27184
817.793	27116
817.934	27226
818.075	27344
818.216	27131
818.356	27112
818.497	27146
818.638	26979
818.778	26979
818.919	27096
819.06	26940
819.2	27150
819.341	27096
819.481	27184
819.622	27374
819.762	27504
819.903	27572
820.043	27500
820.184	27321
820.324	27344
820.465	27420
820.605	27275
820.746	27203
820.886	27264
821.026	27275
821.167	27340
821.307	27397
821.447	27241
821.588	27169
821.728	27112
821.868	26883
822.008	26895
822.149	26705
822.289	26667
822.429	26461
822.569	26381
822.709	26309
822.849	26176
822.99	26142
823.13	26275
823.27	26317
823.41	26107
823.55	25951
823.69	26043
823.83	25997
823.97	26054
824.11	25864
824.25	25753
824.389	25803
824.529	25890
824.669	25860
824.809	25989
824.949	25807
825.089	25875
825.228	26046
825.368	25719
825.508	25746
825.648	25700
825.787	25712
825.927	25734
826.067	25658
826.206	25731
826.346	25772
826.485	25685
826.625	25689
826.765	25837
826.904	25807
827.044	25430
827.183	25525
827.323	25487
827.462	25460
827.601	25384
827.741	25464
827.88	25544
828.02	25343
828.159	25438
828.298	25411
828.437	25514
828.577	25377
828.716	25533
828.855	25411
828.994	25027
829.134	25088
829.273	25107
829.412	25206
829.551	25027
829.69	25156
829.829	25187
829.968	25232
830.107	25126
830.246	25122
830.385	25099
830.524	25110
830.663	25004
830.802	24814
830.941	24707
831.08	24776
831.219	24798
831.357	24798
831.496	24913
831.635	24894
831.774	24734
831.913	24616
832.051	24547
832.19	24566
832.329	24429
832.467	24361
832.606	24311
832.744	24372
832.883	24311
833.022	24311
833.16	24441
833.299	24498
833.437	24540
833.576	24403
833.714	24460
833.852	24559
833.991	24399
834.129	24479
834.267	24452
834.406	24441
834.544	24536
834.682	24445
834.821	24505
834.959	24540
835.097	24304
835.235	24391
835.373	24441
835.511	24483
835.65	24171
835.788	24243
835.926	24205
836.064	24205
836.202	24129
836.34	24414
836.478	24323
836.615	24323
836.753	24369
836.891	24384
837.029	24319
837.167	24270
837.305	24277
837.443	24091
837.58	24072
837.718	24178
837.856	24106
837.993	24072
838.131	24083
838.269	24049
838.406	23996
838.544	23973
838.681	23889
838.819	23760
838.956	23726
839.094	23676
839.231	23657
839.369	23710
839.506	23878
839.643	23813
839.781	23611
839.918	23562
840.055	23608
840.193	23668
840.33	23493
840.467	23539
840.604	23551
840.742	23824
840.879	23436
841.016	23330
841.153	23417
841.29	23718
841.427	23334
841.564	23554
841.701	23425
841.838	23570
841.975	23448
842.112	23398
842.249	23261
842.385	23258
842.522	23402
842.659	23341
842.796	23265
842.933	23284
843.069	23261
843.206	23387
843.343	23387
843.479	23337
843.616	23242
843.752	23014
843.889	23136
844.025	23128
844.162	22995
844.298	23197
844.435	23079
844.571	22938
844.708	23006
844.844	23143
844.98	23174
845.117	23204
845.253	23022
845.389	22881
845.525	22923
845.661	22843
845.798	22588
845.934	22763
846.07	22744
846.206	22694
846.342	22862
846.478	22786
846.614	22599
846.75	22497
846.886	22596
847.022	22615
847.158	22577
847.294	22424
847.429	22497
847.565	22497
847.701	22858
847.837	22219
847.972	22246
848.108	22303
848.244	22272
848.379	22173
848.515	22120
848.65	22101
848.786	22086
848.921	22200
849.057	22093
849.192	22207
849.328	21945
849.463	22032
849.598	22025
849.734	21934
849.869	21804
850.004	21873
850.14	21846
850.275	21838
850.41	21812
850.545	21781
850.68	21781
850.815	21808
850.95	21804
851.085	22090
851.22	21922
851.355	21865
851.49	21728
851.625	21808
851.76	21827
851.895	21732
852.03	21816
852.165	21861
852.299	21975
852.434	21854
852.569	21831
852.703	21888
852.838	22078
852.973	21956
853.107	21960
853.242	21800
853.376	21770
853.511	21507
853.645	21622
853.78	21846
853.914	21633
854.048	21553
854.183	21694
854.317	21720
854.451	21880
854.585	21618
854.72	21671
854.854	21781
854.988	21485
855.122	21591
855.256	21614
855.39	21648
855.524	21694
855.658	21759
855.792	21797
855.926	21629
856.06	21759
856.194	21648
856.327	21534
856.461	21526
856.595	21485
856.729	21576
856.862	21797
856.996	21644
857.13	21701
857.263	21831
857.397	21766
857.53	21701
857.664	21625
857.797	21720
857.931	21873
858.064	21667
858.197	21698
858.331	21587
858.464	21732
858.597	21511
858.731	21610
858.864	21633
858.997	21641
859.13	21770
859.263	21717
859.396	21755
859.529	21580
859.662	21580
859.795	21637
859.928	21724
860.061	21724
860.194	21918
860.327	21785
860.46	21713
860.592	21789
860.725	21998
860.858	21682
860.99	21724
861.123	21538
861.256	21606
861.388	21671
861.521	22443
861.653	21511
861.786	21340
861.918	21466
862.05	21599
862.183	21557
862.315	21599
862.447	21698
862.58	21622
862.712	21367
862.844	21431
862.976	21458
863.108	21397
863.24	21732
863.372	21317
863.504	21340
863.636	21310
863.768	21344
863.9	21348
864.032	21332
864.164	21477
864.296	21431
864.428	21473
864.559	21431
864.691	21500
864.823	21348
864.954	21351
865.086	21424
865.217	21272
865.349	21138
865.48	21176
865.612	21351
865.743	21401
865.875	21325
866.006	21230
866.137	21336
866.269	21317
866.4	21272
866.531	21180
866.662	21211
866.793	21241
866.924	21237
867.055	21161
867.186	21310
867.317	21108
867.448	21032
867.579	21119
867.71	21036
867.841	21096
867.972	21169
868.103	21161
868.233	21131
868.364	21154
868.495	21382
868.625	21401
868.756	21583
868.886	21431
869.017	21439
869.147	21401
869.278	21587
869.408	21488
869.539	21416
869.669	21530
869.799	21606
869.929	21595
870.06	21572
870.19	21690
870.32	21751
870.45	21778
870.58	21785
870.71	21937
870.84	21880
870.97	21888
871.1	21846
871.23	22070
871.36	21915
871.489	21983
871.619	22044
871.749	22101
871.879	22101
872.008	22131
872.138	22059
872.267	21865
872.397	21762
872.526	21861
872.656	21876
872.785	21903
872.915	21903
873.044	22112
873.173	22131
873.303	22139
873.432	22124
873.561	22055
873.69	22074
873.819	22040
873.948	22158
874.077	22082
874.206	22128
874.335	22029
874.464	22211
874.593	22375
874.722	22284
874.851	22371
874.979	22360
875.108	22261
875.237	22242
875.365	22226
875.494	22234
875.623	22234
875.751	22303
875.88	22226
876.008	22348
876.136	22489
876.265	22580
876.393	22752
876.521	22733
876.65	22771
876.778	22580
876.906	22664
877.034	22679
877.162	22592
877.29	22584
877.418	22641
877.546	22626
877.674	22565
877.802	22668
877.93	22603
878.058	22440
878.185	22607
878.313	22542
878.441	22440
878.568	22455
878.696	22561
878.824	22542
878.951	22816
879.079	22790
879.206	22972
879.333	22736
879.461	22710
879.588	22752
879.715	22839
879.842	22908
879.97	22793
880.097	22371
880.224	22436
880.351	22447
880.478	22413
880.605	22386
880.732	22459
880.859	22748
880.986	22504
881.112	22455
881.239	22356
881.366	22211
881.493	22173
881.619	22002
881.746	22048
881.872	22048
881.999	21975
882.125	22002
882.252	21953
882.378	22002
882.505	22021
882.631	21861
882.757	21743
882.883	21720
883.01	21667
883.136	21633
883.262	21644
883.388	21526
883.514	21739
883.64	21789
883.766	21637
883.892	21507
884.018	21583
884.143	21694
884.269	21850
884.395	21435
884.52	21367
884.646	21279
884.772	21321
884.897	21275
885.023	21363
885.148	21511
885.274	21462
885.399	21344
885.524	21393
885.65	21420
885.775	21439
885.9	21245
886.025	21386
886.15	21340
886.275	21245
886.4	21294
886.525	21447
886.65	21245
886.775	21317
886.9	21454
887.025	21568
887.149	21287
887.274	21104
887.399	21104
887.523	21108
887.648	21184
887.773	21077
887.897	21241
888.021	21173
888.146	20933
888.27	21173
888.395	21218
888.519	21051
888.643	21302
888.767	21085
888.891	21028
889.015	20925
889.139	21055
889.263	20857
889.387	21017
889.511	21157
889.635	21070
889.759	20853
889.883	20876
890.006	20921
890.13	21028
890.254	21036
890.377	20807
890.501	20750
890.624	20686
890.748	20731
890.871	20655
890.995	20488
891.118	20427
891.241	20533
891.364	20332
891.488	20602
891.611	20381
891.734	20457
891.857	20454
891.98	20438
892.103	20499
892.226	20560
892.349	20396
892.471	20294
892.594	20256
892.717	20278
892.839	20358
892.962	20396
893.085	20355
893.207	20343
893.33	20366
893.452	20347
893.575	20370
893.697	20385
893.819	20590
893.941	20644
894.064	20575
894.186	20317
894.308	20244
894.43	20324
894.552	20537
894.674	20556
894.796	20282
894.918	20396
895.04	20434
895.161	20336
895.283	20457
895.405	20271
895.526	20404
895.648	20423
895.769	20400
895.891	20412
896.012	20613
896.134	20419
896.255	20469
896.376	20271
896.498	20305
896.619	20450
896.74	20336
896.861	20511
896.982	20636
897.103	20899
897.224	20560
897.345	20594
897.466	20431
897.587	20609
897.708	20724
897.828	20682
897.949	20533
898.07	20488
898.19	20469
898.311	20613
898.431	20560
898.552	20579
898.672	20613
898.792	20735
898.913	20731
899.033	20564
899.153	20317
899.273	20225
899.393	20298
899.513	20328
899.633	20286
899.753	20393
899.873	20214
899.993	20450
900.113	20195
900.232	20393
900.352	20256
900.472	20187
900.591	20100
900.711	20237
900.83	20031
900.95	20202
901.069	20229
901.189	20069
901.308	19738
901.427	19723
901.546	19795
901.665	19753
901.784	19731
901.904	19616
902.023	19487
902.141	19209
902.26	19251
902.379	19274
902.498	19175
902.617	19221
902.735	19228
902.854	19183
902.973	19023
903.091	18890
903.21	18878
903.328	18905
903.446	18935
903.565	18654
903.683	18639
903.801	18585
903.919	18589
904.038	18635
904.156	18464
904.274	18414
904.392	18464
904.51	18502
904.627	18540
904.745	18483
904.863	18433
904.981	18148
905.098	18079
905.216	18072
905.334	18174
905.451	18140
905.569	18053
905.686	18106
905.803	18034
905.921	18011
906.038	17931
906.155	17893
906.272	17859
906.389	17855
906.506	17718
906.623	17722
906.74	17661
906.857	17478
906.974	17535
907.091	17707
907.208	17836
907.324	17615
907.441	17604
907.557	17406
907.674	17383
907.79	17204
907.907	17337
908.023	17395
908.139	17368
908.256	17231
908.372	17239
908.488	17239
908.604	17052
908.72	17083
908.836	17048
908.952	16999
909.068	17098
909.184	17193
909.3	17117
909.415	17159
909.531	17014
909.647	16850
909.762	16717
909.878	16774
909.993	16797
910.108	16790
910.224	16710
910.339	16771
910.454	16664
910.57	16626
910.685	16497
910.8	16782
910.915	16748
911.03	16618
911.145	16398
911.259	16287
911.374	16348
911.489	16329
911.604	16303
911.718	16059
911.833	16055
911.947	16082
912.062	15949
912.176	16196
912.291	16204
912.405	16040
912.519	16200
912.633	16215
912.748	16097
912.862	16044
912.976	15915
913.09	15850
913.204	15876
913.318	15892
913.431	15994
913.545	15983
913.659	16025
913.772	15899
913.886	15698
914	15736
914.113	15797
914.226	15926
914.34	15679
914.453	15580
914.566	15587
914.68	15557
914.793	15473
914.906	15397
915.019	15374
915.132	15249
915.245	15252
915.358	15268
915.47	15317
915.583	15211
915.696	15340
915.809	15382
915.921	15408
916.034	15268
916.146	15214
916.259	15169
916.371	15329
916.483	15127
916.595	15283
916.708	15192
916.82	15161
916.932	15074
917.044	15199
917.156	15089
917.268	15032
917.38	14975
917.491	14986
917.603	15051
917.715	15039
917.826	15093
917.938	14868
918.049	14807
918.161	14891
918.272	15097
918.384	14952
918.495	14975
918.606	14686
918.717	14785
918.828	14785
918.939	14674
919.05	14617
919.161	14720
919.272	14461
919.383	14667
919.494	14686
919.604	14845
919.715	14670
919.826	14651
919.936	14663
920.047	14735
920.157	14663
920.267	14868
920.378	14720
920.488	14712
920.598	14967
920.708	14906
920.818	14762
920.928	14705
921.038	14998
921.148	14895
921.258	14632
921.368	14587
921.477	14362
921.587	14423
921.697	14278
921.806	14415
921.916	14278
922.025	14100
922.134	14073
922.244	13925
922.353	14020
922.462	13925
922.571	13875
922.68	13742
922.789	13693
922.898	13761
923.007	13651
923.116	13700
923.224	13636
923.333	13662
923.442	13601
923.55	13510
923.659	13453
923.767	13502
923.876	13480
923.984	13594
924.092	13518
924.201	13422
924.309	13434
924.417	13278
924.525	13457
924.633	13320
924.741	14275
924.849	13149
924.956	13297
925.064	13129
925.172	13072
925.279	13038
925.387	13156
925.494	13122
925.602	13137
925.709	13160
925.816	12932
925.924	13023
926.031	13118
926.138	13012
926.245	13000
926.352	12920
926.459	13042
926.566	13107
926.673	12913
926.779	12932
926.886	12825
926.993	12730
927.099	12703
927.206	12642
927.312	12635
927.419	12768
927.525	12608
927.631	12593
927.737	12570
927.843	12544
927.95	12346
928.056	12437
928.162	12445
928.267	12536
928.373	13065
928.479	12623
928.585	12338
928.69	12429
928.796	12547
928.901	12258
929.007	12213
929.112	12350
929.218	12319
929.323	12292
929.428	12213
929.533	12327
929.638	12106
929.743	12163
929.848	12243
929.953	12175
930.058	12026
930.163	11908
930.267	11897
930.372	11999
930.477	11866
930.581	12079
930.685	11897
930.79	11745
930.894	11809
930.998	11767
931.103	11882
931.207	11554
931.311	11471
931.415	11395
931.519	11181
931.623	11193
