Data from test_V78500241_3565.txt Node
Date: Fri Mar 25 16:06:29 CST 2022
User: usil
Spectrometer: V785-0024
Trigger mode: 0
Integration Time (sec): 4.000000E-1
Scans to average: 1
Nonlinearity correction enabled: false
Boxcar width: 0
Storing dark spectrum: false
XAxis mode: Wavelengths
Number of Pixels in Spectrum: 1024
>>>>>Begin Spectral Data<<<<<
801.071	28713
801.214	28752
801.356	28596
801.499	28459
801.641	28485
801.783	28249
801.926	28443
802.068	28344
802.211	28295
802.353	28169
802.496	28188
802.638	28272
802.78	28032
802.923	28067
803.065	28059
803.208	27968
803.35	28192
803.492	28253
803.635	28265
803.777	28112
803.919	28394
804.061	28675
804.204	28436
804.346	28249
804.488	28226
804.63	28303
804.773	28287
804.915	28344
805.057	28645
805.199	28348
805.341	28573
805.483	28466
805.626	28504
805.768	28230
805.91	28542
806.052	28577
806.194	28333
806.336	28557
806.478	28516
806.62	28664
806.762	28710
806.904	28831
807.046	29037
807.188	29033
807.33	29006
807.472	29086
807.614	28934
807.756	28953
807.898	28786
808.04	28778
808.182	28790
808.324	28850
808.465	28953
808.607	29064
808.749	29318
808.891	29433
809.033	29303
809.174	29231
809.316	29284
809.458	29254
809.6	29147
809.741	29261
809.883	29288
810.025	29448
810.166	29444
810.308	29482
810.45	29387
810.591	29417
810.733	29280
810.875	29018
811.016	29235
811.158	29037
811.299	29375
811.441	29421
811.582	29402
811.724	29246
811.865	29185
812.007	29064
812.148	29250
812.29	29311
812.431	29410
812.573	29524
812.714	29566
812.855	29710
812.997	29882
813.138	29916
813.279	29847
813.421	29851
813.562	29657
813.703	29463
813.845	29463
813.986	29223
814.127	28980
814.268	28938
814.41	28873
814.551	28782
814.692	28934
814.833	28892
814.974	28919
815.115	29143
815.256	28835
815.397	28706
815.539	28744
815.68	28637
815.821	28630
815.962	28793
816.103	28725
816.244	28706
816.385	28455
816.526	28493
816.666	28424
816.807	28219
816.948	28265
817.089	28337
817.23	28284
817.371	28242
817.512	28177
817.653	28135
817.793	28253
817.934	28234
818.075	28337
818.216	28261
818.356	28211
818.497	28063
818.638	27964
818.778	28090
818.919	27987
819.06	28025
819.2	28116
819.341	28310
819.481	28375
819.622	28272
819.762	28664
819.903	28611
820.043	28401
820.184	28481
820.324	28375
820.465	28417
820.605	28421
820.746	28443
820.886	28215
821.026	28493
821.167	28379
821.307	28386
821.447	28325
821.588	28120
821.728	27987
821.868	27888
822.008	27755
822.149	27759
822.289	27663
822.429	27492
822.569	27496
822.709	27313
822.849	27367
822.99	27203
823.13	27294
823.27	27203
823.41	27028
823.55	26940
823.69	26952
823.83	27207
823.97	26891
824.11	26769
824.25	26899
824.389	26933
824.529	26952
824.669	26971
824.809	26994
824.949	26998
825.089	26944
825.228	26933
825.368	26731
825.508	26743
825.648	26754
825.787	26895
825.927	26902
826.067	26781
826.206	26876
826.346	26826
826.485	26853
826.625	26720
826.765	26948
826.904	26792
827.044	26533
827.183	26587
827.323	26469
827.462	26457
827.601	26465
827.741	26389
827.88	26587
828.02	26393
828.159	26450
828.298	26530
828.437	26560
828.577	26423
828.716	26434
828.855	26351
828.994	26202
829.134	26119
829.273	26233
829.412	26309
829.551	26134
829.69	26195
829.829	26134
829.968	26256
830.107	26282
830.246	26161
830.385	26096
830.524	26218
830.663	26077
830.802	25928
830.941	25932
831.08	25708
831.219	25887
831.357	25830
831.496	26012
831.635	25841
831.774	25674
831.913	25613
832.051	25506
832.19	25613
832.329	25575
832.467	25441
832.606	25533
832.744	25449
832.883	25335
833.022	25320
833.16	25491
833.299	25567
833.437	25518
833.576	25487
833.714	25556
833.852	25529
833.991	25460
834.129	25727
834.267	25582
834.406	25548
834.544	25578
834.682	25426
834.821	25468
834.959	25753
835.097	25525
835.235	25597
835.373	25441
835.511	25597
835.65	25289
835.788	25293
835.926	25255
836.064	25228
836.202	25129
836.34	25396
836.478	25381
836.615	25316
836.753	25282
836.891	25403
837.029	25270
837.167	25270
837.305	25316
837.443	25206
837.58	25247
837.718	25308
837.856	25190
837.993	25198
838.131	25259
838.269	25084
838.406	25091
838.544	25091
838.681	24886
838.819	24802
838.956	24692
839.094	24547
839.231	24696
839.369	24810
839.506	25031
839.643	24867
839.781	24570
839.918	24456
840.055	24639
840.193	24536
840.33	24456
840.467	24593
840.604	24612
840.742	24798
840.879	24437
841.016	24559
841.153	24361
841.29	24574
841.427	24509
841.564	24661
841.701	24513
841.838	24315
841.975	24620
842.112	24426
842.249	24372
842.385	24391
842.522	24540
842.659	24338
842.796	24376
842.933	24277
843.069	24289
843.206	24243
843.343	24338
843.479	24247
843.616	24254
843.752	24152
843.889	24197
844.025	24251
844.162	24057
844.298	24144
844.435	24087
844.571	24064
844.708	24159
844.844	24262
844.98	24247
845.117	24304
845.253	24007
845.389	23946
845.525	24015
845.661	23977
845.798	23840
845.934	23977
846.07	23783
846.206	23870
846.342	23840
846.478	23809
846.614	23722
846.75	23551
846.886	23551
847.022	23642
847.158	23581
847.294	23570
847.429	23528
847.565	23425
847.701	23756
847.837	23402
847.972	23204
848.108	23330
848.244	23322
848.379	23136
848.515	23140
848.65	23102
848.786	23064
848.921	23197
849.057	23227
849.192	23258
849.328	23181
849.463	23136
849.598	23056
849.734	22976
849.869	23079
850.004	22797
850.14	22984
850.275	23109
850.41	22816
850.545	22793
850.68	22839
850.815	22980
850.95	22892
851.085	23132
851.22	22957
851.355	22953
851.49	22843
851.625	22839
851.76	22869
851.895	22710
852.03	22877
852.165	22946
852.299	23014
852.434	22915
852.569	22980
852.703	22862
852.838	22946
852.973	23090
853.107	22968
853.242	22881
853.376	22790
853.511	22645
853.645	22740
853.78	22831
853.914	22889
854.048	22740
854.183	22649
854.317	22805
854.451	22889
854.585	22660
854.72	22733
854.854	22755
854.988	22694
855.122	22668
855.256	22763
855.39	22721
855.524	22877
855.658	22713
855.792	22778
855.926	22816
856.06	22721
856.194	22790
856.327	22660
856.461	22694
856.595	22641
856.729	22679
856.862	22885
856.996	22782
857.13	22820
857.263	22946
857.397	22877
857.53	22713
857.664	22790
857.797	22805
857.931	22839
858.064	22645
858.197	22999
858.331	22896
858.464	22645
858.597	22588
858.731	22687
858.864	22759
858.997	22672
859.13	22752
859.263	22733
859.396	22774
859.529	22675
859.662	22687
859.795	22615
859.928	22660
860.061	22995
860.194	22968
860.327	22839
860.46	22675
860.592	22824
860.725	22961
860.858	22892
860.99	22717
861.123	22797
861.256	22664
861.388	22797
861.521	23433
861.653	22672
861.786	22466
861.918	22485
862.05	22592
862.183	22630
862.315	22713
862.447	22755
862.58	22611
862.712	22470
862.844	22386
862.976	22535
863.108	22481
863.24	22953
863.372	22268
863.504	22413
863.636	22428
863.768	22478
863.9	22360
864.032	22356
864.164	22588
864.296	22428
864.428	22607
864.559	22432
864.691	22550
864.823	22348
864.954	22352
865.086	22413
865.217	22246
865.349	22310
865.48	22219
865.612	22215
865.743	22474
865.875	22413
866.006	22325
866.137	22280
866.269	22287
866.4	22265
866.531	22173
866.662	22268
866.793	22219
866.924	22215
867.055	22207
867.186	22371
867.317	22291
867.448	22029
867.579	22257
867.71	22143
867.841	22204
867.972	22226
868.103	22257
868.233	22280
868.364	22337
868.495	22299
868.625	22424
868.756	22592
868.886	22352
869.017	22538
869.147	22584
869.278	22538
869.408	22554
869.539	22500
869.669	22546
869.799	22497
869.929	22554
870.06	22630
870.19	22748
870.32	22721
870.45	22786
870.58	22904
870.71	22938
870.84	22930
870.97	22869
871.1	22835
871.23	23037
871.36	23067
871.489	22965
871.619	22980
871.749	22949
871.879	23181
872.008	23117
872.138	23231
872.267	23200
872.397	23010
872.526	23056
872.656	22854
872.785	22915
872.915	23105
873.044	23155
873.173	23010
873.303	23064
873.432	23079
873.561	23193
873.69	23052
873.819	23052
873.948	23166
874.077	23090
874.206	22953
874.335	23033
874.464	23136
874.593	23334
874.722	23216
874.851	23360
874.979	23376
875.108	23353
875.237	23239
875.365	23258
875.494	23311
875.623	23204
875.751	23292
875.88	23463
876.008	23455
876.136	23463
876.265	23684
876.393	23836
876.521	23710
876.65	23767
876.778	23680
876.906	23585
877.034	23615
877.162	23722
877.29	23695
877.418	23687
877.546	23695
877.674	23771
877.802	23604
877.93	23668
878.058	23547
878.185	23471
878.313	23573
878.441	23619
878.568	23406
878.696	23543
878.824	23558
878.951	23611
879.079	23817
879.206	23916
879.333	23783
879.461	23771
879.588	23741
879.715	23885
879.842	23939
879.97	23623
880.097	23516
880.224	23543
880.351	23577
880.478	23463
880.605	23433
880.732	23444
880.859	23726
880.986	23585
881.112	23589
881.239	23429
881.366	23166
881.493	23090
881.619	23056
881.746	23075
881.872	22957
881.999	22991
882.125	22843
882.252	23079
882.378	23014
882.505	23064
882.631	22980
882.757	22767
882.883	22885
883.01	22805
883.136	22596
883.262	22519
883.388	22497
883.514	22637
883.64	22702
883.766	22607
883.892	22436
884.018	22481
884.143	22531
884.269	22698
884.395	22287
884.52	22314
884.646	22360
884.772	22188
884.897	22291
885.023	22436
885.148	22405
885.274	22542
885.399	22424
885.524	22268
885.65	22249
885.775	22478
885.9	22177
886.025	22440
886.15	22409
886.275	22280
886.4	22086
886.525	22333
886.65	22272
886.775	22310
886.9	22519
887.025	22443
887.149	22257
887.274	22200
887.399	22154
887.523	22097
887.648	21994
887.773	21892
887.897	22067
888.021	22067
888.146	21987
888.27	22249
888.395	22143
888.519	22158
888.643	22105
888.767	22150
888.891	21956
889.015	21907
889.139	21926
889.263	21778
889.387	22006
889.511	21960
889.635	21987
889.759	21759
889.883	21770
890.006	21747
890.13	21880
890.254	21880
890.377	21831
890.501	21629
890.624	21595
890.748	21622
890.871	21580
890.995	21389
891.118	21355
891.241	21526
891.364	21599
891.488	21511
891.611	21477
891.734	21424
891.857	21488
891.98	21428
892.103	21530
892.226	21405
892.349	21367
892.471	21142
892.594	21393
892.717	21218
892.839	21256
892.962	21306
893.085	21424
893.207	21268
893.33	21146
893.452	21313
893.575	21329
893.697	21321
893.819	21431
893.941	21523
894.064	21393
894.186	21283
894.308	21146
894.43	21252
894.552	21447
894.674	21363
894.796	21249
894.918	21302
895.04	21252
895.161	21313
895.283	21382
895.405	21249
895.526	21279
895.648	21272
895.769	21355
895.891	21252
896.012	21351
896.134	21363
896.255	21150
896.376	21116
896.498	21245
896.619	21279
896.74	21348
896.861	21287
896.982	21599
897.103	21751
897.224	21534
897.345	21519
897.466	21469
897.587	21572
897.708	21545
897.828	21656
897.949	21306
898.07	21306
898.19	21351
898.311	21538
898.431	21336
898.552	21310
898.672	21568
898.792	21530
898.913	21431
899.033	21401
899.153	21233
899.273	21154
899.393	21165
899.513	21154
899.633	21195
899.753	21218
899.873	21157
899.993	21112
900.113	21161
900.232	21199
900.352	21116
900.472	20887
900.591	20960
900.711	21009
900.83	20899
900.95	21123
901.069	21001
901.189	20800
901.308	20644
901.427	20579
901.546	20594
901.665	20568
901.784	20488
901.904	20419
902.023	20309
902.141	20100
902.26	20031
902.379	19997
902.498	20043
902.617	20005
902.735	19928
902.854	20054
902.973	19967
903.091	19662
903.21	19693
903.328	19582
903.446	19537
903.565	19506
903.683	19480
903.801	19362
903.919	19468
904.038	19403
904.156	19278
904.274	19384
904.392	19244
904.51	19175
904.627	19133
904.745	19373
904.863	19244
904.981	19046
905.098	18837
905.216	18981
905.334	18871
905.451	18878
905.569	18905
905.686	19031
905.803	18996
905.921	18677
906.038	18779
906.155	18658
906.272	18475
906.389	18677
906.506	18391
906.623	18452
906.74	18479
906.857	18232
906.974	18330
907.091	18399
907.208	18620
907.324	18399
907.441	18201
907.557	18228
907.674	18232
907.79	18057
907.907	18091
908.023	18235
908.139	18216
908.256	18041
908.372	18022
908.488	18003
908.604	17786
908.72	17897
908.836	17824
908.952	17741
909.068	17942
909.184	17878
909.3	17874
909.415	17805
909.531	17817
909.647	17665
909.762	17547
909.878	17505
909.993	17554
910.108	17474
910.224	17532
910.339	17478
910.454	17356
910.57	17318
910.685	17337
910.8	17611
910.915	17474
911.03	17410
911.145	17170
911.259	17113
911.374	17143
911.489	16908
911.604	17037
911.718	16949
911.833	16904
911.947	16873
912.062	16702
912.176	16866
912.291	16706
912.405	16801
912.519	17018
912.633	17010
912.748	16812
912.862	16889
912.976	16755
913.09	16596
913.204	16573
913.318	16721
913.431	16767
913.545	16774
913.659	16740
913.772	16588
913.886	16390
914	16478
914.113	16607
914.226	16516
914.34	16447
914.453	16375
914.566	16474
914.68	16512
914.793	16276
914.906	16154
915.019	16010
915.132	15998
915.245	16135
915.358	16017
915.47	15941
915.583	16063
915.696	16074
915.809	16173
915.921	16181
916.034	15953
916.146	15956
916.259	15876
916.371	15953
916.483	15964
916.595	15762
916.708	15831
916.82	15789
916.932	15762
917.044	15759
917.156	15762
917.268	15663
917.38	15705
917.491	15580
917.603	15576
917.715	15667
917.826	15804
917.938	15511
918.049	15496
918.161	15606
918.272	15679
918.384	15667
918.495	15576
918.606	15397
918.717	15332
918.828	15458
918.939	15454
919.05	15264
919.161	15294
919.272	15104
919.383	15199
919.494	15336
919.604	15519
919.715	15363
919.826	15268
919.936	15298
920.047	15310
920.157	15351
920.267	15587
920.378	15291
920.488	15260
920.598	15466
920.708	15591
920.818	15363
920.928	15420
921.038	15576
921.148	15511
921.258	15287
921.368	15146
921.477	15039
921.587	15070
921.697	14925
921.806	15032
921.916	14902
922.025	14815
922.134	14758
922.244	14667
922.353	14735
922.462	14537
922.571	14511
922.68	14370
922.789	14317
922.898	14332
923.007	14305
923.116	14366
923.224	14278
923.333	14195
923.442	14111
923.55	14214
923.659	14138
923.767	14202
923.876	14180
923.984	14180
924.092	13902
924.201	14096
924.309	14084
924.417	14081
924.525	13970
924.633	13944
924.741	14834
924.849	13772
924.956	13963
925.064	13807
925.172	13681
925.279	13514
925.387	13677
925.494	13731
925.602	13871
925.709	13757
925.816	13655
925.924	13510
926.031	13753
926.138	13616
926.245	13643
926.352	13544
926.459	13643
926.566	13685
926.673	13537
926.779	13396
926.886	13525
926.993	13228
927.099	13278
927.206	13221
927.312	13141
927.419	13346
927.525	13217
927.631	13221
927.737	13137
927.843	13061
927.95	12973
928.056	13069
928.162	13126
928.267	13072
928.373	13666
928.479	13175
928.585	12802
928.69	13046
928.796	13080
928.901	12928
929.007	12696
929.112	12935
929.218	12878
929.323	12814
929.428	12700
929.533	12890
929.638	12688
929.743	12726
929.848	12677
929.953	12642
930.058	12536
930.163	12418
930.267	12403
930.372	12536
930.477	12330
930.581	12627
930.685	12388
930.79	12304
930.894	12304
930.998	12285
931.103	12414
931.207	12072
931.311	11950
931.415	11882
931.519	11729
931.623	11657
