Data from test_V78500241_1101.txt Node
Date: Fri Mar 25 15:49:25 CST 2022
User: usil
Spectrometer: V785-0024
Trigger mode: 0
Integration Time (sec): 4.000000E-1
Scans to average: 1
Nonlinearity correction enabled: false
Boxcar width: 0
Storing dark spectrum: false
XAxis mode: Wavelengths
Number of Pixels in Spectrum: 1024
>>>>>Begin Spectral Data<<<<<
801.071	28436
801.214	28306
801.356	28063
801.499	28032
801.641	27918
801.783	27876
801.926	27956
802.068	28017
802.211	27850
802.353	27865
802.496	27568
802.638	27625
802.78	27587
802.923	27583
803.065	27694
803.208	27450
803.35	27545
803.492	27747
803.635	27797
803.777	27880
803.919	27934
804.061	28067
804.204	27998
804.346	27850
804.488	27694
804.63	27762
804.773	27682
804.915	27945
805.057	28010
805.199	27793
805.341	27987
805.483	28029
805.626	27987
805.768	27797
805.91	27975
806.052	28032
806.194	27960
806.336	28181
806.478	28036
806.62	28036
806.762	28067
806.904	28325
807.046	28462
807.188	28474
807.33	28421
807.472	28367
807.614	28299
807.756	28363
807.898	28257
808.04	28253
808.182	28280
808.324	28352
808.465	28261
808.607	28440
808.749	28694
808.891	28873
809.033	28805
809.174	28729
809.316	28767
809.458	28622
809.6	28683
809.741	28725
809.883	28835
810.025	29029
810.166	29105
810.308	28999
810.45	29029
810.591	28938
810.733	28717
810.875	28626
811.016	28538
811.158	28447
811.299	28831
811.441	28831
811.582	28824
811.724	28679
811.865	28736
812.007	28649
812.148	28752
812.29	28835
812.431	28869
812.573	29105
812.714	29197
812.855	29261
812.997	29223
813.138	29562
813.279	29326
813.421	29143
813.562	29025
813.703	29242
813.845	28968
813.986	28687
814.127	28603
814.268	28512
814.41	28462
814.551	28527
814.692	28569
814.833	28413
814.974	28424
815.115	28474
815.256	28344
815.397	28291
815.539	28344
815.68	28200
815.821	28124
815.962	28253
816.103	28143
816.244	28188
816.385	27953
816.526	27873
816.666	27778
816.807	27709
816.948	27934
817.089	27747
817.23	27770
817.371	27778
817.512	27778
817.653	27743
817.793	27603
817.934	27557
818.075	27713
818.216	27720
818.356	27732
818.497	27629
818.638	27526
818.778	27393
818.919	27374
819.06	27568
819.2	27652
819.341	27793
819.481	27785
819.622	27888
819.762	28310
819.903	28002
820.043	27949
820.184	28048
820.324	27998
820.465	27934
820.605	27865
820.746	27945
820.886	27652
821.026	27926
821.167	27895
821.307	27937
821.447	27941
821.588	27652
821.728	27656
821.868	27526
822.008	27416
822.149	27268
822.289	27184
822.429	27032
822.569	26937
822.709	26910
822.849	26739
822.99	26773
823.13	26689
823.27	26689
823.41	26495
823.55	26511
823.69	26629
823.83	26518
823.97	26492
824.11	26355
824.25	26385
824.389	26343
824.529	26522
824.669	26495
824.809	26541
824.949	26465
825.089	26549
825.228	26389
825.368	26362
825.508	26275
825.648	26164
825.787	26168
825.927	26294
826.067	26271
826.206	26282
826.346	26343
826.485	26301
826.625	26164
826.765	26374
826.904	26286
827.044	26115
827.183	25944
827.323	25909
827.462	26012
827.601	26069
827.741	25997
827.88	26119
828.02	25986
828.159	26016
828.298	25955
828.437	26088
828.577	25902
828.716	26069
828.855	25894
828.994	25616
829.134	25677
829.273	25693
829.412	25540
829.551	25632
829.69	25666
829.829	25613
829.968	25928
830.107	25769
830.246	25578
830.385	25632
830.524	25510
830.663	25643
830.802	25521
830.941	25312
831.08	25247
831.219	25365
831.357	25365
831.496	25476
831.635	25187
831.774	25225
831.913	25213
832.051	25168
832.19	25031
832.329	25107
832.467	24996
832.606	24954
832.744	24973
832.883	24882
833.022	24886
833.16	24954
833.299	25004
833.437	24947
833.576	25053
833.714	24867
833.852	25103
833.991	25164
834.129	25012
834.267	25076
834.406	25050
834.544	25057
834.682	24989
834.821	25107
834.959	25217
835.097	24848
835.235	25050
835.373	24977
835.511	24992
835.65	24749
835.788	24802
835.926	24692
836.064	24688
836.202	24684
836.34	24806
836.478	24947
836.615	24821
836.753	24856
836.891	24814
837.029	24730
837.167	24734
837.305	24715
837.443	24783
837.58	24525
837.718	24814
837.856	24665
837.993	24719
838.131	24650
838.269	24544
838.406	24749
838.544	24467
838.681	24262
838.819	24300
838.956	24026
839.094	24125
839.231	24228
839.369	24266
839.506	24475
839.643	24407
839.781	24136
839.918	23969
840.055	24178
840.193	24076
840.33	24129
840.467	24022
840.604	24159
840.742	24285
840.879	23874
841.016	23836
841.153	23893
841.29	24174
841.427	24110
841.564	24083
841.701	24053
841.838	24117
841.975	23897
842.112	23980
842.249	23958
842.385	23870
842.522	24072
842.659	23870
842.796	23855
842.933	23859
843.069	23775
843.206	23882
843.343	23794
843.479	23783
843.616	23710
843.752	23695
843.889	23528
844.025	23718
844.162	23539
844.298	23714
844.435	23505
844.571	23417
844.708	23718
844.844	23756
844.98	23619
845.117	23619
845.253	23573
845.389	23356
845.525	23482
845.661	23353
845.798	23356
845.934	23326
846.07	23235
846.206	23379
846.342	23478
846.478	23181
846.614	23121
846.75	22965
846.886	23018
847.022	23193
847.158	23136
847.294	23014
847.429	23033
847.565	23056
847.701	23227
847.837	22793
847.972	22759
848.108	22885
848.244	22725
848.379	22679
848.515	22630
848.65	22580
848.786	22725
848.921	22626
849.057	22645
849.192	22675
849.328	22622
849.463	22637
849.598	22519
849.734	22500
849.869	22580
850.004	22405
850.14	22428
850.275	22462
850.41	22291
850.545	22287
850.68	22303
850.815	22371
850.95	22402
851.085	22618
851.22	22523
851.355	22398
851.49	22371
851.625	22348
851.76	22466
851.895	22314
852.03	22363
852.165	22379
852.299	22402
852.434	22538
852.569	22508
852.703	22504
852.838	22265
852.973	22485
853.107	22466
853.242	22223
853.376	22246
853.511	22105
853.645	22261
853.78	22242
853.914	22230
854.048	22207
854.183	22196
854.317	22230
854.451	22329
854.585	22192
854.72	22219
854.854	22363
854.988	22128
855.122	22207
855.256	22173
855.39	22204
855.524	22230
855.658	22291
855.792	22295
855.926	22116
856.06	22257
856.194	22261
856.327	22204
856.461	22135
856.595	22322
856.729	22067
856.862	22272
856.996	22150
857.13	22284
857.263	22367
857.397	22310
857.53	22242
857.664	22211
857.797	22173
857.931	22238
858.064	22257
858.197	22390
858.331	22177
858.464	22067
858.597	22128
858.731	22135
858.864	22112
858.997	22177
859.13	22265
859.263	22150
859.396	22131
859.529	22215
859.662	22215
859.795	22287
859.928	22265
860.061	22310
860.194	22379
860.327	22135
860.46	22310
860.592	22375
860.725	22268
860.858	22257
860.99	22215
861.123	22074
861.256	22215
861.388	22219
861.521	22934
861.653	22055
861.786	21983
861.918	21975
862.05	22006
862.183	22135
862.315	22070
862.447	22246
862.58	22006
862.712	21975
862.844	21827
862.976	21899
863.108	22017
863.24	22382
863.372	21857
863.504	21842
863.636	21975
863.768	21953
863.9	21918
864.032	21781
864.164	21850
864.296	21949
864.428	21998
864.559	21960
864.691	21922
864.823	21823
864.954	21915
865.086	21831
865.217	21812
865.349	21724
865.48	21717
865.612	21797
865.743	21899
865.875	21720
866.006	21732
866.137	21739
866.269	21899
866.4	21667
866.531	21797
866.662	21629
866.793	21648
866.924	21610
867.055	21694
867.186	21781
867.317	21656
867.448	21557
867.579	21690
867.71	21591
867.841	21648
867.972	21778
868.103	21564
868.233	21728
868.364	21804
868.495	21827
868.625	21873
868.756	22010
868.886	21945
869.017	21926
869.147	22006
869.278	22070
869.408	22006
869.539	21907
869.669	22070
869.799	21975
869.929	22059
870.06	22048
870.19	22306
870.32	22200
870.45	22314
870.58	22306
870.71	22466
870.84	22352
870.97	22276
871.1	22242
871.23	22363
871.36	22554
871.489	22405
871.619	22436
871.749	22512
871.879	22618
872.008	22672
872.138	22531
872.267	22508
872.397	22493
872.526	22363
872.656	22325
872.785	22356
872.915	22599
873.044	22710
873.173	22561
873.303	22580
873.432	22660
873.561	22618
873.69	22481
873.819	22481
873.948	22615
874.077	22538
874.206	22557
874.335	22603
874.464	22584
874.593	22824
874.722	22786
874.851	22801
874.979	22782
875.108	22915
875.237	22683
875.365	22565
875.494	22649
875.623	22809
875.751	22729
875.88	22809
876.008	22946
876.136	22873
876.265	23159
876.393	23349
876.521	23174
876.65	23349
876.778	23143
876.906	23193
877.034	23025
877.162	23079
877.29	23159
877.418	23178
877.546	23181
877.674	22938
877.802	23071
877.93	23067
878.058	23033
878.185	22919
878.313	23033
878.441	23140
878.568	23075
878.696	23010
878.824	23239
878.951	23079
879.079	23288
879.206	23299
879.333	23227
879.461	23128
879.588	23204
879.715	23235
879.842	23425
879.97	23181
880.097	23037
880.224	22934
880.351	22972
880.478	22965
880.605	22866
880.732	22839
880.859	23067
880.986	23041
881.112	22968
881.239	22771
881.366	22664
881.493	22649
881.619	22470
881.746	22523
881.872	22611
881.999	22519
882.125	22329
882.252	22504
882.378	22462
882.505	22504
882.631	22356
882.757	22177
882.883	22253
883.01	22272
883.136	22246
883.262	22044
883.388	22188
883.514	22253
883.64	22177
883.766	22150
883.892	22032
884.018	22086
884.143	22086
884.269	22215
884.395	21934
884.52	21747
884.646	21857
884.772	21701
884.897	21778
885.023	21842
885.148	21717
885.274	21983
885.399	21842
885.524	21770
885.65	21743
885.775	21759
885.9	21827
886.025	21930
886.15	21759
886.275	21698
886.4	21633
886.525	21892
886.65	21751
886.775	21694
886.9	21869
887.025	22006
887.149	21747
887.274	21610
887.399	21656
887.523	21561
887.648	21515
887.773	21576
887.897	21694
888.021	21622
888.146	21500
888.27	21709
888.395	21671
888.519	21568
888.643	21603
888.767	21625
888.891	21431
889.015	21252
889.139	21511
889.263	21268
889.387	21477
889.511	21542
889.635	21538
889.759	21412
889.883	21348
890.006	21283
890.13	21374
890.254	21329
890.377	21310
890.501	21241
890.624	21074
890.748	21089
890.871	20998
890.995	20807
891.118	20887
891.241	20857
891.364	20967
891.488	21009
891.611	20895
891.734	20914
891.857	20906
891.98	21017
892.103	20937
892.226	20899
892.349	20815
892.471	20750
892.594	20746
892.717	20849
892.839	20902
892.962	20861
893.085	20807
893.207	20868
893.33	20689
893.452	20861
893.575	20845
893.697	20701
893.819	20864
893.941	20998
894.064	21024
894.186	20823
894.308	20823
894.43	20788
894.552	20891
894.674	21009
894.796	20735
894.918	20838
895.04	20720
895.161	20804
895.283	20891
895.405	20773
895.526	20727
895.648	20754
895.769	20883
895.891	20720
896.012	20857
896.134	20914
896.255	20819
896.376	20807
896.498	20777
896.619	20819
896.74	20720
896.861	20834
896.982	21154
897.103	21226
897.224	20990
897.345	21119
897.466	20937
897.587	21058
897.708	21108
897.828	20967
897.949	20963
898.07	20819
898.19	20891
898.311	21089
898.431	20944
898.552	20944
898.672	21104
898.792	21142
898.913	20990
899.033	20937
899.153	20731
899.273	20663
899.393	20735
899.513	20708
899.633	20663
899.753	20807
899.873	20750
899.993	20663
900.113	20754
900.232	20724
900.352	20583
900.472	20514
900.591	20374
900.711	20530
900.83	20347
900.95	20606
901.069	20571
901.189	20446
901.308	20096
901.427	20043
901.546	20054
901.665	20043
901.784	20103
901.904	20005
902.023	19921
902.141	19765
902.26	19578
902.379	19761
902.498	19552
902.617	19449
902.735	19548
902.854	19575
902.973	19373
903.091	19339
903.21	19259
903.328	19327
903.446	19217
903.565	19126
903.683	19012
903.801	18958
903.919	18996
904.038	19031
904.156	18871
904.274	19076
904.392	18844
904.51	18798
904.627	18810
904.745	18856
904.863	18882
904.981	18608
905.098	18418
905.216	18517
905.334	18490
905.451	18532
905.569	18422
905.686	18498
905.803	18445
905.921	18262
906.038	18315
906.155	18254
906.272	18201
906.389	18163
906.506	17935
906.623	18087
906.74	18072
906.857	17901
906.974	17961
907.091	18019
907.208	18220
907.324	17950
907.441	17828
907.557	17684
907.674	17771
907.79	17783
907.907	17642
908.023	17707
908.139	17737
908.256	17657
908.372	17733
908.488	17535
908.604	17512
908.72	17315
908.836	17482
908.952	17471
909.068	17452
909.184	17486
909.3	17471
909.415	17486
909.531	17444
909.647	17235
909.762	17117
909.878	17124
909.993	17006
910.108	17121
910.224	17132
910.339	17098
910.454	16919
910.57	16938
910.685	16900
910.8	17098
910.915	17147
911.03	16896
911.145	16805
911.259	16782
911.374	16797
911.489	16519
911.604	16588
911.718	16447
911.833	16398
911.947	16337
912.062	16333
912.176	16432
912.291	16561
912.405	16481
912.519	16736
912.633	16675
912.748	16443
912.862	16417
912.976	16223
913.09	16044
913.204	16162
913.318	16268
913.431	16322
913.545	16265
913.659	16417
913.772	16306
913.886	16021
914	16063
914.113	16139
914.226	16177
914.34	16090
914.453	15895
914.566	16051
914.68	15998
914.793	15918
914.906	15774
915.019	15701
915.132	15667
915.245	15625
915.358	15625
915.47	15759
915.583	15637
915.696	15667
915.809	15751
915.921	15831
916.034	15557
916.146	15595
916.259	15572
916.371	15618
916.483	15656
916.595	15542
916.708	15557
916.82	15496
916.932	15378
917.044	15351
917.156	15469
917.268	15359
917.38	15378
917.491	15199
917.603	15252
917.715	15283
917.826	15344
917.938	15230
918.049	15123
918.161	15291
918.272	15374
918.384	15351
918.495	15150
918.606	15058
918.717	15047
918.828	15074
918.939	15097
919.05	14937
919.161	14967
919.272	14765
919.383	14891
919.494	15093
919.604	15256
919.715	14967
919.826	14918
919.936	14918
920.047	15108
920.157	14937
920.267	15146
920.378	14937
920.488	14895
920.598	15180
920.708	15363
920.818	15108
920.928	15146
921.038	15291
921.148	15230
921.258	14899
921.368	14804
921.477	14727
921.587	14720
921.697	14549
921.806	14701
921.916	14602
922.025	14404
922.134	14389
922.244	14305
922.353	14404
922.462	14195
922.571	14134
922.68	13959
922.789	14008
922.898	13967
923.007	13875
923.116	14031
923.224	13921
923.333	13894
923.442	13795
923.55	13799
923.659	13761
923.767	13841
923.876	13750
923.984	13845
924.092	13742
924.201	13727
924.309	13738
924.417	13723
924.525	13719
924.633	13689
924.741	14480
924.849	13415
924.956	13616
925.064	13434
925.172	13297
925.279	13358
925.387	13369
925.494	13400
925.602	13495
925.709	13308
925.816	13228
925.924	13266
926.031	13365
926.138	13247
926.245	13377
926.352	13240
926.459	13369
926.566	13430
926.673	13263
926.779	13072
926.886	13118
926.993	13012
927.099	12909
927.206	12840
927.312	12928
927.419	12886
927.525	12985
927.631	12973
927.737	12817
927.843	12715
927.95	12665
928.056	12764
928.162	12696
928.267	12897
928.373	13324
928.479	12753
928.585	12593
928.69	12692
928.796	12726
928.901	12593
929.007	12452
929.112	12646
929.218	12604
929.323	12521
929.428	12410
929.533	12525
929.638	12357
929.743	12448
929.848	12407
929.953	12403
930.058	12319
930.163	12121
930.267	12201
930.372	12296
930.477	12148
930.581	12346
930.685	12251
930.79	12019
930.894	12049
930.998	11950
931.103	12182
931.207	11764
931.311	11703
931.415	11627
931.519	11406
931.623	11318
