Data from test_V78500241_3072.txt Node
Date: Fri Mar 25 16:03:04 CST 2022
User: usil
Spectrometer: V785-0024
Trigger mode: 0
Integration Time (sec): 4.000000E-1
Scans to average: 1
Nonlinearity correction enabled: false
Boxcar width: 0
Storing dark spectrum: false
XAxis mode: Wavelengths
Number of Pixels in Spectrum: 1024
>>>>>Begin Spectral Data<<<<<
801.071	28778
801.214	28790
801.356	28630
801.499	28588
801.641	28462
801.783	28379
801.926	28432
802.068	28348
802.211	28284
802.353	28139
802.496	28150
802.638	28032
802.78	28082
802.923	28074
803.065	27960
803.208	28017
803.35	28207
803.492	28268
803.635	28401
803.777	28337
803.919	28314
804.061	28481
804.204	28352
804.346	28162
804.488	28211
804.63	28215
804.773	28284
804.915	28325
805.057	28504
805.199	28462
805.341	28466
805.483	28421
805.626	28550
805.768	28436
805.91	28489
806.052	28508
806.194	28432
806.336	28717
806.478	28615
806.62	28531
806.762	28698
806.904	28763
807.046	29060
807.188	28911
807.33	28873
807.472	29212
807.614	28866
807.756	28812
807.898	28862
808.04	28721
808.182	28820
808.324	28847
808.465	28862
808.607	29029
808.749	29121
808.891	29326
809.033	29315
809.174	29200
809.316	29128
809.458	29128
809.6	29178
809.741	29277
809.883	29391
810.025	29497
810.166	29436
810.308	29387
810.45	29425
810.591	29520
810.733	29303
810.875	29132
811.016	29090
811.158	29185
811.299	29269
811.441	29315
811.582	29303
811.724	29197
811.865	29341
812.007	29231
812.148	29185
812.29	29364
812.431	29360
812.573	29619
812.714	29619
812.855	29733
812.997	29920
813.138	30034
813.279	29824
813.421	29794
813.562	29760
813.703	29467
813.845	29433
813.986	29147
814.127	29025
814.268	28923
814.41	28968
814.551	29010
814.692	29090
814.833	28911
814.974	28972
815.115	28934
815.256	28759
815.397	28866
815.539	28858
815.68	28702
815.821	28694
815.962	28782
816.103	28736
816.244	28641
816.385	28557
816.526	28367
816.666	28200
816.807	28303
816.948	28375
817.089	28379
817.23	28200
817.371	28207
817.512	28177
817.653	28128
817.793	28040
817.934	28303
818.075	28291
818.216	28249
818.356	28177
818.497	28112
818.638	27907
818.778	28067
818.919	28074
819.06	28120
819.2	28177
819.341	28246
819.481	28211
819.622	28504
819.762	28554
819.903	28512
820.043	28459
820.184	28451
820.324	28447
820.465	28504
820.605	28352
820.746	28303
820.886	28329
821.026	28276
821.167	28162
821.307	28390
821.447	28272
821.588	28131
821.728	28078
821.868	27808
822.008	27720
822.149	27778
822.289	27663
822.429	27519
822.569	27431
822.709	27291
822.849	27313
822.99	27207
823.13	27283
823.27	27157
823.41	27112
823.55	26868
823.69	27020
823.83	27062
823.97	27043
824.11	26880
824.25	26925
824.389	26918
824.529	26899
824.669	26834
824.809	26853
824.949	26872
825.089	26891
825.228	26826
825.368	26788
825.508	26796
825.648	26712
825.787	26682
825.927	26800
826.067	26788
826.206	26651
826.346	26651
826.485	26914
826.625	26731
826.765	26823
826.904	26925
827.044	26560
827.183	26568
827.323	26492
827.462	26609
827.601	26511
827.741	26488
827.88	26667
828.02	26317
828.159	26473
828.298	26530
828.437	26571
828.577	26495
828.716	26590
828.855	26324
828.994	26248
829.134	26126
829.273	26244
829.412	26092
829.551	26142
829.69	26172
829.829	26294
829.968	26199
830.107	26313
830.246	26210
830.385	26115
830.524	26164
830.663	26069
830.802	26039
830.941	25742
831.08	25700
831.219	25780
831.357	25959
831.496	26092
831.635	25757
831.774	25772
831.913	25681
832.051	25544
832.19	25655
832.329	25552
832.467	25343
832.606	25384
832.744	25419
832.883	25426
833.022	25453
833.16	25422
833.299	25472
833.437	25578
833.576	25605
833.714	25578
833.852	25483
833.991	25643
834.129	25639
834.267	25556
834.406	25506
834.544	25491
834.682	25620
834.821	25544
834.959	25681
835.097	25460
835.235	25502
835.373	25552
835.511	25460
835.65	25362
835.788	25400
835.926	25240
836.064	25187
836.202	25247
836.34	25438
836.478	25479
836.615	25324
836.753	25415
836.891	25403
837.029	25297
837.167	25270
837.305	25236
837.443	25346
837.58	25244
837.718	25274
837.856	25126
837.993	25263
838.131	25152
838.269	25160
838.406	25187
838.544	25065
838.681	24958
838.819	24760
838.956	24730
839.094	24696
839.231	24707
839.369	24886
839.506	25065
839.643	24894
839.781	24551
839.918	24620
840.055	24741
840.193	24582
840.33	24479
840.467	24559
840.604	24726
840.742	24776
840.879	24327
841.016	24517
841.153	24494
841.29	24483
841.427	24532
841.564	24555
841.701	24536
841.838	24479
841.975	24441
842.112	24399
842.249	24353
842.385	24334
842.522	24574
842.659	24391
842.796	24292
842.933	24315
843.069	24182
843.206	24201
843.343	24350
843.479	24338
843.616	24399
843.752	24167
843.889	24117
844.025	24197
844.162	23912
844.298	24174
844.435	24045
844.571	24076
844.708	24186
844.844	24136
844.98	24155
845.117	24216
845.253	23916
845.389	23878
845.525	23988
845.661	23935
845.798	23965
845.934	23863
846.07	23752
846.206	23843
846.342	23748
846.478	23828
846.614	23493
846.75	23486
846.886	23581
847.022	23680
847.158	23433
847.294	23539
847.429	23596
847.565	23535
847.701	23718
847.837	23197
847.972	23292
848.108	23364
848.244	23341
848.379	23037
848.515	23193
848.65	23147
848.786	23109
848.921	23181
849.057	23105
849.192	23261
849.328	23258
849.463	23212
849.598	23109
849.734	22942
849.869	22949
850.004	22946
850.14	22999
850.275	22938
850.41	22881
850.545	22771
850.68	22790
850.815	22915
850.95	22862
851.085	23086
851.22	22919
851.355	22820
851.49	22900
851.625	22809
851.76	22873
851.895	22877
852.03	22755
852.165	22904
852.299	22930
852.434	23052
852.569	22782
852.703	22881
852.838	23003
852.973	23022
853.107	23067
853.242	22862
853.376	22736
853.511	22656
853.645	22721
853.78	22911
853.914	22790
854.048	22706
854.183	22729
854.317	22930
854.451	23010
854.585	22649
854.72	22672
854.854	22755
854.988	22573
855.122	22702
855.256	22683
855.39	22675
855.524	22759
855.658	22786
855.792	22698
855.926	22675
856.06	22786
856.194	22721
856.327	22588
856.461	22645
856.595	22687
856.729	22641
856.862	22828
856.996	22793
857.13	22664
857.263	22740
857.397	22949
857.53	22649
857.664	22752
857.797	22717
857.931	22892
858.064	22694
858.197	22828
858.331	22645
858.464	22603
858.597	22573
858.731	22664
858.864	22618
858.997	22706
859.13	22767
859.263	22694
859.396	22801
859.529	22771
859.662	22717
859.795	22748
859.928	22607
860.061	22885
860.194	22892
860.327	22748
860.46	22748
860.592	22790
860.725	22957
860.858	22828
860.99	22733
861.123	22672
861.256	22820
861.388	22771
861.521	23395
861.653	22603
861.786	22565
861.918	22519
862.05	22603
862.183	22637
862.315	22645
862.447	22725
862.58	22660
862.712	22375
862.844	22462
862.976	22493
863.108	22569
863.24	22957
863.372	22413
863.504	22508
863.636	22428
863.768	22356
863.9	22382
864.032	22508
864.164	22398
864.296	22462
864.428	22398
864.559	22474
864.691	22432
864.823	22459
864.954	22451
865.086	22363
865.217	22318
865.349	22386
865.48	22360
865.612	22246
865.743	22432
865.875	22257
866.006	22306
866.137	22310
866.269	22219
866.4	22280
866.531	22272
866.662	22272
866.793	22185
866.924	22291
867.055	22238
867.186	22249
867.317	22200
867.448	22147
867.579	22257
867.71	22131
867.841	22025
867.972	22215
868.103	22112
868.233	22238
868.364	22226
868.495	22306
868.625	22360
868.756	22535
868.886	22367
869.017	22428
869.147	22577
869.278	22527
869.408	22550
869.539	22402
869.669	22538
869.799	22554
869.929	22687
870.06	22588
870.19	22778
870.32	22782
870.45	22774
870.58	22892
870.71	22991
870.84	22938
870.97	22828
871.1	22869
871.23	23098
871.36	23010
871.489	23121
871.619	23044
871.749	22976
871.879	23102
872.008	23025
872.138	23003
872.267	23239
872.397	22949
872.526	22892
872.656	22889
872.785	22965
872.915	23090
873.044	23147
873.173	23025
873.303	23022
873.432	23121
873.561	23083
873.69	23113
873.819	23105
873.948	23284
874.077	22892
874.206	23060
874.335	23204
874.464	23178
874.593	23318
874.722	23174
874.851	23299
874.979	23242
875.108	23395
875.237	23170
875.365	23151
875.494	23220
875.623	23284
875.751	23181
875.88	23383
876.008	23467
876.136	23558
876.265	23729
876.393	23783
876.521	23813
876.65	23771
876.778	23547
876.906	23707
877.034	23653
877.162	23687
877.29	23592
877.418	23718
877.546	23680
877.674	23497
877.802	23615
877.93	23680
878.058	23608
878.185	23391
878.313	23630
878.441	23531
878.568	23421
878.696	23516
878.824	23676
878.951	23592
879.079	23722
879.206	23889
879.333	23847
879.461	23554
879.588	23665
879.715	23756
879.842	23847
879.97	23802
880.097	23478
880.224	23467
880.351	23604
880.478	23509
880.605	23421
880.732	23410
880.859	23596
880.986	23455
881.112	23448
881.239	23303
881.366	23140
881.493	23124
881.619	22965
881.746	23128
881.872	22900
881.999	23071
882.125	23006
882.252	22923
882.378	23105
882.505	22991
882.631	22889
882.757	22683
882.883	22801
883.01	22725
883.136	22664
883.262	22580
883.388	22538
883.514	22588
883.64	22759
883.766	22569
883.892	22470
884.018	22527
884.143	22611
884.269	22748
884.395	22394
884.52	22284
884.646	22238
884.772	22230
884.897	22268
885.023	22405
885.148	22356
885.274	22516
885.399	22462
885.524	22238
885.65	22344
885.775	22367
885.9	22211
886.025	22394
886.15	22390
886.275	22246
886.4	22246
886.525	22242
886.65	22204
886.775	22173
886.9	22379
887.025	22443
887.149	22287
887.274	22120
887.399	22188
887.523	22055
887.648	21949
887.773	21953
887.897	22139
888.021	22063
888.146	22025
888.27	22200
888.395	22188
888.519	22097
888.643	22135
888.767	22143
888.891	22032
889.015	21918
889.139	21991
889.263	21850
889.387	22021
889.511	22105
889.635	22017
889.759	21911
889.883	21850
890.006	21800
890.13	21945
890.254	21831
890.377	21644
890.501	21618
890.624	21656
890.748	21614
890.871	21564
890.995	21507
891.118	21336
891.241	21393
891.364	21348
891.488	21443
891.611	21496
891.734	21526
891.857	21405
891.98	21439
892.103	21405
892.226	21439
892.349	21291
892.471	21150
892.594	21351
892.717	21363
892.839	21291
892.962	21230
893.085	21408
893.207	21142
893.33	20994
893.452	21230
893.575	21351
893.697	21226
893.819	21450
893.941	21378
894.064	21412
894.186	21294
894.308	21203
894.43	21291
894.552	21340
894.674	21359
894.796	21195
894.918	21272
895.04	21256
895.161	21298
895.283	21294
895.405	21233
895.526	21268
895.648	21188
895.769	21237
895.891	21310
896.012	21264
896.134	21203
896.255	21313
896.376	21047
896.498	21294
896.619	21272
896.74	21222
896.861	21325
896.982	21614
897.103	21629
897.224	21515
897.345	21469
897.466	21504
897.587	21511
897.708	21557
897.828	21572
897.949	21386
898.07	21199
898.19	21298
898.311	21443
898.431	21428
898.552	21428
898.672	21378
898.792	21488
898.913	21473
899.033	21279
899.153	21218
899.273	21116
899.393	21157
899.513	21184
899.633	21218
899.753	21119
899.873	21142
899.993	21150
900.113	21108
900.232	21146
900.352	21089
900.472	20998
900.591	20819
900.711	20933
900.83	20910
900.95	21055
901.069	20960
901.189	20887
901.308	20648
901.427	20488
901.546	20415
901.665	20530
901.784	20568
901.904	20492
902.023	20278
902.141	20164
902.26	20008
902.379	20096
902.498	20069
902.617	19883
902.735	20122
902.854	19845
902.973	19932
903.091	19700
903.21	19715
903.328	19700
903.446	19540
903.565	19491
903.683	19582
903.801	19350
903.919	19468
904.038	19381
904.156	19274
904.274	19304
904.392	19335
904.51	19168
904.627	19251
904.745	19327
904.863	19225
904.981	19034
905.098	18867
905.216	18848
905.334	18905
905.451	18951
905.569	18795
905.686	18993
905.803	18859
905.921	18639
906.038	18768
906.155	18711
906.272	18578
906.389	18555
906.506	18422
906.623	18448
906.74	18410
906.857	18235
906.974	18266
907.091	18380
907.208	18574
907.324	18441
907.441	18365
907.557	18144
907.674	18155
907.79	17958
907.907	18064
908.023	18186
908.139	18030
908.256	18045
908.372	18015
908.488	17946
908.604	17882
908.72	17794
908.836	17870
908.952	17821
909.068	17767
909.184	17920
909.3	17840
909.415	18011
909.531	17961
909.647	17512
909.762	17581
909.878	17417
909.993	17611
910.108	17486
910.224	17497
910.339	17528
910.454	17398
910.57	17311
910.685	17200
910.8	17562
910.915	17486
911.03	17452
911.145	17086
911.259	17041
911.374	17071
911.489	17006
911.604	16938
911.718	16824
911.833	16843
911.947	16740
912.062	16634
912.176	16866
912.291	16831
912.405	16862
912.519	17006
912.633	16957
912.748	16904
912.862	16824
912.976	16748
913.09	16565
913.204	16618
913.318	16713
913.431	16668
913.545	16656
913.659	16820
913.772	16584
913.886	16527
914	16455
914.113	16466
914.226	16516
914.34	16512
914.453	16295
914.566	16466
914.68	16234
914.793	16306
914.906	16101
915.019	16090
915.132	15930
915.245	16017
915.358	15991
915.47	16101
915.583	16029
915.696	16021
915.809	16162
915.921	16177
916.034	15956
916.146	15915
916.259	15937
916.371	15964
916.483	16013
916.595	15747
916.708	15918
916.82	15812
916.932	15854
917.044	15827
917.156	15732
917.268	15686
917.38	15606
917.491	15618
917.603	15660
917.715	15656
917.826	15713
917.938	15515
918.049	15587
918.161	15568
918.272	15595
918.384	15728
918.495	15603
918.606	15447
918.717	15306
918.828	15420
918.939	15477
919.05	15348
919.161	15291
919.272	15100
919.383	15279
919.494	15450
919.604	15466
919.715	15351
919.826	15192
919.936	15237
920.047	15428
920.157	15260
920.267	15481
920.378	15329
920.488	15287
920.598	15477
920.708	15496
920.818	15408
920.928	15519
921.038	15603
921.148	15568
921.258	15252
921.368	15157
921.477	14994
921.587	15089
921.697	14933
921.806	15176
921.916	14876
922.025	14773
922.134	14655
922.244	14655
922.353	14853
922.462	14571
922.571	14503
922.68	14404
922.789	14313
922.898	14298
923.007	14126
923.116	14381
923.224	14313
923.333	14313
923.442	14115
923.55	14134
923.659	14164
923.767	14199
923.876	14035
923.984	14039
924.092	14043
924.201	13989
924.309	14046
924.417	14043
924.525	14005
924.633	13864
924.741	14777
924.849	13750
924.956	13837
925.064	13807
925.172	13582
925.279	13681
925.387	13689
925.494	13632
925.602	13769
925.709	13677
925.816	13464
925.924	13674
926.031	13734
926.138	13548
926.245	13636
926.352	13491
926.459	13666
926.566	13571
926.673	13529
926.779	13472
926.886	13346
926.993	13270
927.099	13171
927.206	13198
927.312	13149
927.419	13289
927.525	13164
927.631	13213
927.737	13141
927.843	13031
927.95	12939
928.056	13031
928.162	12996
928.267	13065
928.373	13742
928.479	13072
928.585	12897
928.69	12989
928.796	12985
928.901	12871
929.007	12745
929.112	12840
929.218	12798
929.323	12738
929.428	12776
929.533	12844
929.638	12635
929.743	12631
929.848	12779
929.953	12646
930.058	12563
930.163	12437
930.267	12502
930.372	12525
930.477	12372
930.581	12616
930.685	12388
930.79	12220
930.894	12296
930.998	12205
931.103	12445
931.207	12026
931.311	11977
931.415	11908
931.519	11680
931.623	11661
