Data from test_V78500241_1610.txt Node
Date: Fri Mar 25 15:52:57 CST 2022
User: usil
Spectrometer: V785-0024
Trigger mode: 0
Integration Time (sec): 4.000000E-1
Scans to average: 1
Nonlinearity correction enabled: false
Boxcar width: 0
Storing dark spectrum: false
XAxis mode: Wavelengths
Number of Pixels in Spectrum: 1024
>>>>>Begin Spectral Data<<<<<
801.071	28181
801.214	28150
801.356	28101
801.499	27873
801.641	27739
801.783	27743
801.926	27861
802.068	27667
802.211	27800
802.353	27618
802.496	27504
802.638	27500
802.78	27416
802.923	27473
803.065	27427
803.208	27427
803.35	27443
803.492	27709
803.635	27682
803.777	27564
803.919	27850
804.061	27998
804.204	27724
804.346	27595
804.488	27614
804.63	27629
804.773	27606
804.915	27709
805.057	27781
805.199	27576
805.341	27766
805.483	27816
805.626	27880
805.768	27797
805.91	27884
806.052	27926
806.194	27751
806.336	27991
806.478	27884
806.62	27785
806.762	27838
806.904	28135
807.046	28310
807.188	28341
807.33	28116
807.472	28299
807.614	28200
807.756	28105
807.898	28051
808.04	28044
808.182	28204
808.324	28169
808.465	28223
808.607	28417
808.749	28470
808.891	28607
809.033	28626
809.174	28611
809.316	28538
809.458	28565
809.6	28641
809.741	28569
809.883	28607
810.025	28744
810.166	28713
810.308	28782
810.45	28843
810.591	28767
810.733	28611
810.875	28538
811.016	28478
811.158	28337
811.299	28580
811.441	28653
811.582	28618
811.724	28557
811.865	28546
812.007	28428
812.148	28504
812.29	28622
812.431	28698
812.573	28805
812.714	28934
812.855	28949
812.997	29239
813.138	29250
813.279	29159
813.421	29128
813.562	28930
813.703	28862
813.845	28736
813.986	28500
814.127	28322
814.268	28242
814.41	28284
814.551	28291
814.692	28329
814.833	28105
814.974	28234
815.115	28398
815.256	28082
815.397	28219
815.539	28120
815.68	28013
815.821	27922
815.962	28010
816.103	27934
816.244	27880
816.385	27781
816.526	27827
816.666	27671
816.807	27496
816.948	27572
817.089	27583
817.23	27553
817.371	27515
817.512	27500
817.653	27382
817.793	27450
817.934	27568
818.075	27454
818.216	27545
818.356	27526
818.497	27272
818.638	27150
818.778	27237
818.919	27283
819.06	27275
819.2	27355
819.341	27469
819.481	27420
819.622	27770
819.762	27850
819.903	27698
820.043	27701
820.184	27610
820.324	27538
820.465	27682
820.605	27743
820.746	27576
820.886	27534
821.026	27568
821.167	27682
821.307	27732
821.447	27507
821.588	27485
821.728	27378
821.868	27081
822.008	27028
822.149	26895
822.289	26883
822.429	26693
822.569	26648
822.709	26689
822.849	26522
822.99	26317
823.13	26419
823.27	26389
823.41	26298
823.55	26176
823.69	26339
823.83	26332
823.97	26324
824.11	26122
824.25	26027
824.389	26062
824.529	26168
824.669	26187
824.809	26256
824.949	26142
825.089	26221
825.228	26180
825.368	26096
825.508	25875
825.648	26012
825.787	25932
825.927	26195
826.067	26073
826.206	26145
826.346	26168
826.485	26058
826.625	26081
826.765	26077
826.904	26100
827.044	25613
827.183	25780
827.323	25666
827.462	25704
827.601	25753
827.741	25750
827.88	25605
828.02	25632
828.159	25742
828.298	25624
828.437	25693
828.577	25689
828.716	25917
828.855	25651
828.994	25304
829.134	25426
829.273	25518
829.412	25312
829.551	25362
829.69	25297
829.829	25339
829.968	25396
830.107	25358
830.246	25301
830.385	25384
830.524	25282
830.663	25194
830.802	25175
830.941	24973
831.08	25084
831.219	25034
831.357	25168
831.496	25247
831.635	25095
831.774	25008
831.913	24814
832.051	24787
832.19	24909
832.329	24776
832.467	24574
832.606	24738
832.744	24486
832.883	24551
833.022	24620
833.16	24665
833.299	24719
833.437	24829
833.576	24741
833.714	24726
833.852	24871
833.991	24802
834.129	24932
834.267	24901
834.406	24802
834.544	24768
834.682	24772
834.821	24779
834.959	24916
835.097	24623
835.235	24901
835.373	24711
835.511	24814
835.65	24646
835.788	24551
835.926	24486
836.064	24486
836.202	24486
836.34	24502
836.478	24612
836.615	24563
836.753	24593
836.891	24623
837.029	24715
837.167	24547
837.305	24441
837.443	24448
837.58	24350
837.718	24502
837.856	24448
837.993	24292
838.131	24369
838.269	24300
838.406	24315
838.544	24178
838.681	24091
838.819	23999
838.956	23931
839.094	24011
839.231	23923
839.369	24178
839.506	24251
839.643	23977
839.781	23927
839.918	23843
840.055	23855
840.193	23817
840.33	23775
840.467	23668
840.604	23771
840.742	23980
840.879	23615
841.016	23665
841.153	23703
841.29	23885
841.427	23684
841.564	23722
841.701	23809
841.838	23691
841.975	23703
842.112	23668
842.249	23524
842.385	23604
842.522	23859
842.659	23497
842.796	23478
842.933	23570
843.069	23554
843.206	23509
843.343	23619
843.479	23554
843.616	23463
843.752	23330
843.889	23311
844.025	23410
844.162	23231
844.298	23372
844.435	23322
844.571	23170
844.708	23406
844.844	23459
844.98	23414
845.117	23505
845.253	23330
845.389	23121
845.525	23337
845.661	23185
845.798	23090
845.934	23162
846.07	23041
846.206	23079
846.342	23204
846.478	23083
846.614	22820
846.75	22805
846.886	22862
847.022	22942
847.158	22850
847.294	22805
847.429	22900
847.565	22744
847.701	22961
847.837	22531
847.972	22497
848.108	22516
848.244	22519
848.379	22405
848.515	22352
848.65	22291
848.786	22306
848.921	22459
849.057	22523
849.192	22394
849.328	22500
849.463	22215
849.598	22234
849.734	22329
849.869	22188
850.004	22048
850.14	22185
850.275	22276
850.41	22063
850.545	22002
850.68	22097
850.815	22219
850.95	22120
851.085	22337
851.22	22207
851.355	22215
851.49	22090
851.625	22166
851.76	22185
851.895	22044
852.03	22143
852.165	22215
852.299	22124
852.434	22135
852.569	22211
852.703	22166
852.838	22093
852.973	22177
853.107	22291
853.242	22207
853.376	21975
853.511	21816
853.645	21892
853.78	22025
853.914	22021
854.048	22017
854.183	21918
854.317	21956
854.451	22055
854.585	22013
854.72	21915
854.854	22109
854.988	21941
855.122	21895
855.256	21739
855.39	21892
855.524	22040
855.658	21934
855.792	21964
855.926	22055
856.06	22021
856.194	22093
856.327	21994
856.461	21899
856.595	21899
856.729	21949
856.862	22055
856.996	21975
857.13	21930
857.263	22063
857.397	22124
857.53	22013
857.664	21915
857.797	21968
857.931	22036
858.064	21873
858.197	22120
858.331	21831
858.464	21781
858.597	21926
858.731	21964
858.864	21857
858.997	21857
859.13	21873
859.263	21979
859.396	22017
859.529	21899
859.662	21934
859.795	21953
859.928	21842
860.061	22044
860.194	22139
860.327	22017
860.46	21968
860.592	22070
860.725	21979
860.858	22029
860.99	22025
861.123	21888
861.256	21899
861.388	21842
861.521	22740
861.653	21656
861.786	21682
861.918	21595
862.05	21781
862.183	21892
862.315	21865
862.447	21873
862.58	21884
862.712	21698
862.844	21660
862.976	21812
863.108	21690
863.24	22067
863.372	21564
863.504	21568
863.636	21618
863.768	21675
863.9	21724
864.032	21652
864.164	21644
864.296	21724
864.428	21739
864.559	21705
864.691	21679
864.823	21671
864.954	21637
865.086	21701
865.217	21629
865.349	21431
865.48	21462
865.612	21572
865.743	21641
865.875	21477
866.006	21477
866.137	21519
866.269	21542
866.4	21545
866.531	21454
866.662	21431
866.793	21443
866.924	21504
867.055	21572
867.186	21485
867.317	21431
867.448	21260
867.579	21378
867.71	21412
867.841	21462
867.972	21526
868.103	21431
868.233	21496
868.364	21469
868.495	21633
868.625	21686
868.756	21800
868.886	21644
869.017	21682
869.147	21804
869.278	21816
869.408	21743
869.539	21812
869.669	21736
869.799	21770
869.929	21785
870.06	21751
870.19	21991
870.32	22006
870.45	21968
870.58	22162
870.71	22223
870.84	22086
870.97	22200
871.1	22131
871.23	22265
871.36	22265
871.489	22291
871.619	22325
871.749	22291
871.879	22402
872.008	22440
872.138	22344
872.267	22337
872.397	22181
872.526	22109
872.656	22185
872.785	22196
872.915	22322
873.044	22504
873.173	22219
873.303	22268
873.432	22413
873.561	22428
873.69	22512
873.819	22356
873.948	22363
874.077	22333
874.206	22402
874.335	22375
874.464	22409
874.593	22664
874.722	22417
874.851	22557
874.979	22634
875.108	22550
875.237	22409
875.365	22527
875.494	22481
875.623	22607
875.751	22489
875.88	22550
876.008	22580
876.136	22641
876.265	22805
876.393	22934
876.521	22987
876.65	22984
876.778	22919
876.906	22835
877.034	22900
877.162	22946
877.29	22809
877.418	22892
877.546	22957
877.674	22968
877.802	22881
877.93	22896
878.058	22839
878.185	22721
878.313	22782
878.441	22812
878.568	22668
878.696	22919
878.824	22923
878.951	22953
879.079	23212
879.206	23189
879.333	23102
879.461	22824
879.588	23067
879.715	23044
879.842	23197
879.97	23079
880.097	22725
880.224	22683
880.351	22790
880.478	22668
880.605	22599
880.732	22733
880.859	22965
880.986	22744
881.112	22740
881.239	22675
881.366	22573
881.493	22325
881.619	22322
881.746	22299
881.872	22265
881.999	22257
882.125	22204
882.252	22242
882.378	22261
882.505	22322
882.631	22097
882.757	21987
882.883	22078
883.01	21991
883.136	21960
883.262	21861
883.388	21800
883.514	21819
883.64	21915
883.766	21918
883.892	21728
884.018	21709
884.143	21994
884.269	21960
884.395	21583
884.52	21572
884.646	21610
884.772	21511
884.897	21526
885.023	21641
885.148	21633
885.274	21766
885.399	21732
885.524	21637
885.65	21648
885.775	21694
885.9	21534
886.025	21660
886.15	21660
886.275	21694
886.4	21435
886.525	21576
886.65	21485
886.775	21629
886.9	21648
887.025	21755
887.149	21477
887.274	21401
887.399	21321
887.523	21447
887.648	21355
887.773	21245
887.897	21420
888.021	21439
888.146	21291
888.27	21488
888.395	21439
888.519	21458
888.643	21363
888.767	21283
888.891	21157
889.015	21226
889.139	21252
889.263	21138
889.387	21211
889.511	21378
889.635	21283
889.759	21203
889.883	21123
890.006	21093
890.13	21222
890.254	21112
890.377	21127
890.501	20807
890.624	20971
890.748	21047
890.871	20845
890.995	20845
891.118	20670
891.241	20781
891.364	20807
891.488	20731
891.611	20754
891.734	20758
891.857	20727
891.98	20492
892.103	20769
892.226	20712
892.349	20613
892.471	20594
892.594	20571
892.717	20552
892.839	20537
892.962	20594
893.085	20621
893.207	20560
893.33	20446
893.452	20629
893.575	20564
893.697	20659
893.819	20819
893.941	20758
894.064	20743
894.186	20659
894.308	20545
894.43	20724
894.552	20758
894.674	20701
894.796	20549
894.918	20568
895.04	20571
895.161	20613
895.283	20587
895.405	20511
895.526	20651
895.648	20545
895.769	20727
895.891	20541
896.012	20686
896.134	20682
896.255	20712
896.376	20514
896.498	20549
896.619	20682
896.74	20526
896.861	20640
896.982	20918
897.103	21017
897.224	20910
897.345	20826
897.466	20849
897.587	20864
897.708	21036
897.828	20804
897.949	20663
898.07	20621
898.19	20640
898.311	20883
898.431	20762
898.552	20834
898.672	20804
898.792	20887
898.913	20796
899.033	20609
899.153	20511
899.273	20454
899.393	20488
899.513	20594
899.633	20480
899.753	20541
899.873	20503
899.993	20473
900.113	20431
900.232	20579
900.352	20492
900.472	20370
900.591	20336
900.711	20396
900.83	20214
900.95	20282
901.069	20393
901.189	20248
901.308	19955
901.427	19841
901.546	19871
901.665	19879
901.784	20077
901.904	19704
902.023	19704
902.141	19457
902.26	19411
902.379	19552
902.498	19533
902.617	19381
902.735	19403
902.854	19255
902.973	19255
903.091	19179
903.21	19076
903.328	19050
903.446	19012
903.565	19015
903.683	18897
903.801	18623
903.919	18768
904.038	18817
904.156	18734
904.274	18688
904.392	18620
904.51	18559
904.627	18589
904.745	18772
904.863	18654
904.981	18494
905.098	18338
905.216	18319
905.334	18353
905.451	18323
905.569	18163
905.686	18300
905.803	18376
905.921	18091
906.038	18216
906.155	18159
906.272	18022
906.389	18049
906.506	17863
906.623	17882
906.74	17866
906.857	17737
906.974	17729
907.091	17901
907.208	17961
907.324	17783
907.441	17760
907.557	17615
907.674	17539
907.79	17497
907.907	17627
908.023	17551
908.139	17512
908.256	17551
908.372	17463
908.488	17478
908.604	17265
908.72	17250
908.836	17318
908.952	17239
909.068	17269
909.184	17303
909.3	17246
909.415	17280
909.531	17185
909.647	16999
909.762	16927
909.878	17010
909.993	17056
910.108	16938
910.224	16934
910.339	16892
910.454	16850
910.57	16759
910.685	16729
910.8	17029
910.915	16889
911.03	16786
911.145	16512
911.259	16565
911.374	16470
911.489	16497
911.604	16417
911.718	16261
911.833	16295
911.947	16154
912.062	16150
912.176	16356
912.291	16348
912.405	16299
912.519	16489
912.633	16569
912.748	16352
912.862	16158
912.976	16051
913.09	15922
913.204	16086
913.318	16139
913.431	16192
913.545	16116
913.659	16185
913.772	15956
913.886	15994
914	15892
914.113	15979
914.226	15964
914.34	15972
914.453	15827
914.566	15884
914.68	15819
914.793	15690
914.906	15660
915.019	15564
915.132	15370
915.245	15507
915.358	15511
915.47	15507
915.583	15469
915.696	15500
915.809	15633
915.921	15591
916.034	15386
916.146	15363
916.259	15313
916.371	15389
916.483	15492
916.595	15325
916.708	15382
916.82	15313
916.932	15252
917.044	15268
917.156	15268
917.268	15138
917.38	15173
917.491	15131
917.603	15203
917.715	15188
917.826	15207
917.938	14986
918.049	14971
918.161	15047
918.272	15195
918.384	15268
918.495	15047
918.606	14876
918.717	14815
918.828	14819
918.939	14944
919.05	14785
919.161	14823
919.272	14712
919.383	14731
919.494	14830
919.604	15043
919.715	14906
919.826	14765
919.936	14815
920.047	14887
920.157	14785
920.267	15055
920.378	14838
920.488	14842
920.598	14971
920.708	15142
920.818	15013
920.928	14986
921.038	15051
921.148	15058
921.258	14716
921.368	14632
921.477	14579
921.587	14625
921.697	14492
921.806	14473
921.916	14427
922.025	14385
922.134	14221
922.244	14130
922.353	14191
922.462	14111
922.571	14103
922.68	13875
922.789	13814
922.898	13887
923.007	13788
923.116	13849
923.224	13860
923.333	13811
923.442	13734
923.55	13696
923.659	13742
923.767	13776
923.876	13632
923.984	13681
924.092	13677
924.201	13613
924.309	13491
924.417	13544
924.525	13495
924.633	13613
924.741	14511
924.849	13327
924.956	13407
925.064	13324
925.172	13221
925.279	13285
925.387	13297
925.494	13251
925.602	13297
925.709	13346
925.816	13240
925.924	13217
926.031	13327
926.138	13152
926.245	13236
926.352	13015
926.459	13179
926.566	13266
926.673	13050
926.779	13012
926.886	12932
926.993	12844
927.099	12840
927.206	12669
927.312	12764
927.419	12806
927.525	12825
927.631	12814
927.737	12730
927.843	12665
927.95	12506
928.056	12642
928.162	12620
928.267	12669
928.373	13282
928.479	12715
928.585	12452
928.69	12608
928.796	12597
928.901	12483
929.007	12258
929.112	12467
929.218	12403
929.323	12372
929.428	12319
929.533	12479
929.638	12315
929.743	12296
929.848	12251
929.953	12258
930.058	12213
930.163	12041
930.267	12060
930.372	12155
930.477	11969
930.581	12171
930.685	12064
930.79	11828
930.894	11946
930.998	11885
931.103	12019
931.207	11634
931.311	11528
931.415	11478
931.519	11284
931.623	11277
