Data from test_V78500241_359.txt Node
Date: Fri Mar 25 15:44:17 CST 2022
User: usil
Spectrometer: V785-0024
Trigger mode: 0
Integration Time (sec): 4.000000E-1
Scans to average: 1
Nonlinearity correction enabled: false
Boxcar width: 0
Storing dark spectrum: false
XAxis mode: Wavelengths
Number of Pixels in Spectrum: 1024
>>>>>Begin Spectral Data<<<<<
801.071	29752
801.214	29687
801.356	29554
801.499	29528
801.641	29372
801.783	29398
801.926	29474
802.068	29368
802.211	29231
802.353	29159
802.496	29018
802.638	28961
802.78	28972
802.923	28896
803.065	28965
803.208	28866
803.35	29094
803.492	29147
803.635	29132
803.777	29022
803.919	29128
804.061	29543
804.204	29296
804.346	29258
804.488	29178
804.63	29326
804.773	29189
804.915	29231
805.057	29391
805.199	29265
805.341	29292
805.483	29318
805.626	29193
805.768	29277
805.91	29265
806.052	29280
806.194	29265
806.336	29463
806.478	29402
806.62	29368
806.762	29455
806.904	29646
807.046	29996
807.188	29824
807.33	29695
807.472	29878
807.614	29836
807.756	29745
807.898	29596
808.04	29440
808.182	29589
808.324	29684
808.465	29539
808.607	29802
808.749	29866
808.891	30057
809.033	30110
809.174	30053
809.316	29961
809.458	30117
809.6	29866
809.741	30273
809.883	30319
810.025	30270
810.166	30270
810.308	30403
810.45	30182
810.591	30216
810.733	30121
810.875	29927
811.016	29813
811.158	30068
811.299	30174
811.441	30140
811.582	30182
811.724	30102
811.865	30057
812.007	30098
812.148	30034
812.29	30087
812.431	30133
812.573	30433
812.714	30395
812.855	30525
812.997	30616
813.138	30791
813.279	30665
813.421	30635
813.562	30464
813.703	30273
813.845	30285
813.986	29916
814.127	29676
814.268	29828
814.41	29737
814.551	29691
814.692	29710
814.833	29642
814.974	29520
815.115	29699
815.256	29570
815.397	29459
815.539	29581
815.68	29566
815.821	29482
815.962	29520
816.103	29482
816.244	29337
816.385	29223
816.526	29246
816.666	29094
816.807	28904
816.948	29071
817.089	29193
817.23	28976
817.371	29003
817.512	28919
817.653	28835
817.793	28854
817.934	28946
818.075	28946
818.216	28858
818.356	28801
818.497	28831
818.638	28592
818.778	28767
818.919	28694
819.06	28755
819.2	28748
819.341	28888
819.481	28869
819.622	29029
819.762	29014
819.903	29208
820.043	29162
820.184	28942
820.324	28911
820.465	29060
820.605	29010
820.746	29022
820.886	28816
821.026	28908
821.167	28923
821.307	28987
821.447	28972
821.588	28790
821.728	28740
821.868	28455
822.008	28504
822.149	28337
822.289	28401
822.429	28120
822.569	28063
822.709	28002
822.849	27823
822.99	27914
823.13	27785
823.27	27808
823.41	27705
823.55	27420
823.69	27583
823.83	27720
823.97	27576
824.11	27488
824.25	27408
824.389	27534
824.529	27477
824.669	27439
824.809	27656
824.949	27553
825.089	27530
825.228	27583
825.368	27355
825.508	27241
825.648	27386
825.787	27427
825.927	27363
826.067	27093
826.206	27272
826.346	27264
826.485	27313
826.625	27233
826.765	27389
826.904	27150
827.044	26994
827.183	27096
827.323	27070
827.462	26994
827.601	26918
827.741	27020
827.88	26986
828.02	26834
828.159	26853
828.298	26807
828.437	26940
828.577	26918
828.716	27146
828.855	26910
828.994	26743
829.134	26602
829.273	26750
829.412	26587
829.551	26587
829.69	26594
829.829	26750
829.968	26727
830.107	26724
830.246	26488
830.385	26640
830.524	26541
830.663	26381
830.802	26484
830.941	26161
831.08	26214
831.219	26256
831.357	26187
831.496	26530
831.635	26214
831.774	26043
831.913	26062
832.051	25982
832.19	26012
832.329	26115
832.467	25894
832.606	25845
832.744	25841
832.883	25906
833.022	25780
833.16	25830
833.299	25898
833.437	25833
833.576	25830
833.714	25955
833.852	26088
833.991	25917
834.129	25982
834.267	25966
834.406	25883
834.544	25917
834.682	25807
834.821	25811
834.959	25978
835.097	25704
835.235	25989
835.373	25818
835.511	25902
835.65	25757
835.788	25757
835.926	25578
836.064	25605
836.202	25518
836.34	25597
836.478	25788
836.615	25746
836.753	25738
836.891	25681
837.029	25795
837.167	25712
837.305	25624
837.443	25613
837.58	25559
837.718	25510
837.856	25472
837.993	25464
838.131	25460
838.269	25255
838.406	25365
838.544	25217
838.681	25285
838.819	25046
838.956	24802
839.094	24951
839.231	24878
839.369	25160
839.506	25274
839.643	25183
839.781	24905
839.918	24856
840.055	24939
840.193	24924
840.33	24810
840.467	24829
840.604	24932
840.742	25126
840.879	24658
841.016	24654
841.153	24738
841.29	24886
841.427	24722
841.564	24692
841.701	24757
841.838	24802
841.975	24616
842.112	24677
842.249	24669
842.385	24585
842.522	24802
842.659	24559
842.796	24612
842.933	24551
843.069	24422
843.206	24418
843.343	24464
843.479	24467
843.616	24574
843.752	24220
843.889	24296
844.025	24403
844.162	24308
844.298	24498
844.435	24266
844.571	24239
844.708	24300
844.844	24372
844.98	24490
845.117	24369
845.253	24064
845.389	24026
845.525	24197
845.661	24136
845.798	23965
845.934	23889
846.07	23961
846.206	24030
846.342	24095
846.478	23870
846.614	23722
846.75	23551
846.886	23794
847.022	23756
847.158	23649
847.294	23729
847.429	23764
847.565	23604
847.701	24030
847.837	23436
847.972	23345
848.108	23535
848.244	23421
848.379	23288
848.515	23303
848.65	23360
848.786	23296
848.921	23387
849.057	23250
849.192	23337
849.328	23284
849.463	23204
849.598	23090
849.734	23128
849.869	23048
850.004	22999
850.14	23079
850.275	23037
850.41	22881
850.545	23086
850.68	22858
850.815	23048
850.95	22938
851.085	23067
851.22	23041
851.355	23067
851.49	23025
851.625	22824
851.76	23105
851.895	22869
852.03	22820
852.165	22930
852.299	22946
852.434	22991
852.569	22930
852.703	22835
852.838	23064
852.973	23193
853.107	23204
853.242	22957
853.376	22805
853.511	22611
853.645	22767
853.78	22904
853.914	22831
854.048	22736
854.183	22710
854.317	22831
854.451	23044
854.585	22908
854.72	22786
854.854	22911
854.988	22672
855.122	22824
855.256	22611
855.39	22786
855.524	22858
855.658	22877
855.792	22786
855.926	22934
856.06	22847
856.194	23003
856.327	22755
856.461	22691
856.595	22664
856.729	22790
856.862	23006
856.996	22847
857.13	22919
857.263	22885
857.397	22900
857.53	22660
857.664	22771
857.797	22778
857.931	22946
858.064	22797
858.197	22904
858.331	22740
858.464	22797
858.597	22611
858.731	22626
858.864	22820
858.997	22622
859.13	22694
859.263	22774
859.396	22820
859.529	22713
859.662	22729
859.795	22729
859.928	22824
860.061	22889
860.194	22934
860.327	22752
860.46	22698
860.592	22839
860.725	22896
860.858	22839
860.99	22744
861.123	22668
861.256	22759
861.388	22702
861.521	23318
861.653	22691
861.786	22584
861.918	22550
862.05	22710
862.183	22649
862.315	22755
862.447	22866
862.58	22664
862.712	22527
862.844	22402
862.976	22538
863.108	22611
863.24	22862
863.372	22481
863.504	22329
863.636	22565
863.768	22459
863.9	22356
864.032	22367
864.164	22421
864.296	22386
864.428	22497
864.559	22557
864.691	22493
864.823	22497
864.954	22459
865.086	22284
865.217	22280
865.349	22192
865.48	22462
865.612	22333
865.743	22485
865.875	22344
866.006	22230
866.137	22421
866.269	22333
866.4	22238
866.531	22287
866.662	22249
866.793	22181
866.924	22261
867.055	22185
867.186	22303
867.317	22265
867.448	22162
867.579	22177
867.71	22025
867.841	22070
867.972	22261
868.103	22207
868.233	22207
868.364	22253
868.495	22314
868.625	22470
868.756	22618
868.886	22375
869.017	22382
869.147	22618
869.278	22516
869.408	22459
869.539	22356
869.669	22428
869.799	22504
869.929	22634
870.06	22493
870.19	22717
870.32	22725
870.45	22755
870.58	22900
870.71	22991
870.84	23014
870.97	22790
871.1	22866
871.23	22972
871.36	23113
871.489	22953
871.619	22965
871.749	23056
871.879	23128
872.008	23109
872.138	23132
872.267	23094
872.397	22949
872.526	22873
872.656	22831
872.785	22809
872.915	22995
873.044	23155
873.173	23052
873.303	22957
873.432	23105
873.561	23147
873.69	22995
873.819	23067
873.948	23014
874.077	23022
874.206	23006
874.335	23044
874.464	23212
874.593	23337
874.722	23288
874.851	23227
874.979	23231
875.108	23383
875.237	23235
875.365	23212
875.494	23356
875.623	23376
875.751	23284
875.88	23193
876.008	23444
876.136	23554
876.265	23608
876.393	23775
876.521	23627
876.65	23699
876.778	23558
876.906	23531
877.034	23531
877.162	23729
877.29	23547
877.418	23687
877.546	23611
877.674	23668
877.802	23634
877.93	23474
878.058	23562
878.185	23467
878.313	23501
878.441	23638
878.568	23520
878.696	23547
878.824	23558
878.951	23718
879.079	23840
879.206	23923
879.333	23729
879.461	23630
879.588	23733
879.715	23729
879.842	23901
879.97	23577
880.097	23440
880.224	23414
880.351	23429
880.478	23387
880.605	23299
880.732	23429
880.859	23687
880.986	23535
881.112	23406
881.239	23307
881.366	23315
881.493	23018
881.619	23022
881.746	23041
881.872	23048
881.999	22987
882.125	22991
882.252	23029
882.378	22923
882.505	23083
882.631	22755
882.757	22771
882.883	22691
883.01	22786
883.136	22645
883.262	22512
883.388	22485
883.514	22816
883.64	22672
883.766	22527
883.892	22493
884.018	22447
884.143	22535
884.269	22664
884.395	22382
884.52	22284
884.646	22318
884.772	22246
884.897	22181
885.023	22325
885.148	22329
885.274	22512
885.399	22360
885.524	22299
885.65	22272
885.775	22303
885.9	22337
886.025	22409
886.15	22261
886.275	22280
886.4	22188
886.525	22246
886.65	22211
886.775	22169
886.9	22325
887.025	22497
887.149	22341
887.274	22093
887.399	21983
887.523	21975
887.648	22055
887.773	21953
887.897	22105
888.021	22116
888.146	21941
888.27	22230
888.395	22124
888.519	22086
888.643	22067
888.767	21987
888.891	21911
889.015	21854
889.139	21759
889.263	21785
889.387	21842
889.511	22124
889.635	21945
889.759	21728
889.883	21770
890.006	21857
890.13	21781
890.254	21770
890.377	21743
890.501	21496
890.624	21526
890.748	21599
890.871	21325
890.995	21386
891.118	21321
891.241	21386
891.364	21310
891.488	21428
891.611	21386
891.734	21428
891.857	21306
891.98	21466
892.103	21355
892.226	21367
892.349	21260
892.471	21226
892.594	21272
892.717	21123
892.839	21279
892.962	21355
893.085	21169
893.207	21207
893.33	21207
893.452	21203
893.575	21173
893.697	21096
893.819	21386
893.941	21374
894.064	21321
894.186	21112
894.308	21135
894.43	21351
894.552	21389
894.674	21340
894.796	21100
894.918	21218
895.04	21260
895.161	21313
895.283	21230
895.405	21070
895.526	21192
895.648	21241
895.769	21370
895.891	21218
896.012	21268
896.134	21195
896.255	21203
896.376	21268
896.498	21230
896.619	21249
896.74	21252
896.861	21283
896.982	21603
897.103	21720
897.224	21534
897.345	21557
897.466	21477
897.587	21553
897.708	21572
897.828	21500
897.949	21439
898.07	21252
898.19	21348
898.311	21526
898.431	21313
898.552	21340
898.672	21317
898.792	21488
898.913	21389
899.033	21355
899.153	21241
899.273	21032
899.393	21169
899.513	21207
899.633	21119
899.753	21142
899.873	21104
899.993	21252
900.113	21112
900.232	21157
900.352	21070
900.472	20891
900.591	20823
900.711	20914
900.83	20899
900.95	20971
901.069	20914
901.189	20727
901.308	20613
901.427	20400
901.546	20503
901.665	20492
901.784	20442
901.904	20294
902.023	20259
902.141	20054
902.26	20031
902.379	20218
902.498	20005
902.617	19868
902.735	20073
902.854	19879
902.973	19955
903.091	19696
903.21	19685
903.328	19742
903.446	19563
903.565	19468
903.683	19358
903.801	19304
903.919	19320
904.038	19316
904.156	19156
904.274	19289
904.392	19141
904.51	19084
904.627	19217
904.745	19198
904.863	19206
904.981	18973
905.098	18859
905.216	18795
905.334	18814
905.451	18833
905.569	18806
905.686	18749
905.803	18829
905.921	18563
906.038	18753
906.155	18700
906.272	18452
906.389	18448
906.506	18365
906.623	18327
906.74	18327
906.857	18178
906.974	18338
907.091	18460
907.208	18448
907.324	18262
907.441	18190
907.557	18110
907.674	17954
907.79	17980
907.907	18106
908.023	18019
908.139	18083
908.256	17935
908.372	17931
908.488	17889
908.604	17802
908.72	17726
908.836	17722
908.952	17707
909.068	17687
909.184	17817
909.3	17661
909.415	17722
909.531	17729
909.647	17524
909.762	17406
909.878	17322
909.993	17330
910.108	17322
910.224	17356
910.339	17395
910.454	17258
910.57	17254
910.685	17090
910.8	17280
910.915	17292
911.03	17166
911.145	17064
911.259	16938
911.374	16923
911.489	16934
911.604	16824
911.718	16675
911.833	16752
911.947	16656
912.062	16512
912.176	16691
912.291	16733
912.405	16698
912.519	16980
912.633	16767
912.748	16755
912.862	16698
912.976	16565
913.09	16382
913.204	16417
913.318	16497
913.431	16596
913.545	16660
913.659	16691
913.772	16295
913.886	16344
914	16268
914.113	16280
914.226	16462
914.34	16421
914.453	16150
914.566	16363
914.68	16249
914.793	16150
914.906	15941
915.019	15926
915.132	15808
915.245	15873
915.358	15979
915.47	15899
915.583	15831
915.696	15869
915.809	16078
915.921	15945
916.034	15816
916.146	15755
916.259	15728
916.371	15816
916.483	15823
916.595	15736
916.708	15686
916.82	15694
916.932	15698
917.044	15682
917.156	15644
917.268	15534
917.38	15599
917.491	15431
917.603	15462
917.715	15595
917.826	15534
917.938	15405
918.049	15348
918.161	15481
918.272	15473
918.384	15428
918.495	15454
918.606	15351
918.717	15233
918.828	15359
918.939	15211
919.05	15157
919.161	15272
919.272	15036
919.383	15093
919.494	15252
919.604	15408
919.715	15108
919.826	15100
919.936	15180
920.047	15214
920.157	15192
920.267	15306
920.378	15199
920.488	15146
920.598	15389
920.708	15492
920.818	15275
920.928	15283
921.038	15416
921.148	15447
921.258	15093
921.368	14994
921.477	14929
921.587	14823
921.697	14785
921.806	14883
921.916	14750
922.025	14571
922.134	14522
922.244	14438
922.353	14602
922.462	14423
922.571	14362
922.68	14161
922.789	14218
922.898	14164
923.007	14081
923.116	14126
923.224	14043
923.333	14077
923.442	14016
923.55	13940
923.659	13940
923.767	13936
923.876	13875
923.984	14024
924.092	13879
924.201	13887
924.309	13826
924.417	13875
924.525	13757
924.633	13856
924.741	14571
924.849	13613
924.956	13727
925.064	13616
925.172	13552
925.279	13571
925.387	13674
925.494	13594
925.602	13662
925.709	13491
925.816	13449
925.924	13381
926.031	13533
926.138	13480
926.245	13514
926.352	13354
926.459	13449
926.566	13632
926.673	13373
926.779	13297
926.886	13289
926.993	13183
927.099	13069
927.206	13015
927.312	13027
927.419	13194
927.525	13095
927.631	13080
927.737	12886
927.843	12951
927.95	12837
928.056	12871
928.162	12966
928.267	12939
928.373	13468
928.479	12867
928.585	12753
928.69	12878
928.796	12954
928.901	12821
929.007	12585
929.112	12715
929.218	12696
929.323	12669
929.428	12662
929.533	12722
929.638	12631
929.743	12608
929.848	12623
929.953	12559
930.058	12357
930.163	12391
930.267	12376
930.372	12422
930.477	12209
930.581	12502
930.685	12311
930.79	12186
930.894	12171
930.998	12129
931.103	12258
931.207	11870
931.311	11794
931.415	11748
931.519	11566
931.623	11474
