Data from test_V78500241_2693.txt Node
Date: Fri Mar 25 16:00:27 CST 2022
User: usil
Spectrometer: V785-0024
Trigger mode: 0
Integration Time (sec): 4.000000E-1
Scans to average: 1
Nonlinearity correction enabled: false
Boxcar width: 0
Storing dark spectrum: false
XAxis mode: Wavelengths
Number of Pixels in Spectrum: 1024
>>>>>Begin Spectral Data<<<<<
801.071	28839
801.214	28850
801.356	28588
801.499	28554
801.641	28455
801.783	28474
801.926	28542
802.068	28405
802.211	28337
802.353	28375
802.496	28207
802.638	28249
802.78	28097
802.923	28097
803.065	28032
803.208	28093
803.35	28128
803.492	28223
803.635	28481
803.777	28135
803.919	28386
804.061	28771
804.204	28375
804.346	28303
804.488	28230
804.63	28314
804.773	28249
804.915	28352
805.057	28455
805.199	28287
805.341	28451
805.483	28542
805.626	28664
805.768	28470
805.91	28634
806.052	28588
806.194	28394
806.336	28660
806.478	28379
806.62	28546
806.762	28698
806.904	28881
807.046	28965
807.188	28946
807.33	28991
807.472	29037
807.614	28900
807.756	28881
807.898	28778
808.04	28672
808.182	28767
808.324	28873
808.465	28877
808.607	29052
808.749	29223
808.891	29326
809.033	29486
809.174	29463
809.316	29178
809.458	29242
809.6	29018
809.741	29288
809.883	29299
810.025	29611
810.166	29429
810.308	29604
810.45	29345
810.591	29341
810.733	29048
810.875	29159
811.016	28999
811.158	29079
811.299	29197
811.441	29558
811.582	29326
811.724	29239
811.865	29189
812.007	29124
812.148	29379
812.29	29250
812.431	29562
812.573	29531
812.714	29661
812.855	29691
812.997	29729
813.138	29794
813.279	29843
813.421	29752
813.562	29866
813.703	29520
813.845	29589
813.986	29235
814.127	29094
814.268	28972
814.41	28949
814.551	28938
814.692	28957
814.833	28957
814.974	28972
815.115	28888
815.256	28824
815.397	28774
815.539	28790
815.68	28660
815.821	28729
815.962	28828
816.103	28763
816.244	28603
816.385	28538
816.526	28588
816.666	28455
816.807	28246
816.948	28272
817.089	28299
817.23	28432
817.371	28211
817.512	28344
817.653	28185
817.793	28322
817.934	28265
818.075	28223
818.216	28371
818.356	28192
818.497	28246
818.638	28017
818.778	28010
818.919	27934
819.06	28131
819.2	28067
819.341	28265
819.481	28230
819.622	28386
819.762	28550
819.903	28588
820.043	28531
820.184	28394
820.324	28455
820.465	28440
820.605	28379
820.746	28451
820.886	28322
821.026	28409
821.167	28325
821.307	28428
821.447	28211
821.588	28074
821.728	28128
821.868	27838
822.008	27823
822.149	27759
822.289	27838
822.429	27530
822.569	27408
822.709	27500
822.849	27359
822.99	27268
823.13	27302
823.27	27119
823.41	27081
823.55	27032
823.69	27199
823.83	27150
823.97	27074
824.11	26887
824.25	26781
824.389	26887
824.529	26914
824.669	26899
824.809	27017
824.949	27195
825.089	26960
825.228	26933
825.368	26925
825.508	26777
825.648	26868
825.787	26765
825.927	26910
826.067	26811
826.206	26804
826.346	26899
826.485	26834
826.625	26811
826.765	27081
826.904	26883
827.044	26632
827.183	26606
827.323	26438
827.462	26667
827.601	26575
827.741	26537
827.88	26682
828.02	26469
828.159	26377
828.298	26518
828.437	26613
828.577	26492
828.716	26609
828.855	26415
828.994	26233
829.134	26240
829.273	26161
829.412	26248
829.551	26172
829.69	26358
829.829	26301
829.968	26210
830.107	26427
830.246	26218
830.385	26153
830.524	26210
830.663	26088
830.802	26062
830.941	25864
831.08	25852
831.219	25940
831.357	25822
831.496	26096
831.635	25833
831.774	25723
831.913	25712
832.051	25731
832.19	25662
832.329	25533
832.467	25670
832.606	25430
832.744	25381
832.883	25590
833.022	25373
833.16	25438
833.299	25533
833.437	25521
833.576	25563
833.714	25578
833.852	25628
833.991	25605
834.129	25799
834.267	25537
834.406	25502
834.544	25544
834.682	25655
834.821	25499
834.959	25681
835.097	25476
835.235	25605
835.373	25468
835.511	25571
835.65	25457
835.788	25445
835.926	25324
836.064	25282
836.202	25327
836.34	25289
836.478	25396
836.615	25236
836.753	25316
836.891	25529
837.029	25331
837.167	25358
837.305	25232
837.443	25354
837.58	25240
837.718	25228
837.856	25175
837.993	25019
838.131	25107
838.269	25114
838.406	25057
838.544	25122
838.681	24810
838.819	24837
838.956	24730
839.094	24696
839.231	24681
839.369	24825
839.506	25012
839.643	24802
839.781	24719
839.918	24502
840.055	24700
840.193	24555
840.33	24650
840.467	24601
840.604	24700
840.742	24802
840.879	24418
841.016	24578
841.153	24418
841.29	24673
841.427	24593
841.564	24658
841.701	24502
841.838	24513
841.975	24399
842.112	24471
842.249	24311
842.385	24251
842.522	24563
842.659	24525
842.796	24369
842.933	24304
843.069	24330
843.206	24178
843.343	24308
843.479	24232
843.616	24239
843.752	24209
843.889	24072
844.025	24239
844.162	24018
844.298	24228
844.435	24129
844.571	24095
844.708	24167
844.844	24300
844.98	24205
845.117	24136
845.253	24022
845.389	24003
845.525	24079
845.661	23889
845.798	23950
845.934	23946
846.07	23821
846.206	23897
846.342	23786
846.478	23661
846.614	23623
846.75	23474
846.886	23551
847.022	23665
847.158	23539
847.294	23630
847.429	23619
847.565	23604
847.701	23843
847.837	23204
847.972	23216
848.108	23505
848.244	23391
848.379	23223
848.515	23235
848.65	23136
848.786	23174
848.921	23044
849.057	23189
849.192	23185
849.328	23128
849.463	23048
849.598	23037
849.734	23128
849.869	22987
850.004	22987
850.14	22896
850.275	22961
850.41	22869
850.545	22839
850.68	22786
850.815	22957
850.95	22953
851.085	23098
851.22	23018
851.355	22915
851.49	22862
851.625	22915
851.76	22946
851.895	22919
852.03	22782
852.165	22961
852.299	23022
852.434	22980
852.569	22934
852.703	22858
852.838	22934
852.973	23079
853.107	22984
853.242	22949
853.376	22828
853.511	22611
853.645	22641
853.78	22877
853.914	22679
854.048	22748
854.183	22702
854.317	22729
854.451	22885
854.585	22755
854.72	22752
854.854	22664
854.988	22653
855.122	22637
855.256	22569
855.39	22649
855.524	22672
855.658	22839
855.792	22820
855.926	22782
856.06	22797
856.194	22721
856.327	22733
856.461	22626
856.595	22755
856.729	22675
856.862	22793
856.996	22763
857.13	22797
857.263	22801
857.397	22866
857.53	22641
857.664	22759
857.797	22824
857.931	22759
858.064	22611
858.197	22767
858.331	22740
858.464	22774
858.597	22672
858.731	22580
858.864	22580
858.997	22554
859.13	22615
859.263	22759
859.396	22869
859.529	22694
859.662	22630
859.795	22592
859.928	22687
860.061	22820
860.194	22911
860.327	22946
860.46	22694
860.592	22885
860.725	22949
860.858	22771
860.99	22752
861.123	22626
861.256	22615
861.388	22805
861.521	23417
861.653	22592
861.786	22531
861.918	22436
862.05	22580
862.183	22679
862.315	22683
862.447	22713
862.58	22660
862.712	22348
862.844	22318
862.976	22542
863.108	22481
863.24	22915
863.372	22413
863.504	22428
863.636	22443
863.768	22535
863.9	22428
864.032	22382
864.164	22280
864.296	22531
864.428	22538
864.559	22459
864.691	22413
864.823	22405
864.954	22386
865.086	22363
865.217	22291
865.349	22268
865.48	22234
865.612	22272
865.743	22436
865.875	22322
866.006	22135
866.137	22341
866.269	22303
866.4	22295
866.531	22219
866.662	22257
866.793	22272
866.924	22265
867.055	22303
867.186	22192
867.317	22192
867.448	22017
867.579	22299
867.71	22025
867.841	22055
867.972	22303
868.103	22181
868.233	22158
868.364	22204
868.495	22352
868.625	22489
868.756	22584
868.886	22325
869.017	22455
869.147	22580
869.278	22550
869.408	22527
869.539	22360
869.669	22497
869.799	22394
869.929	22577
870.06	22546
870.19	22641
870.32	22869
870.45	22828
870.58	22801
870.71	22854
870.84	22869
870.97	22805
871.1	22839
871.23	23056
871.36	23033
871.489	22923
871.619	23022
871.749	23056
871.879	23140
872.008	23060
872.138	23083
872.267	23155
872.397	22919
872.526	22911
872.656	22908
872.785	22873
872.915	23109
873.044	23033
873.173	23033
873.303	23140
873.432	23056
873.561	23326
873.69	23128
873.819	23075
873.948	23075
874.077	23299
874.206	23060
874.335	23014
874.464	23189
874.593	23315
874.722	23086
874.851	23162
874.979	23322
875.108	23277
875.237	23212
875.365	23250
875.494	23155
875.623	23353
875.751	23231
875.88	23284
876.008	23307
876.136	23433
876.265	23528
876.393	23828
876.521	23760
876.65	23729
876.778	23691
876.906	23684
877.034	23547
877.162	23608
877.29	23539
877.418	23528
877.546	23619
877.674	23710
877.802	23566
877.93	23604
878.058	23554
878.185	23482
878.313	23611
878.441	23577
878.568	23406
878.696	23554
878.824	23589
878.951	23726
879.079	23798
879.206	23885
879.333	23779
879.461	23687
879.588	23794
879.715	23756
879.842	23771
879.97	23718
880.097	23398
880.224	23535
880.351	23463
880.478	23467
880.605	23444
880.732	23452
880.859	23710
880.986	23414
881.112	23463
881.239	23303
881.366	23166
881.493	23189
881.619	23052
881.746	23037
881.872	23143
881.999	22809
882.125	23022
882.252	23151
882.378	22873
882.505	23041
882.631	22854
882.757	22782
882.883	22615
883.01	22637
883.136	22634
883.262	22535
883.388	22519
883.514	22744
883.64	22748
883.766	22675
883.892	22428
884.018	22538
884.143	22500
884.269	22656
884.395	22360
884.52	22276
884.646	22417
884.772	22234
884.897	22234
885.023	22310
885.148	22455
885.274	22554
885.399	22375
885.524	22257
885.65	22204
885.775	22352
885.9	22207
886.025	22459
886.15	22303
886.275	22238
886.4	22230
886.525	22246
886.65	22211
886.775	22192
886.9	22306
887.025	22379
887.149	22207
887.274	22067
887.399	22025
887.523	22067
887.648	22112
887.773	21964
887.897	22211
888.021	22101
888.146	22078
888.27	22097
888.395	22109
888.519	21972
888.643	22112
888.767	22070
888.891	21899
889.015	21709
889.139	21873
889.263	21854
889.387	21835
889.511	22078
889.635	21991
889.759	21819
889.883	21793
890.006	21941
890.13	21808
890.254	21759
890.377	21800
890.501	21580
890.624	21591
890.748	21542
890.871	21424
890.995	21332
891.118	21279
891.241	21351
891.364	21405
891.488	21511
891.611	21405
891.734	21488
891.857	21291
891.98	21283
892.103	21389
892.226	21336
892.349	21325
892.471	21195
892.594	21294
892.717	21272
892.839	21241
892.962	21310
893.085	21268
893.207	21359
893.33	21233
893.452	21230
893.575	21332
893.697	21313
893.819	21351
893.941	21431
894.064	21359
894.186	21199
894.308	21180
894.43	21287
894.552	21405
894.674	21389
894.796	21188
894.918	21252
895.04	21249
895.161	21287
895.283	21237
895.405	21237
895.526	21302
895.648	21192
895.769	21264
895.891	21233
896.012	21291
896.134	21230
896.255	21222
896.376	21173
896.498	21336
896.619	21241
896.74	21291
896.861	21173
896.982	21477
897.103	21652
897.224	21519
897.345	21329
897.466	21393
897.587	21507
897.708	21507
897.828	21481
897.949	21386
898.07	21237
898.19	21348
898.311	21534
898.431	21420
898.552	21416
898.672	21458
898.792	21469
898.913	21511
899.033	21359
899.153	21317
899.273	21214
899.393	21211
899.513	21252
899.633	21169
899.753	21161
899.873	21104
899.993	21157
900.113	21039
900.232	21093
900.352	20944
900.472	20990
900.591	20765
900.711	21005
900.83	20960
900.95	20925
901.069	21116
901.189	20754
901.308	20636
901.427	20594
901.546	20469
901.665	20522
901.784	20503
901.904	20366
902.023	20237
902.141	20138
902.26	20168
902.379	20138
902.498	20039
902.617	19906
902.735	19940
902.854	19982
902.973	19951
903.091	19666
903.21	19715
903.328	19704
903.446	19590
903.565	19552
903.683	19495
903.801	19335
903.919	19438
904.038	19293
904.156	19236
904.274	19358
904.392	19312
904.51	19168
904.627	19274
904.745	19236
904.863	19228
904.981	18989
905.098	19000
905.216	18909
905.334	18882
905.451	18932
905.569	18924
905.686	18966
905.803	18905
905.921	18612
906.038	18768
906.155	18779
906.272	18700
906.389	18593
906.506	18372
906.623	18437
906.74	18334
906.857	18296
906.974	18334
907.091	18464
907.208	18540
907.324	18422
907.441	18338
907.557	18228
907.674	18209
907.79	18102
907.907	18041
908.023	18102
908.139	18129
908.256	18030
908.372	18022
908.488	17946
908.604	17855
908.72	17798
908.836	17984
908.952	17843
909.068	17939
909.184	17965
909.3	17756
909.415	17798
909.531	17863
909.647	17649
909.762	17573
909.878	17486
909.993	17452
910.108	17566
910.224	17440
910.339	17486
910.454	17345
910.57	17337
910.685	17178
910.8	17425
910.915	17410
911.03	17299
911.145	17136
911.259	17124
911.374	17132
911.489	17041
911.604	16877
911.718	16976
911.833	16889
911.947	16637
912.062	16713
912.176	16820
912.291	16850
912.405	16782
912.519	17064
912.633	16965
912.748	16816
912.862	16869
912.976	16664
913.09	16459
913.204	16698
913.318	16626
913.431	16637
913.545	16630
913.659	16702
913.772	16497
913.886	16512
914	16447
914.113	16417
914.226	16519
914.34	16413
914.453	16295
914.566	16478
914.68	16325
914.793	16242
914.906	16128
915.019	15956
915.132	15945
915.245	16025
915.358	16071
915.47	16078
915.583	15991
915.696	16048
915.809	16071
915.921	16173
916.034	15895
916.146	15915
916.259	15907
916.371	15979
916.483	16040
916.595	15698
916.708	15785
916.82	15838
916.932	15713
917.044	15797
917.156	15633
917.268	15663
917.38	15637
917.491	15644
917.603	15652
917.715	15610
917.826	15679
917.938	15473
918.049	15477
918.161	15641
918.272	15610
918.384	15686
918.495	15576
918.606	15416
918.717	15241
918.828	15351
918.939	15306
919.05	15268
919.161	15291
919.272	15131
919.383	15123
919.494	15279
919.604	15545
919.715	15317
919.826	15203
919.936	15386
920.047	15435
920.157	15374
920.267	15507
920.378	15386
920.488	15252
920.598	15428
920.708	15557
920.818	15492
920.928	15469
921.038	15587
921.148	15500
921.258	15287
921.368	15207
921.477	15051
921.587	15005
921.697	14838
921.806	14948
921.916	14819
922.025	14773
922.134	14606
922.244	14632
922.353	14712
922.462	14610
922.571	14526
922.68	14351
922.789	14320
922.898	14366
923.007	14233
923.116	14305
923.224	14221
923.333	14339
923.442	14233
923.55	14187
923.659	14077
923.767	14149
923.876	14046
923.984	14176
924.092	14046
924.201	14008
924.309	13928
924.417	13932
924.525	13993
924.633	13936
924.741	14918
924.849	13750
924.956	13814
925.064	13742
925.172	13605
925.279	13727
925.387	13750
925.494	13643
925.602	13818
925.709	13727
925.816	13616
925.924	13540
926.031	13738
926.138	13651
926.245	13666
926.352	13480
926.459	13552
926.566	13704
926.673	13472
926.779	13422
926.886	13381
926.993	13289
927.099	13190
927.206	13301
927.312	13160
927.419	13129
927.525	13133
927.631	13175
927.737	13084
927.843	13042
927.95	12920
928.056	12993
928.162	13053
928.267	13149
928.373	13594
928.479	13095
928.585	12890
928.69	12973
928.796	12996
928.901	12844
929.007	12719
929.112	12837
929.218	12844
929.323	12795
929.428	12688
929.533	12916
929.638	12658
929.743	12604
929.848	12719
929.953	12532
930.058	12486
930.163	12369
930.267	12429
930.372	12445
930.477	12346
930.581	12525
930.685	12471
930.79	12296
930.894	12308
930.998	12224
931.103	12323
931.207	11988
931.311	12015
931.415	11802
931.519	11592
931.623	11684
