Data from test_V78500241_1007.txt Node
Date: Fri Mar 25 15:48:46 CST 2022
User: usil
Spectrometer: V785-0024
Trigger mode: 0
Integration Time (sec): 4.000000E-1
Scans to average: 1
Nonlinearity correction enabled: false
Boxcar width: 0
Storing dark spectrum: false
XAxis mode: Wavelengths
Number of Pixels in Spectrum: 1024
>>>>>Begin Spectral Data<<<<<
801.071	28295
801.214	28143
801.356	27895
801.499	27956
801.641	27762
801.783	27739
801.926	27854
802.068	27663
802.211	27618
802.353	27583
802.496	27515
802.638	27336
802.78	27473
802.923	27317
803.065	27344
803.208	27408
803.35	27481
803.492	27427
803.635	27557
803.777	27637
803.919	27717
804.061	27998
804.204	27633
804.346	27576
804.488	27515
804.63	27591
804.773	27492
804.915	27682
805.057	27690
805.199	27671
805.341	27713
805.483	27778
805.626	27667
805.768	27732
805.91	27739
806.052	27861
806.194	27781
806.336	27888
806.478	27888
806.62	27850
806.762	27991
806.904	27968
807.046	28226
807.188	28158
807.33	28204
807.472	28215
807.614	28070
807.756	28124
807.898	28059
808.04	28040
808.182	28067
808.324	28173
808.465	28181
808.607	28386
808.749	28447
808.891	28550
809.033	28691
809.174	28413
809.316	28405
809.458	28440
809.6	28299
809.741	28603
809.883	28683
810.025	28729
810.166	28790
810.308	28755
810.45	28782
810.591	28649
810.733	28512
810.875	28375
811.016	28337
811.158	28398
811.299	28622
811.441	28649
811.582	28580
811.724	28371
811.865	28447
812.007	28523
812.148	28489
812.29	28584
812.431	28660
812.573	28816
812.714	28892
812.855	28927
812.997	29052
813.138	29254
813.279	29151
813.421	28980
813.562	28881
813.703	28778
813.845	28668
813.986	28462
814.127	28352
814.268	28211
814.41	28074
814.551	28325
814.692	28257
814.833	28112
814.974	28082
815.115	28147
815.256	28013
815.397	27895
815.539	28070
815.68	27930
815.821	27804
815.962	27934
816.103	28063
816.244	27797
816.385	27747
816.526	27774
816.666	27542
816.807	27450
816.948	27443
817.089	27523
817.23	27530
817.371	27401
817.512	27439
817.653	27416
817.793	27237
817.934	27526
818.075	27427
818.216	27443
818.356	27374
818.497	27298
818.638	27245
818.778	27119
818.919	27199
819.06	27279
819.2	27355
819.341	27583
819.481	27405
819.622	27652
819.762	27842
819.903	27671
820.043	27637
820.184	27538
820.324	27591
820.465	27644
820.605	27663
820.746	27667
820.886	27443
821.026	27618
821.167	27534
821.307	27587
821.447	27557
821.588	27408
821.728	27317
821.868	27100
822.008	26952
822.149	26979
822.289	26967
822.429	26705
822.569	26705
822.709	26434
822.849	26362
822.99	26518
823.13	26514
823.27	26465
823.41	26290
823.55	26225
823.69	26313
823.83	26290
823.97	26168
824.11	26069
824.25	26073
824.389	26092
824.529	26103
824.669	26130
824.809	26237
824.949	26183
825.089	26309
825.228	26199
825.368	25986
825.508	26020
825.648	25982
825.787	25932
825.927	26065
826.067	26035
826.206	25913
826.346	25947
826.485	26035
826.625	25875
826.765	26145
826.904	25917
827.044	25761
827.183	25746
827.323	25655
827.462	25731
827.601	25632
827.741	25700
827.88	25594
828.02	25590
828.159	25738
828.298	25822
828.437	25700
828.577	25643
828.716	25864
828.855	25616
828.994	25449
829.134	25350
829.273	25476
829.412	25396
829.551	25335
829.69	25449
829.829	25430
829.968	25388
830.107	25510
830.246	25324
830.385	25362
830.524	25263
830.663	25194
830.802	25091
830.941	24840
831.08	25000
831.219	25091
831.357	25110
831.496	25221
831.635	24989
831.774	24992
831.913	24840
832.051	24806
832.19	24692
832.329	24886
832.467	24673
832.606	24570
832.744	24650
832.883	24665
833.022	24566
833.16	24631
833.299	24890
833.437	24783
833.576	24779
833.714	24745
833.852	24894
833.991	24715
834.129	24840
834.267	24684
834.406	24722
834.544	24810
834.682	24817
834.821	24623
834.959	24802
835.097	24604
835.235	24798
835.373	24779
835.511	24776
835.65	24597
835.788	24460
835.926	24407
836.064	24388
836.202	24418
836.34	24623
836.478	24555
836.615	24456
836.753	24551
836.891	24547
837.029	24601
837.167	24525
837.305	24532
837.443	24422
837.58	24334
837.718	24490
837.856	24426
837.993	24384
838.131	24308
838.269	24258
838.406	24323
838.544	24254
838.681	24068
838.819	23927
838.956	23836
839.094	23726
839.231	23832
839.369	24034
839.506	24315
839.643	24174
839.781	23866
839.918	23805
840.055	23863
840.193	23756
840.33	23828
840.467	23760
840.604	23855
840.742	23885
840.879	23630
841.016	23745
841.153	23691
841.29	23882
841.427	23741
841.564	23798
841.701	23760
841.838	23661
841.975	23581
842.112	23684
842.249	23623
842.385	23539
842.522	23828
842.659	23562
842.796	23573
842.933	23505
843.069	23634
843.206	23493
843.343	23604
843.479	23421
843.616	23490
843.752	23239
843.889	23505
844.025	23421
844.162	23159
844.298	23387
844.435	23254
844.571	23223
844.708	23334
844.844	23395
844.98	23387
845.117	23402
845.253	23269
845.389	23166
845.525	23128
845.661	23086
845.798	23033
845.934	23208
846.07	22980
846.206	22991
846.342	23117
846.478	22961
846.614	22755
846.75	22759
846.886	22729
847.022	22854
847.158	22717
847.294	22725
847.429	22797
847.565	22782
847.701	22873
847.837	22443
847.972	22516
848.108	22565
848.244	22580
848.379	22424
848.515	22238
848.65	22147
848.786	22268
848.921	22360
849.057	22478
849.192	22443
849.328	22402
849.463	22284
849.598	22238
849.734	22246
849.869	22219
850.004	22055
850.14	22215
850.275	22101
850.41	21949
850.545	22055
850.68	21972
850.815	22223
850.95	22025
851.085	22249
851.22	22242
851.355	22166
851.49	22139
851.625	22017
851.76	22131
851.895	22086
852.03	22025
852.165	22116
852.299	22139
852.434	22204
852.569	22169
852.703	22067
852.838	22246
852.973	22249
853.107	22257
853.242	22090
853.376	21956
853.511	21720
853.645	21918
853.78	22029
853.914	21968
854.048	21892
854.183	21983
854.317	21953
854.451	22082
854.585	21876
854.72	21869
854.854	21953
854.988	21800
855.122	21888
855.256	21770
855.39	21888
855.524	21983
855.658	21956
855.792	21922
855.926	21850
856.06	21930
856.194	22070
856.327	21953
856.461	21876
856.595	21831
856.729	21968
856.862	21941
856.996	21895
857.13	21903
857.263	21934
857.397	22051
857.53	21884
857.664	22029
857.797	22051
857.931	22051
858.064	21892
858.197	22025
858.331	21850
858.464	21945
858.597	21831
858.731	21804
858.864	21857
858.997	21770
859.13	21884
859.263	21698
859.396	22021
859.529	21831
859.662	21850
859.795	21793
859.928	21869
860.061	22090
860.194	22097
860.327	22010
860.46	21956
860.592	22040
860.725	21975
860.858	21934
860.99	21907
861.123	21941
861.256	21964
861.388	22040
861.521	22668
861.653	21778
861.786	21698
861.918	21770
862.05	21797
862.183	21804
862.315	21842
862.447	21968
862.58	21835
862.712	21743
862.844	21667
862.976	21812
863.108	21679
863.24	22025
863.372	21564
863.504	21587
863.636	21587
863.768	21625
863.9	21705
864.032	21450
864.164	21477
864.296	21846
864.428	21663
864.559	21644
864.691	21641
864.823	21545
864.954	21614
865.086	21610
865.217	21458
865.349	21428
865.48	21526
865.612	21564
865.743	21599
865.875	21523
866.006	21450
866.137	21576
866.269	21477
866.4	21405
866.531	21412
866.662	21382
866.793	21389
866.924	21443
867.055	21504
867.186	21492
867.317	21348
867.448	21386
867.579	21401
867.71	21382
867.841	21405
867.972	21363
868.103	21477
868.233	21435
868.364	21466
868.495	21591
868.625	21618
868.756	21819
868.886	21561
869.017	21667
869.147	21854
869.278	21728
869.408	21709
869.539	21629
869.669	21736
869.799	21724
869.929	21831
870.06	21751
870.19	22040
870.32	21922
870.45	22029
870.58	22059
870.71	22169
870.84	22143
870.97	21987
871.1	21979
871.23	22219
871.36	22272
871.489	22192
871.619	22188
871.749	22322
871.879	22265
872.008	22371
872.138	22318
872.267	22230
872.397	22280
872.526	22101
872.656	22105
872.785	22101
872.915	22276
873.044	22363
873.173	22291
873.303	22371
873.432	22246
873.561	22398
873.69	22272
873.819	22204
873.948	22390
874.077	22329
874.206	22390
874.335	22299
874.464	22402
874.593	22557
874.722	22440
874.851	22382
874.979	22538
875.108	22706
875.237	22386
875.365	22455
875.494	22443
875.623	22561
875.751	22428
875.88	22542
876.008	22645
876.136	22721
876.265	22824
876.393	23060
876.521	22885
876.65	23098
876.778	23010
876.906	22908
877.034	22919
877.162	22866
877.29	22831
877.418	22930
877.546	22843
877.674	22793
877.802	22885
877.93	22835
878.058	22679
878.185	22694
878.313	22847
878.441	22839
878.568	22535
878.696	22721
878.824	22904
878.951	22885
879.079	23014
879.206	23208
879.333	22965
879.461	22892
879.588	22972
879.715	23067
879.842	23124
879.97	22961
880.097	22744
880.224	22752
880.351	22672
880.478	22698
880.605	22672
880.732	22698
880.859	22881
880.986	22736
881.112	22660
881.239	22656
881.366	22295
881.493	22223
881.619	22196
881.746	22234
881.872	22337
881.999	22150
882.125	22124
882.252	22147
882.378	22109
882.505	22276
882.631	22090
882.757	21960
882.883	22078
883.01	21903
883.136	21911
883.262	21770
883.388	21854
883.514	21949
883.64	21949
883.766	21907
883.892	21637
884.018	21656
884.143	21892
884.269	21972
884.395	21652
884.52	21564
884.646	21557
884.772	21458
884.897	21424
885.023	21534
885.148	21736
885.274	21713
885.399	21648
885.524	21534
885.65	21603
885.775	21652
885.9	21606
886.025	21591
886.15	21614
886.275	21553
886.4	21431
886.525	21587
886.65	21496
886.775	21458
886.9	21587
887.025	21698
887.149	21511
887.274	21294
887.399	21317
887.523	21275
887.648	21302
887.773	21279
887.897	21351
888.021	21431
888.146	21195
888.27	21355
888.395	21431
888.519	21245
888.643	21397
888.767	21344
888.891	21192
889.015	21074
889.139	21119
889.263	21165
889.387	21192
889.511	21386
889.635	21161
889.759	21070
889.883	21116
890.006	21176
890.13	20998
890.254	21020
890.377	21047
890.501	20845
890.624	20804
890.748	20918
890.871	20750
890.995	20689
891.118	20549
891.241	20701
891.364	20693
891.488	20720
891.611	20644
891.734	20754
891.857	20674
891.98	20701
892.103	20720
892.226	20739
892.349	20606
892.471	20431
892.594	20533
892.717	20518
892.839	20480
892.962	20575
893.085	20667
893.207	20530
893.33	20438
893.452	20678
893.575	20693
893.697	20609
893.819	20712
893.941	20811
894.064	20693
894.186	20579
894.308	20389
894.43	20689
894.552	20667
894.674	20648
894.796	20484
894.918	20625
895.04	20564
895.161	20705
895.283	20659
895.405	20530
895.526	20560
895.648	20587
895.769	20583
895.891	20492
896.012	20632
896.134	20724
896.255	20602
896.376	20499
896.498	20518
896.619	20663
896.74	20556
896.861	20724
896.982	20899
897.103	21081
897.224	20819
897.345	20762
897.466	20693
897.587	20762
897.708	20902
897.828	20868
897.949	20693
898.07	20640
898.19	20777
898.311	20895
898.431	20785
898.552	20834
898.672	20762
898.792	20731
898.913	20883
899.033	20678
899.153	20609
899.273	20400
899.393	20518
899.513	20724
899.633	20682
899.753	20499
899.873	20526
899.993	20530
900.113	20389
900.232	20503
900.352	20450
900.472	20347
900.591	20317
900.711	20290
900.83	20126
900.95	20374
901.069	20469
901.189	20202
901.308	19982
901.427	19814
901.546	19890
901.665	19856
901.784	19856
901.904	19776
902.023	19715
902.141	19403
902.26	19384
902.379	19480
902.498	19400
902.617	19282
902.735	19358
902.854	19381
902.973	19217
903.091	19088
903.21	19076
903.328	18962
903.446	19015
903.565	18947
903.683	18924
903.801	18692
903.919	18749
904.038	18753
904.156	18658
904.274	18722
904.392	18604
904.51	18551
904.627	18547
904.745	18658
904.863	18589
904.981	18338
905.098	18266
905.216	18201
905.334	18281
905.451	18266
905.569	18262
905.686	18273
905.803	18133
905.921	18030
906.038	18140
906.155	18102
906.272	17977
906.389	17961
906.506	17889
906.623	17824
906.74	17802
906.857	17741
906.974	17699
907.091	17832
907.208	17946
907.324	17794
907.441	17714
907.557	17623
907.674	17493
907.79	17425
907.907	17467
908.023	17512
908.139	17467
908.256	17455
908.372	17383
908.488	17326
908.604	17242
908.72	17212
908.836	17246
908.952	17330
909.068	17296
909.184	17242
909.3	17315
909.415	17242
909.531	17170
909.647	16972
909.762	16976
909.878	16995
909.993	16946
910.108	16923
910.224	16843
910.339	16850
910.454	16816
910.57	16668
910.685	16698
910.8	16896
910.915	16869
911.03	16664
911.145	16516
911.259	16535
911.374	16462
911.489	16390
911.604	16386
911.718	16242
911.833	16333
911.947	16226
912.062	16169
912.176	16276
912.291	16310
912.405	16276
912.519	16398
912.633	16516
912.748	16265
912.862	16249
912.976	16120
913.09	15964
913.204	15979
913.318	16055
913.431	16112
913.545	16086
913.659	16185
913.772	16071
913.886	15850
914	15934
914.113	15865
914.226	15945
914.34	15835
914.453	15770
914.566	15926
914.68	15724
914.793	15781
914.906	15523
915.019	15458
915.132	15424
915.245	15435
915.358	15374
915.47	15447
915.583	15450
915.696	15507
915.809	15618
915.921	15534
916.034	15393
916.146	15431
916.259	15431
916.371	15382
916.483	15424
916.595	15184
916.708	15283
916.82	15291
916.932	15268
917.044	15161
917.156	15317
917.268	14963
917.38	15100
917.491	15085
917.603	15036
917.715	15169
917.826	15207
917.938	15100
918.049	14899
918.161	15104
918.272	15093
918.384	15184
918.495	15093
918.606	14960
918.717	14876
918.828	14918
918.939	14834
919.05	14811
919.161	14864
919.272	14659
919.383	14785
919.494	14944
919.604	14998
919.715	14830
919.826	14796
919.936	14849
920.047	14918
920.157	14880
920.267	15070
920.378	14773
920.488	14887
920.598	14963
920.708	15112
920.818	14925
920.928	14819
921.038	15036
921.148	15032
921.258	14785
921.368	14724
921.477	14507
921.587	14488
921.697	14347
921.806	14461
921.916	14377
922.025	14267
922.134	14202
922.244	14153
922.353	14240
922.462	14050
922.571	14016
922.68	13856
922.789	13769
922.898	13837
923.007	13769
923.116	13909
923.224	13826
923.333	13734
923.442	13655
923.55	13674
923.659	13662
923.767	13700
923.876	13597
923.984	13613
924.092	13586
924.201	13624
924.309	13556
924.417	13582
924.525	13544
924.633	13434
924.741	14298
924.849	13282
924.956	13464
925.064	13339
925.172	13198
925.279	13221
925.387	13217
925.494	13247
925.602	13266
925.709	13297
925.816	13194
925.924	13171
926.031	13198
926.138	13213
926.245	13156
926.352	13084
926.459	13129
926.566	13198
926.673	13129
926.779	13012
926.886	13019
926.993	12791
927.099	12787
927.206	12741
927.312	12711
927.419	12829
927.525	12707
927.631	12745
927.737	12696
927.843	12646
927.95	12570
928.056	12627
928.162	12604
928.267	12639
928.373	13213
928.479	12692
928.585	12437
928.69	12521
928.796	12585
928.901	12410
929.007	12311
929.112	12437
929.218	12494
929.323	12311
929.428	12365
929.533	12494
929.638	12216
929.743	12232
929.848	12292
929.953	12205
930.058	12121
930.163	12026
930.267	11946
930.372	12114
930.477	11942
930.581	12178
930.685	12011
930.79	11843
930.894	11901
930.998	11836
931.103	11927
931.207	11668
931.311	11566
931.415	11421
931.519	11223
931.623	11246
