Data from test_V78500241_3074.txt Node
Date: Fri Mar 25 16:03:05 CST 2022
User: usil
Spectrometer: V785-0024
Trigger mode: 0
Integration Time (sec): 4.000000E-1
Scans to average: 1
Nonlinearity correction enabled: false
Boxcar width: 0
Storing dark spectrum: false
XAxis mode: Wavelengths
Number of Pixels in Spectrum: 1024
>>>>>Begin Spectral Data<<<<<
801.071	28694
801.214	28683
801.356	28516
801.499	28466
801.641	28405
801.783	28314
801.926	28322
802.068	28303
802.211	28325
802.353	28139
802.496	28048
802.638	28158
802.78	28063
802.923	28169
803.065	28017
803.208	28074
803.35	28166
803.492	28432
803.635	28318
803.777	28204
803.919	28215
804.061	28634
804.204	28394
804.346	28249
804.488	28048
804.63	28215
804.773	28238
804.915	28382
805.057	28424
805.199	28306
805.341	28386
805.483	28428
805.626	28470
805.768	28398
805.91	28497
806.052	28626
806.194	28371
806.336	28641
806.478	28459
806.62	28424
806.762	28615
806.904	28736
807.046	29025
807.188	28908
807.33	28968
807.472	29041
807.614	28839
807.756	28862
807.898	28820
808.04	28793
808.182	28812
808.324	28809
808.465	28850
808.607	28957
808.749	29052
808.891	29250
809.033	29364
809.174	29265
809.316	29193
809.458	29162
809.6	29231
809.741	29280
809.883	29372
810.025	29493
810.166	29455
810.308	29467
810.45	29288
810.591	29288
810.733	29216
810.875	29166
811.016	29128
811.158	29029
811.299	29315
811.441	29178
811.582	29398
811.724	29265
811.865	29048
812.007	29151
812.148	29128
812.29	29246
812.431	29387
812.573	29360
812.714	29528
812.855	29653
812.997	29805
813.138	29901
813.279	29851
813.421	29748
813.562	29448
813.703	29551
813.845	29455
813.986	29227
814.127	28831
814.268	28755
814.41	28904
814.551	28999
814.692	28748
814.833	28835
814.974	28919
815.115	28786
815.256	28721
815.397	28778
815.539	28653
815.68	28710
815.821	28664
815.962	28713
816.103	28717
816.244	28637
816.385	28535
816.526	28325
816.666	28150
816.807	28131
816.948	28185
817.089	28371
817.23	28280
817.371	28234
817.512	28143
817.653	28204
817.793	28120
817.934	28238
818.075	28257
818.216	28204
818.356	28226
818.497	28120
818.638	27869
818.778	28021
818.919	27880
819.06	28086
819.2	28101
819.341	28204
819.481	28063
819.622	28382
819.762	28550
819.903	28489
820.043	28546
820.184	28386
820.324	28299
820.465	28455
820.605	28409
820.746	28284
820.886	28166
821.026	28333
821.167	28207
821.307	28421
821.447	28287
821.588	28124
821.728	28070
821.868	27941
822.008	27682
822.149	27728
822.289	27435
822.429	27401
822.569	27359
822.709	27412
822.849	27226
822.99	27237
823.13	27165
823.27	27062
823.41	27043
823.55	26944
823.69	27017
823.83	27005
823.97	27024
824.11	26963
824.25	26838
824.389	26845
824.529	26887
824.669	26872
824.809	26868
824.949	26975
825.089	26838
825.228	26971
825.368	26697
825.508	26648
825.648	26762
825.787	26838
825.927	26883
826.067	26708
826.206	26621
826.346	26868
826.485	26777
826.625	26712
826.765	26914
826.904	26716
827.044	26552
827.183	26530
827.323	26457
827.462	26476
827.601	26415
827.741	26370
827.88	26385
828.02	26237
828.159	26336
828.298	26343
828.437	26400
828.577	26461
828.716	26526
828.855	26362
828.994	26248
829.134	26221
829.273	26122
829.412	26259
829.551	25951
829.69	26149
829.829	26233
829.968	26191
830.107	26164
830.246	26008
830.385	26119
830.524	26096
830.663	25966
830.802	25974
830.941	25658
831.08	25807
831.219	25822
831.357	25917
831.496	25818
831.635	25803
831.774	25597
831.913	25590
832.051	25586
832.19	25567
832.329	25567
832.467	25293
832.606	25373
832.744	25362
832.883	25297
833.022	25377
833.16	25339
833.299	25384
833.437	25544
833.576	25559
833.714	25552
833.852	25381
833.991	25556
834.129	25548
834.267	25499
834.406	25533
834.544	25647
834.682	25434
834.821	25499
834.959	25472
835.097	25468
835.235	25487
835.373	25460
835.511	25384
835.65	25320
835.788	25324
835.926	25141
836.064	25057
836.202	25122
836.34	25266
836.478	25362
836.615	25274
836.753	25198
836.891	25335
837.029	25350
837.167	25228
837.305	25251
837.443	25148
837.58	25160
837.718	25061
837.856	25107
837.993	24989
838.131	25027
838.269	24825
838.406	25164
838.544	24939
838.681	24684
838.819	24772
838.956	24513
839.094	24574
839.231	24738
839.369	24719
839.506	24871
839.643	24867
839.781	24566
839.918	24585
840.055	24544
840.193	24471
840.33	24544
840.467	24521
840.604	24483
840.742	24696
840.879	24273
841.016	24407
841.153	24509
841.29	24517
841.427	24460
841.564	24479
841.701	24585
841.838	24551
841.975	24490
842.112	24388
842.249	24311
842.385	24296
842.522	24513
842.659	24281
842.796	24140
842.933	24334
843.069	24174
843.206	24296
843.343	24300
843.479	24220
843.616	24201
843.752	24060
843.889	23931
844.025	24163
844.162	23973
844.298	24201
844.435	23988
844.571	24060
844.708	24190
844.844	24235
844.98	24201
845.117	24152
845.253	24007
845.389	23916
845.525	23878
845.661	23798
845.798	23927
845.934	23851
846.07	23695
846.206	23729
846.342	23927
846.478	23786
846.614	23619
846.75	23356
846.886	23490
847.022	23630
847.158	23459
847.294	23501
847.429	23436
847.565	23425
847.701	23756
847.837	23208
847.972	23216
848.108	23364
848.244	23261
848.379	23140
848.515	23022
848.65	23090
848.786	23105
848.921	23102
849.057	23265
849.192	23166
849.328	23117
849.463	22976
849.598	23018
849.734	22896
849.869	22908
850.004	22873
850.14	22831
850.275	22934
850.41	22774
850.545	22717
850.68	22828
850.815	22729
850.95	22835
851.085	22892
851.22	22946
851.355	22911
851.49	22858
851.625	22809
851.76	22835
851.895	22801
852.03	22664
852.165	22835
852.299	22923
852.434	23018
852.569	22866
852.703	22831
852.838	22805
852.973	23029
853.107	22908
853.242	22801
853.376	22694
853.511	22645
853.645	22603
853.78	22782
853.914	22706
854.048	22603
854.183	22580
854.317	22698
854.451	22786
854.585	22516
854.72	22702
854.854	22831
854.988	22577
855.122	22694
855.256	22603
855.39	22641
855.524	22653
855.658	22786
855.792	22839
855.926	22725
856.06	22675
856.194	22774
856.327	22805
856.461	22641
856.595	22542
856.729	22512
856.862	22675
856.996	22721
857.13	22786
857.263	22790
857.397	22664
857.53	22611
857.664	22687
857.797	22611
857.931	22801
858.064	22706
858.197	22869
858.331	22599
858.464	22645
858.597	22542
858.731	22607
858.864	22550
858.997	22603
859.13	22668
859.263	22599
859.396	22626
859.529	22626
859.662	22702
859.795	22656
859.928	22645
860.061	22786
860.194	22866
860.327	22618
860.46	22767
860.592	22763
860.725	22694
860.858	22786
860.99	22698
861.123	22577
861.256	22599
861.388	22698
861.521	23326
861.653	22447
861.786	22424
861.918	22466
862.05	22618
862.183	22459
862.315	22580
862.447	22641
862.58	22519
862.712	22421
862.844	22409
862.976	22424
863.108	22360
863.24	22835
863.372	22295
863.504	22265
863.636	22417
863.768	22436
863.9	22344
864.032	22322
864.164	22291
864.296	22371
864.428	22394
864.559	22455
864.691	22493
864.823	22360
864.954	22356
865.086	22253
865.217	22344
865.349	22135
865.48	22192
865.612	22242
865.743	22356
865.875	22211
866.006	22242
866.137	22306
866.269	22356
866.4	22188
866.531	22257
866.662	22048
866.793	22204
866.924	22143
867.055	22234
867.186	22196
867.317	22139
867.448	22086
867.579	22223
867.71	22029
867.841	22013
867.972	22230
868.103	22086
868.233	22101
868.364	22192
868.495	22291
868.625	22386
868.756	22462
868.886	22257
869.017	22402
869.147	22497
869.278	22603
869.408	22382
869.539	22363
869.669	22497
869.799	22440
869.929	22577
870.06	22535
870.19	22729
870.32	22679
870.45	22694
870.58	22736
870.71	22885
870.84	22740
870.97	22885
871.1	22805
871.23	22991
871.36	22972
871.489	22923
871.619	22995
871.749	23048
871.879	23025
872.008	23098
872.138	23010
872.267	22995
872.397	22885
872.526	22869
872.656	22889
872.785	22831
872.915	23022
873.044	23117
873.173	23102
873.303	23052
873.432	23128
873.561	23200
873.69	23033
873.819	23067
873.948	23258
874.077	23044
874.206	22972
874.335	23025
874.464	23204
874.593	23299
874.722	23121
874.851	23269
874.979	23235
875.108	23113
875.237	23109
875.365	23231
875.494	23261
875.623	23288
875.751	23273
875.88	23208
876.008	23372
876.136	23425
876.265	23501
876.393	23729
876.521	23748
876.65	23703
876.778	23684
876.906	23577
877.034	23493
877.162	23570
877.29	23619
877.418	23520
877.546	23516
877.674	23687
877.802	23535
877.93	23543
878.058	23535
878.185	23512
878.313	23497
878.441	23687
878.568	23379
878.696	23558
878.824	23653
878.951	23524
879.079	23672
879.206	23809
879.333	23684
879.461	23596
879.588	23707
879.715	23733
879.842	23775
879.97	23638
880.097	23330
880.224	23455
880.351	23387
880.478	23493
880.605	23337
880.732	23368
880.859	23562
880.986	23383
881.112	23372
881.239	23326
881.366	23250
881.493	22961
881.619	22892
881.746	23029
881.872	22858
881.999	22987
882.125	22911
882.252	22980
882.378	22850
882.505	22980
882.631	22767
882.757	22729
882.883	22698
883.01	22679
883.136	22588
883.262	22565
883.388	22443
883.514	22577
883.64	22736
883.766	22607
883.892	22348
884.018	22352
884.143	22588
884.269	22622
884.395	22291
884.52	22223
884.646	22284
884.772	22090
884.897	22276
885.023	22398
885.148	22341
885.274	22519
885.399	22310
885.524	22219
885.65	22318
885.775	22249
885.9	22223
886.025	22432
886.15	22284
886.275	22272
886.4	22234
886.525	22226
886.65	22135
886.775	22124
886.9	22440
887.025	22462
887.149	22314
887.274	22029
887.399	22086
887.523	21960
887.648	21998
887.773	21960
887.897	21998
888.021	22147
888.146	21953
888.27	22131
888.395	22055
888.519	22048
888.643	22017
888.767	22207
888.891	22029
889.015	21789
889.139	21816
889.263	21778
889.387	22002
889.511	21869
889.635	21915
889.759	21698
889.883	21709
890.006	21899
890.13	21964
890.254	21709
890.377	21778
890.501	21549
890.624	21481
890.748	21473
890.871	21500
890.995	21272
891.118	21355
891.241	21367
891.364	21492
891.488	21481
891.611	21275
891.734	21389
891.857	21367
891.98	21408
892.103	21382
892.226	21428
892.349	21348
892.471	21116
892.594	21233
892.717	21150
892.839	21176
892.962	21298
893.085	21199
893.207	21241
893.33	21119
893.452	21150
893.575	21291
893.697	21298
893.819	21397
893.941	21420
894.064	21336
894.186	21294
894.308	21199
894.43	21264
894.552	21359
894.674	21332
894.796	21245
894.918	21165
895.04	21131
895.161	21230
895.283	21252
895.405	21100
895.526	21214
895.648	21150
895.769	21317
895.891	21287
896.012	21291
896.134	21306
896.255	21218
896.376	21146
896.498	21230
896.619	21393
896.74	21138
896.861	21332
896.982	21538
897.103	21732
897.224	21553
897.345	21359
897.466	21424
897.587	21424
897.708	21564
897.828	21462
897.949	21351
898.07	21237
898.19	21370
898.311	21481
898.431	21374
898.552	21523
898.672	21542
898.792	21340
898.913	21382
899.033	21367
899.153	21310
899.273	21077
899.393	21245
899.513	21108
899.633	21047
899.753	21077
899.873	21116
899.993	21104
900.113	21058
900.232	21150
900.352	21036
900.472	20918
900.591	20971
900.711	20956
900.83	20887
900.95	21055
901.069	20880
901.189	20883
901.308	20492
901.427	20469
901.546	20560
901.665	20442
901.784	20499
901.904	20271
902.023	20229
902.141	20195
902.26	20016
902.379	20035
902.498	19921
902.617	20012
902.735	20065
902.854	19993
902.973	19909
903.091	19651
903.21	19533
903.328	19601
903.446	19472
903.565	19529
903.683	19346
903.801	19263
903.919	19240
904.038	19217
904.156	19164
904.274	19133
904.392	19057
904.51	19084
904.627	19160
904.745	19251
904.863	19126
904.981	19027
905.098	18920
905.216	18894
905.334	18920
905.451	18905
905.569	18791
905.686	18814
905.803	18757
905.921	18719
906.038	18711
906.155	18639
906.272	18555
906.389	18536
906.506	18418
906.623	18437
906.74	18388
906.857	18270
906.974	18235
907.091	18395
907.208	18498
907.324	18429
907.441	18270
907.557	18144
907.674	18155
907.79	18026
907.907	18148
908.023	18038
908.139	18129
908.256	17923
908.372	17980
908.488	17840
908.604	17794
908.72	17665
908.836	17923
908.952	17752
909.068	17889
909.184	17840
909.3	17729
909.415	17809
909.531	17771
909.647	17558
909.762	17337
909.878	17455
909.993	17467
910.108	17379
910.224	17406
910.339	17436
910.454	17303
910.57	17269
910.685	17212
910.8	17478
910.915	17414
911.03	17174
911.145	17041
911.259	17147
911.374	16987
911.489	17022
911.604	16919
911.718	16862
911.833	16873
911.947	16763
912.062	16618
912.176	16828
912.291	16793
912.405	16820
912.519	16984
912.633	16961
912.748	16828
912.862	16835
912.976	16641
913.09	16580
913.204	16470
913.318	16599
913.431	16675
913.545	16649
913.659	16729
913.772	16603
913.886	16440
914	16398
914.113	16443
914.226	16478
914.34	16516
914.453	16287
914.566	16443
914.68	16295
914.793	16318
914.906	16025
915.019	15934
915.132	15956
915.245	15884
915.358	15968
915.47	16029
915.583	15975
915.696	15991
915.809	16082
915.921	16036
916.034	15876
916.146	15903
916.259	15888
916.371	15972
916.483	15884
916.595	15857
916.708	15827
916.82	15701
916.932	15789
917.044	15709
917.156	15709
917.268	15595
917.38	15667
917.491	15656
917.603	15679
917.715	15755
917.826	15599
917.938	15568
918.049	15401
918.161	15481
918.272	15644
918.384	15625
918.495	15633
918.606	15317
918.717	15260
918.828	15317
918.939	15435
919.05	15359
919.161	15313
919.272	15237
919.383	15161
919.494	15355
919.604	15564
919.715	15351
919.826	15260
919.936	15344
920.047	15370
920.157	15279
920.267	15458
920.378	15348
920.488	15378
920.598	15492
920.708	15618
920.818	15485
920.928	15351
921.038	15629
921.148	15526
921.258	15173
921.368	15116
921.477	15036
921.587	15020
921.697	14933
921.806	14952
921.916	14834
922.025	14670
922.134	14587
922.244	14579
922.353	14667
922.462	14480
922.571	14393
922.68	14301
922.789	14324
922.898	14400
923.007	14267
923.116	14240
923.224	14221
923.333	14240
923.442	14065
923.55	14172
923.659	14123
923.767	14202
923.876	14145
923.984	14221
924.092	14039
924.201	14100
924.309	14058
924.417	14012
924.525	13967
924.633	13928
924.741	14686
924.849	13708
924.956	13852
925.064	13738
925.172	13662
925.279	13594
925.387	13700
925.494	13643
925.602	13734
925.709	13715
925.816	13499
925.924	13552
926.031	13639
926.138	13567
926.245	13639
926.352	13457
926.459	13636
926.566	13689
926.673	13514
926.779	13430
926.886	13343
926.993	13187
927.099	13209
927.206	13103
927.312	13057
927.419	13217
927.525	13236
927.631	13137
927.737	13160
927.843	13061
927.95	12867
928.056	12932
928.162	12996
928.267	13027
928.373	13643
928.479	13072
928.585	12882
928.69	12985
928.796	12909
928.901	12890
929.007	12757
929.112	12958
929.218	12772
929.323	12734
929.428	12677
929.533	12859
929.638	12601
929.743	12707
929.848	12631
929.953	12703
930.058	12544
930.163	12475
930.267	12410
930.372	12570
930.477	12334
930.581	12555
930.685	12445
930.79	12247
930.894	12262
930.998	12228
931.103	12376
931.207	11980
931.311	11988
931.415	11821
931.519	11611
931.623	11573
