Data from test_V78500241_1955.txt Node
Date: Fri Mar 25 15:55:20 CST 2022
User: usil
Spectrometer: V785-0024
Trigger mode: 0
Integration Time (sec): 4.000000E-1
Scans to average: 1
Nonlinearity correction enabled: false
Boxcar width: 0
Storing dark spectrum: false
XAxis mode: Wavelengths
Number of Pixels in Spectrum: 1024
>>>>>Begin Spectral Data<<<<<
801.071	28660
801.214	28683
801.356	28409
801.499	28565
801.641	28196
801.783	28253
801.926	28344
802.068	28196
802.211	28211
802.353	28207
802.496	28044
802.638	27827
802.78	27892
802.923	27739
803.065	27751
803.208	27854
803.35	27991
803.492	28017
803.635	28002
803.777	28013
803.919	28082
804.061	28531
804.204	28253
804.346	27983
804.488	27991
804.63	28230
804.773	28223
804.915	28299
805.057	28322
805.199	28223
805.341	28314
805.483	28188
805.626	28185
805.768	28287
805.91	28272
806.052	28356
806.194	28386
806.336	28478
806.478	28421
806.62	28360
806.762	28584
806.904	28691
807.046	28896
807.188	28656
807.33	28774
807.472	28862
807.614	28687
807.756	28683
807.898	28630
808.04	28531
808.182	28577
808.324	28725
808.465	28733
808.607	28877
808.749	29037
808.891	29083
809.033	29102
809.174	29006
809.316	29010
809.458	28976
809.6	29071
809.741	29178
809.883	29044
810.025	29292
810.166	29242
810.308	29250
810.45	29322
810.591	29048
810.733	29052
810.875	29037
811.016	28904
811.158	28873
811.299	28999
811.441	29151
811.582	29132
811.724	28972
811.865	28946
812.007	29124
812.148	29003
812.29	29056
812.431	28995
812.573	29379
812.714	29417
812.855	29619
812.997	29718
813.138	29764
813.279	29783
813.421	29539
813.562	29512
813.703	29322
813.845	29250
813.986	28938
814.127	28980
814.268	28736
814.41	28755
814.551	28641
814.692	28790
814.833	28588
814.974	28729
815.115	28805
815.256	28565
815.397	28607
815.539	28573
815.68	28573
815.821	28523
815.962	28470
816.103	28637
816.244	28379
816.385	28322
816.526	28211
816.666	28109
816.807	28040
816.948	28112
817.089	28059
817.23	28219
817.371	28013
817.512	28086
817.653	28010
817.793	27899
817.934	28063
818.075	27865
818.216	28070
818.356	27937
818.497	27899
818.638	27762
818.778	27884
818.919	27846
819.06	27812
819.2	27880
819.341	27914
819.481	27994
819.622	28147
819.762	28424
819.903	28303
820.043	28382
820.184	28204
820.324	28124
820.465	28318
820.605	28158
820.746	28143
820.886	28090
821.026	28322
821.167	28105
821.307	27945
821.447	28013
821.588	28002
821.728	27937
821.868	27660
822.008	27564
822.149	27447
822.289	27447
822.429	27245
822.569	27154
822.709	27233
822.849	27032
822.99	26921
823.13	27055
823.27	26990
823.41	26895
823.55	26629
823.69	26834
823.83	26792
823.97	26842
824.11	26663
824.25	26636
824.389	26579
824.529	26678
824.669	26758
824.809	26697
824.949	26663
825.089	26731
825.228	26830
825.368	26518
825.508	26507
825.648	26526
825.787	26533
825.927	26427
826.067	26511
826.206	26541
826.346	26644
826.485	26533
826.625	26453
826.765	26556
826.904	26533
827.044	26282
827.183	26294
827.323	26164
827.462	26385
827.601	26415
827.741	26221
827.88	26320
828.02	26187
828.159	26130
828.298	26324
828.437	26271
828.577	26130
828.716	26351
828.855	26183
828.994	25932
829.134	26050
829.273	25951
829.412	25879
829.551	25913
829.69	25871
829.829	26054
829.968	25868
830.107	26084
830.246	25986
830.385	25849
830.524	25860
830.663	25666
830.802	25635
830.941	25609
831.08	25559
831.219	25658
831.357	25635
831.496	25738
831.635	25643
831.774	25548
831.913	25426
832.051	25396
832.19	25339
832.329	25343
832.467	25240
832.606	25057
832.744	25042
832.883	25194
833.022	25160
833.16	25168
833.299	25301
833.437	25274
833.576	25164
833.714	25213
833.852	25350
833.991	25331
834.129	25411
834.267	25362
834.406	25240
834.544	25304
834.682	25324
834.821	25377
834.959	25396
835.097	25107
835.235	25202
835.373	25213
835.511	25285
835.65	25160
835.788	25270
835.926	24890
836.064	24795
836.202	24913
836.34	25145
836.478	25213
836.615	24970
836.753	25194
836.891	25057
837.029	25122
837.167	25095
837.305	25034
837.443	24871
837.58	24848
837.718	24817
837.856	24859
837.993	24894
838.131	24863
838.269	24730
838.406	24795
838.544	24703
838.681	24555
838.819	24475
838.956	24410
839.094	24315
839.231	24597
839.369	24608
839.506	24886
839.643	24566
839.781	24460
839.918	24334
840.055	24471
840.193	24369
840.33	24209
840.467	24388
840.604	24460
840.742	24650
840.879	24079
841.016	24239
841.153	24186
841.29	24327
841.427	24277
841.564	24308
841.701	24243
841.838	24327
841.975	24258
842.112	24182
842.249	24167
842.385	23973
842.522	24270
842.659	24114
842.796	24018
842.933	24068
843.069	24045
843.206	23950
843.343	24174
843.479	23973
843.616	24114
843.752	23863
843.889	23824
844.025	23984
844.162	23760
844.298	23946
844.435	23840
844.571	23798
844.708	23851
844.844	23931
844.98	23965
845.117	23980
845.253	23828
845.389	23661
845.525	23562
845.661	23661
845.798	23482
845.934	23703
846.07	23543
846.206	23547
846.342	23687
846.478	23459
846.614	23452
846.75	23341
846.886	23299
847.022	23353
847.158	23334
847.294	23280
847.429	23261
847.565	23181
847.701	23471
847.837	23056
847.972	22999
848.108	23143
848.244	23159
848.379	22995
848.515	22923
848.65	22942
848.786	22771
848.921	23044
849.057	22934
849.192	22927
849.328	22987
849.463	22847
849.598	22820
849.734	22850
849.869	22679
850.004	22607
850.14	22717
850.275	22542
850.41	22607
850.545	22535
850.68	22599
850.815	22679
850.95	22660
851.085	22877
851.22	22664
851.355	22573
851.49	22542
851.625	22474
851.76	22535
851.895	22512
852.03	22588
852.165	22607
852.299	22683
852.434	22729
852.569	22748
852.703	22683
852.838	22675
852.973	22790
853.107	22767
853.242	22565
853.376	22280
853.511	22246
853.645	22440
853.78	22577
853.914	22546
854.048	22440
854.183	22447
854.317	22497
854.451	22645
854.585	22459
854.72	22402
854.854	22523
854.988	22436
855.122	22478
855.256	22398
855.39	22481
855.524	22512
855.658	22565
855.792	22459
855.926	22443
856.06	22512
856.194	22500
856.327	22459
856.461	22413
856.595	22375
856.729	22322
856.862	22546
856.996	22512
857.13	22535
857.263	22462
857.397	22535
857.53	22478
857.664	22409
857.797	22424
857.931	22588
858.064	22508
858.197	22519
858.331	22508
858.464	22352
858.597	22211
858.731	22493
858.864	22375
858.997	22405
859.13	22455
859.263	22299
859.396	22485
859.529	22314
859.662	22508
859.795	22303
859.928	22398
860.061	22622
860.194	22653
860.327	22493
860.46	22497
860.592	22535
860.725	22618
860.858	22519
860.99	22542
861.123	22386
861.256	22466
861.388	22481
861.521	23189
861.653	22188
861.786	22207
861.918	22390
862.05	22322
862.183	22318
862.315	22360
862.447	22417
862.58	22405
862.712	22166
862.844	22181
862.976	22215
863.108	22363
863.24	22615
863.372	22105
863.504	22143
863.636	22306
863.768	22268
863.9	22215
864.032	22101
864.164	22116
864.296	22200
864.428	22318
864.559	22211
864.691	22169
864.823	22188
864.954	22078
865.086	22139
865.217	22166
865.349	22055
865.48	22086
865.612	22025
865.743	22128
865.875	22101
866.006	21991
866.137	22040
866.269	22036
866.4	22013
866.531	21922
866.662	21930
866.793	21903
866.924	21831
867.055	21972
867.186	22017
867.317	21968
867.448	21888
867.579	21899
867.71	21895
867.841	21846
867.972	21907
868.103	21972
868.233	22010
868.364	21934
868.495	22116
868.625	22287
868.756	22322
868.886	22238
869.017	22192
869.147	22223
869.278	22341
869.408	22207
869.539	22177
869.669	22318
869.799	22230
869.929	22375
870.06	22363
870.19	22634
870.32	22546
870.45	22554
870.58	22557
870.71	22611
870.84	22630
870.97	22698
871.1	22478
871.23	22664
871.36	22854
871.489	22637
871.619	22752
871.749	22824
871.879	22831
872.008	22927
872.138	22858
872.267	22713
872.397	22656
872.526	22557
872.656	22637
872.785	22748
872.915	22725
873.044	23010
873.173	22934
873.303	22820
873.432	22946
873.561	22927
873.69	22885
873.819	22839
873.948	22885
874.077	22755
874.206	22793
874.335	22729
874.464	23029
874.593	23052
874.722	22965
874.851	23086
874.979	23056
875.108	23094
875.237	23010
875.365	22942
875.494	22892
875.623	23102
875.751	22999
875.88	23014
876.008	23143
876.136	23109
876.265	23383
876.393	23649
876.521	23528
876.65	23528
876.778	23372
876.906	23440
877.034	23311
877.162	23383
877.29	23376
877.418	23482
877.546	23383
877.674	23326
877.802	23433
877.93	23467
878.058	23242
878.185	23288
878.313	23322
878.441	23307
878.568	23212
878.696	23292
878.824	23273
878.951	23353
879.079	23482
879.206	23619
879.333	23455
879.461	23410
879.588	23516
879.715	23516
879.842	23585
879.97	23398
880.097	23098
880.224	23303
880.351	23090
880.478	23258
880.605	23109
880.732	23204
880.859	23379
880.986	23128
881.112	23086
881.239	22972
881.366	22908
881.493	22896
881.619	22831
881.746	22774
881.872	22702
881.999	22630
882.125	22706
882.252	22729
882.378	22774
882.505	22759
882.631	22592
882.757	22485
882.883	22596
883.01	22402
883.136	22409
883.262	22386
883.388	22333
883.514	22500
883.64	22440
883.766	22379
883.892	22333
884.018	22257
884.143	22265
884.269	22424
884.395	22074
884.52	22101
884.646	21949
884.772	22002
884.897	22002
885.023	21876
885.148	22051
885.274	22314
885.399	22181
885.524	22040
885.65	21949
885.775	22051
885.9	22143
886.025	22078
886.15	22059
886.275	22070
886.4	21892
886.525	21972
886.65	21945
886.775	21930
886.9	22025
887.025	22215
887.149	21937
887.274	21812
887.399	21797
887.523	21781
887.648	21800
887.773	21755
887.897	21911
888.021	21800
888.146	21610
888.27	21953
888.395	21789
888.519	21838
888.643	21766
888.767	21831
888.891	21682
889.015	21778
889.139	21644
889.263	21629
889.387	21759
889.511	21755
889.635	21679
889.759	21629
889.883	21538
890.006	21568
890.13	21705
890.254	21507
890.377	21515
890.501	21401
890.624	21256
890.748	21504
890.871	21199
890.995	21131
891.118	21066
891.241	21154
891.364	21154
891.488	21294
891.611	21074
891.734	21176
891.857	21127
891.98	21127
892.103	21195
892.226	21138
892.349	21169
892.471	20800
892.594	21036
892.717	21051
892.839	21001
892.962	21066
893.085	21104
893.207	21028
893.33	20941
893.452	20887
893.575	21119
893.697	20971
893.819	21135
893.941	21245
894.064	21169
894.186	21062
894.308	21058
894.43	21009
894.552	21135
894.674	21142
894.796	20925
894.918	21017
895.04	20861
895.161	21157
895.283	21028
895.405	21001
895.526	20990
895.648	20986
895.769	20990
895.891	21093
896.012	21127
896.134	21123
896.255	21009
896.376	21047
896.498	21017
896.619	21112
896.74	21077
896.861	21062
896.982	21340
897.103	21428
897.224	21351
897.345	21310
897.466	21184
897.587	21317
897.708	21367
897.828	21150
897.949	21112
898.07	21093
898.19	21131
898.311	21272
898.431	21116
898.552	21180
898.672	21245
898.792	21203
898.913	21100
899.033	21138
899.153	20960
899.273	20929
899.393	20967
899.513	20956
899.633	20929
899.753	21043
899.873	20937
899.993	21039
900.113	20845
900.232	20941
900.352	20834
900.472	20781
900.591	20746
900.711	20701
900.83	20659
900.95	20842
901.069	20724
901.189	20663
901.308	20381
901.427	20427
901.546	20301
901.665	20282
901.784	20336
901.904	20149
902.023	20005
902.141	19864
902.26	19830
902.379	19967
902.498	19784
902.617	19868
902.735	19822
902.854	19799
902.973	19772
903.091	19472
903.21	19502
903.328	19453
903.446	19422
903.565	19156
903.683	19270
903.801	19168
903.919	19324
904.038	19232
904.156	19129
904.274	19175
904.392	18909
904.51	19015
904.627	18962
904.745	19012
904.863	19053
904.981	18848
905.098	18730
905.216	18654
905.334	18768
905.451	18730
905.569	18616
905.686	18715
905.803	18703
905.921	18483
906.038	18483
906.155	18391
906.272	18338
906.389	18456
906.506	18300
906.623	18205
906.74	18178
906.857	18049
906.974	18201
907.091	18239
907.208	18266
907.324	18308
907.441	17996
907.557	17992
907.674	17920
907.79	17805
907.907	17828
908.023	17847
908.139	17927
908.256	17722
908.372	17920
908.488	17847
908.604	17684
908.72	17573
908.836	17592
908.952	17562
909.068	17710
909.184	17718
909.3	17547
909.415	17646
909.531	17585
909.647	17349
909.762	17337
909.878	17360
909.993	17337
910.108	17212
910.224	17330
910.339	17200
910.454	17197
910.57	16984
910.685	17025
910.8	17292
910.915	17261
911.03	17071
911.145	16866
911.259	16938
911.374	16862
911.489	16850
911.604	16748
911.718	16622
911.833	16603
911.947	16580
912.062	16443
912.176	16637
912.291	16672
912.405	16611
912.519	16946
912.633	16850
912.748	16767
912.862	16611
912.976	16455
913.09	16322
913.204	16371
913.318	16432
913.431	16516
913.545	16462
913.659	16580
913.772	16280
913.886	16379
914	16299
914.113	16333
914.226	16371
914.34	16234
914.453	16211
914.566	16238
914.68	16040
914.793	16105
914.906	15941
915.019	15918
915.132	15781
915.245	15838
915.358	15831
915.47	15789
915.583	15720
915.696	15739
915.809	15934
915.921	15861
916.034	15720
916.146	15732
916.259	15698
916.371	15717
916.483	15755
916.595	15694
916.708	15648
916.82	15622
916.932	15568
917.044	15591
917.156	15549
917.268	15466
917.38	15496
917.491	15523
917.603	15530
917.715	15454
917.826	15572
917.938	15325
918.049	15412
918.161	15431
918.272	15492
918.384	15504
918.495	15408
918.606	15195
918.717	15154
918.828	15226
918.939	15207
919.05	15085
919.161	15203
919.272	14929
919.383	15097
919.494	15294
919.604	15351
919.715	15199
919.826	15074
919.936	15081
920.047	15294
920.157	15138
920.267	15348
920.378	15142
920.488	15081
920.598	15397
920.708	15412
920.818	15268
920.928	15252
921.038	15473
921.148	15374
921.258	15108
921.368	15009
921.477	14918
921.587	14800
921.697	14720
921.806	14849
921.916	14731
922.025	14594
922.134	14465
922.244	14476
922.353	14495
922.462	14389
922.571	14290
922.68	14126
922.789	14149
922.898	14195
923.007	14100
923.116	14142
923.224	14088
923.333	14024
923.442	13944
923.55	14024
923.659	14031
923.767	14054
923.876	13925
923.984	14054
924.092	13860
924.201	13986
924.309	13890
924.417	13837
924.525	13799
924.633	13814
924.741	14625
924.849	13521
924.956	13666
925.064	13605
925.172	13499
925.279	13597
925.387	13540
925.494	13552
925.602	13624
925.709	13525
925.816	13426
925.924	13472
926.031	13502
926.138	13453
926.245	13514
926.352	13304
926.459	13521
926.566	13525
926.673	13472
926.779	13301
926.886	13270
926.993	13122
927.099	13099
927.206	13095
927.312	12973
927.419	13149
927.525	12973
927.631	13110
927.737	12958
927.843	12943
927.95	12795
928.056	12905
928.162	12943
928.267	12928
928.373	13460
928.479	12966
928.585	12798
928.69	12840
928.796	12848
928.901	12677
929.007	12585
929.112	12764
929.218	12749
929.323	12696
929.428	12574
929.533	12783
929.638	12536
929.743	12555
929.848	12540
929.953	12486
930.058	12407
930.163	12270
930.267	12342
930.372	12388
930.477	12216
930.581	12467
930.685	12315
930.79	12148
930.894	12155
930.998	12106
931.103	12220
931.207	11836
931.311	11752
931.415	11771
931.519	11547
931.623	11463
