Data from test_V78500241_2909.txt Node
Date: Fri Mar 25 16:01:57 CST 2022
User: usil
Spectrometer: V785-0024
Trigger mode: 0
Integration Time (sec): 4.000000E-1
Scans to average: 1
Nonlinearity correction enabled: false
Boxcar width: 0
Storing dark spectrum: false
XAxis mode: Wavelengths
Number of Pixels in Spectrum: 1024
>>>>>Begin Spectral Data<<<<<
801.071	28577
801.214	28481
801.356	28291
801.499	28234
801.641	28143
801.783	28105
801.926	28348
802.068	28154
802.211	28139
802.353	28109
802.496	27972
802.638	27903
802.78	27778
802.923	27686
803.065	27766
803.208	27880
803.35	27991
803.492	28078
803.635	28166
803.777	28040
803.919	28158
804.061	28519
804.204	28215
804.346	28219
804.488	28002
804.63	28074
804.773	27975
804.915	28116
805.057	28295
805.199	28173
805.341	28280
805.483	28284
805.626	28185
805.768	28112
805.91	28360
806.052	28299
806.194	28226
806.336	28356
806.478	28325
806.62	28246
806.762	28557
806.904	28584
807.046	28854
807.188	28797
807.33	28694
807.472	28850
807.614	28702
807.756	28763
807.898	28596
808.04	28599
808.182	28599
808.324	28622
808.465	28584
808.607	29018
808.749	29014
808.891	28877
809.033	29220
809.174	29200
809.316	28957
809.458	28976
809.6	28942
809.741	29105
809.883	29109
810.025	29220
810.166	29216
810.308	29174
810.45	29117
810.591	29242
810.733	29143
810.875	28930
811.016	28927
811.158	28835
811.299	29083
811.441	29204
811.582	29147
811.724	28976
811.865	28888
812.007	28995
812.148	28923
812.29	28934
812.431	29318
812.573	29372
812.714	29467
812.855	29463
812.997	29573
813.138	29733
813.279	29805
813.421	29573
813.562	29455
813.703	29299
813.845	29307
813.986	28953
814.127	28835
814.268	28592
814.41	28675
814.551	28557
814.692	28786
814.833	28721
814.974	28831
815.115	28656
815.256	28508
815.397	28744
815.539	28565
815.68	28569
815.821	28401
815.962	28542
816.103	28569
816.244	28405
816.385	28322
816.526	28215
816.666	28124
816.807	27991
816.948	28059
817.089	28101
817.23	27914
817.371	27888
817.512	27975
817.653	27960
817.793	27857
817.934	27994
818.075	28029
818.216	28093
818.356	27926
818.497	27884
818.638	27808
818.778	27766
818.919	27941
819.06	27823
819.2	28048
819.341	28002
819.481	28063
819.622	28177
819.762	28379
819.903	28268
820.043	28299
820.184	28169
820.324	28128
820.465	28306
820.605	28188
820.746	28169
820.886	28025
821.026	28128
821.167	28090
821.307	28070
821.447	28010
821.588	27911
821.728	27884
821.868	27720
822.008	27507
822.149	27492
822.289	27530
822.429	27310
822.569	27321
822.709	27195
822.849	27051
822.99	27066
823.13	27024
823.27	26979
823.41	26910
823.55	26750
823.69	26834
823.83	26857
823.97	26861
824.11	26621
824.25	26518
824.389	26697
824.529	26796
824.669	26765
824.809	26773
824.949	26819
825.089	26842
825.228	26705
825.368	26564
825.508	26503
825.648	26522
825.787	26800
825.927	26484
826.067	26495
826.206	26514
826.346	26640
826.485	26769
826.625	26537
826.765	26769
826.904	26590
827.044	26408
827.183	26355
827.323	26240
827.462	26225
827.601	26332
827.741	26358
827.88	26298
828.02	26199
828.159	26298
828.298	26339
828.437	26351
828.577	26252
828.716	26453
828.855	26187
828.994	26069
829.134	25849
829.273	26039
829.412	25963
829.551	25856
829.69	25993
829.829	25986
829.968	25921
830.107	25947
830.246	25955
830.385	25715
830.524	25898
830.663	25696
830.802	25601
830.941	25518
831.08	25674
831.219	25643
831.357	25632
831.496	25860
831.635	25430
831.774	25670
831.913	25457
832.051	25327
832.19	25293
832.329	25331
832.467	25255
832.606	25255
832.744	25225
832.883	25164
833.022	25129
833.16	25209
833.299	25343
833.437	25251
833.576	25282
833.714	25304
833.852	25422
833.991	25362
834.129	25354
834.267	25339
834.406	25289
834.544	25335
834.682	25324
834.821	25209
834.959	25434
835.097	25141
835.235	25468
835.373	25228
835.511	25411
835.65	25107
835.788	25110
835.926	25088
836.064	25076
836.202	25042
836.34	25069
836.478	25190
836.615	25099
836.753	25019
836.891	25114
837.029	25164
837.167	24916
837.305	25095
837.443	25004
837.58	24943
837.718	24954
837.856	25160
837.993	25038
838.131	24966
838.269	24844
838.406	24882
838.544	24787
838.681	24525
838.819	24639
838.956	24441
839.094	24247
839.231	24426
839.369	24620
839.506	24817
839.643	24722
839.781	24258
839.918	24292
840.055	24448
840.193	24376
840.33	24353
840.467	24388
840.604	24327
840.742	24532
840.879	24194
841.016	24262
841.153	24140
841.29	24448
841.427	24182
841.564	24410
841.701	24262
841.838	24243
841.975	24213
842.112	24167
842.249	24224
842.385	24110
842.522	24365
842.659	24098
842.796	24068
842.933	24049
843.069	23973
843.206	24045
843.343	24083
843.479	24053
843.616	24102
843.752	23893
843.889	23927
844.025	24015
844.162	23912
844.298	23798
844.435	23973
844.571	23798
844.708	23821
844.844	23939
844.98	24030
845.117	24003
845.253	23802
845.389	23634
845.525	23855
845.661	23722
845.798	23505
845.934	23707
846.07	23562
846.206	23570
846.342	23638
846.478	23554
846.614	23421
846.75	23223
846.886	23414
847.022	23364
847.158	23265
847.294	23334
847.429	23353
847.565	23277
847.701	23474
847.837	23006
847.972	23033
848.108	23178
848.244	23071
848.379	22843
848.515	22778
848.65	22942
848.786	22805
848.921	22850
849.057	23102
849.192	22984
849.328	23010
849.463	22873
849.598	22866
849.734	22763
849.869	22653
850.004	22683
850.14	22698
850.275	22797
850.41	22512
850.545	22687
850.68	22611
850.815	22828
850.95	22649
851.085	22839
851.22	22812
851.355	22740
851.49	22622
851.625	22527
851.76	22668
851.895	22462
852.03	22561
852.165	22702
852.299	22584
852.434	22630
852.569	22831
852.703	22637
852.838	22694
852.973	22801
853.107	22767
853.242	22611
853.376	22596
853.511	22417
853.645	22390
853.78	22596
853.914	22493
854.048	22386
854.183	22386
854.317	22607
854.451	22679
854.585	22508
854.72	22508
854.854	22634
854.988	22424
855.122	22500
855.256	22451
855.39	22390
855.524	22546
855.658	22428
855.792	22538
855.926	22447
856.06	22466
856.194	22569
856.327	22474
856.461	22390
856.595	22474
856.729	22341
856.862	22588
856.996	22447
857.13	22504
857.263	22557
857.397	22474
857.53	22455
857.664	22554
857.797	22405
857.931	22569
858.064	22344
858.197	22569
858.331	22584
858.464	22303
858.597	22363
858.731	22413
858.864	22409
858.997	22284
859.13	22516
859.263	22432
859.396	22603
859.529	22493
859.662	22356
859.795	22481
859.928	22508
860.061	22596
860.194	22675
860.327	22557
860.46	22538
860.592	22611
860.725	22580
860.858	22675
860.99	22459
861.123	22382
861.256	22459
861.388	22504
861.521	23170
861.653	22280
861.786	22352
861.918	22310
862.05	22405
862.183	22356
862.315	22516
862.447	22497
862.58	22363
862.712	22177
862.844	22086
862.976	22280
863.108	22287
863.24	22748
863.372	22067
863.504	22177
863.636	22200
863.768	22348
863.9	22135
864.032	22090
864.164	22162
864.296	22306
864.428	22226
864.559	22169
864.691	22272
864.823	22147
864.954	22207
865.086	22192
865.217	22097
865.349	22025
865.48	22086
865.612	22166
865.743	22238
865.875	22082
866.006	22051
866.137	22090
866.269	22090
866.4	22135
866.531	22093
866.662	21953
866.793	22044
866.924	21975
867.055	22090
867.186	22051
867.317	21941
867.448	21998
867.579	22090
867.71	21975
867.841	21964
867.972	22070
868.103	21960
868.233	21907
868.364	21861
868.495	22112
868.625	22173
868.756	22421
868.886	22188
869.017	22303
869.147	22291
869.278	22386
869.408	22207
869.539	22314
869.669	22413
869.799	22242
869.929	22272
870.06	22352
870.19	22565
870.32	22485
870.45	22691
870.58	22656
870.71	22748
870.84	22717
870.97	22584
871.1	22801
871.23	22866
871.36	22801
871.489	22786
871.619	22771
871.749	22908
871.879	22980
872.008	23010
872.138	22843
872.267	22801
872.397	22702
872.526	22733
872.656	22736
872.785	22622
872.915	22843
873.044	22885
873.173	22786
873.303	23010
873.432	22923
873.561	22949
873.69	22908
873.819	22839
873.948	23064
874.077	22927
874.206	22843
874.335	22862
874.464	22923
874.593	23170
874.722	23025
874.851	23128
874.979	23090
875.108	23178
875.237	23022
875.365	22976
875.494	23083
875.623	23174
875.751	23006
875.88	23060
876.008	23246
876.136	23147
876.265	23421
876.393	23672
876.521	23482
876.65	23425
876.778	23395
876.906	23486
877.034	23440
877.162	23398
877.29	23379
877.418	23391
877.546	23524
877.674	23425
877.802	23337
877.93	23372
878.058	23379
878.185	23341
878.313	23474
878.441	23368
878.568	23204
878.696	23383
878.824	23398
878.951	23448
879.079	23531
879.206	23627
879.333	23646
879.461	23440
879.588	23440
879.715	23695
879.842	23623
879.97	23455
880.097	23292
880.224	23220
880.351	23155
880.478	23204
880.605	23299
880.732	23136
880.859	23356
880.986	23398
881.112	23227
881.239	23090
881.366	23056
881.493	22850
881.619	22839
881.746	22691
881.872	22801
881.999	22672
882.125	22847
882.252	22710
882.378	22736
882.505	22790
882.631	22588
882.757	22436
882.883	22584
883.01	22417
883.136	22413
883.262	22333
883.388	22261
883.514	22565
883.64	22455
883.766	22443
883.892	22154
884.018	22337
884.143	22402
884.269	22436
884.395	22223
884.52	22154
884.646	22162
884.772	22112
884.897	21968
885.023	22067
885.148	22147
885.274	22166
885.399	22238
885.524	22124
885.65	22139
885.775	22040
885.9	22124
886.025	22154
886.15	22147
886.275	22105
886.4	21987
886.525	22166
886.65	22074
886.775	21968
886.9	22124
887.025	22265
887.149	22017
887.274	21918
887.399	21915
887.523	21861
887.648	21751
887.773	21747
887.897	21949
888.021	21835
888.146	21800
888.27	21895
888.395	21888
888.519	21983
888.643	21743
888.767	21827
888.891	21800
889.015	21739
889.139	21553
889.263	21530
889.387	21755
889.511	21937
889.635	21755
889.759	21751
889.883	21587
890.006	21641
890.13	21583
890.254	21610
890.377	21564
890.501	21488
890.624	21405
890.748	21450
890.871	21378
890.995	21192
891.118	21237
891.241	21268
891.364	21157
891.488	21252
891.611	21192
891.734	21169
891.857	21184
891.98	21173
892.103	21237
892.226	21138
892.349	21135
892.471	21058
892.594	21093
892.717	21096
892.839	21131
892.962	21096
893.085	21081
893.207	20971
893.33	21077
893.452	20963
893.575	21142
893.697	21051
893.819	21169
893.941	21260
894.064	21302
894.186	21013
894.308	21013
894.43	21138
894.552	21230
894.674	21241
894.796	20910
894.918	21066
895.04	21157
895.161	21055
895.283	21017
895.405	21036
895.526	20979
895.648	21043
895.769	21074
895.891	21157
896.012	21180
896.134	21154
896.255	21119
896.376	21009
896.498	21039
896.619	21138
896.74	21127
896.861	21100
896.982	21386
897.103	21515
897.224	21313
897.345	21321
897.466	21146
897.587	21317
897.708	21367
897.828	21355
897.949	21169
898.07	21195
898.19	21192
898.311	21321
898.431	21146
898.552	21199
898.672	21313
898.792	21218
898.913	21222
899.033	21146
899.153	21089
899.273	20895
899.393	20960
899.513	21036
899.633	21036
899.753	21032
899.873	20982
899.993	20998
900.113	20765
900.232	20941
900.352	20910
900.472	20746
900.591	20678
900.711	20777
900.83	20735
900.95	20826
901.069	20838
901.189	20606
901.308	20408
901.427	20259
901.546	20339
901.665	20286
901.784	20305
901.904	20244
902.023	20138
902.141	19982
902.26	19909
902.379	20062
902.498	19772
902.617	19818
902.735	19875
902.854	19845
902.973	19708
903.091	19605
903.21	19537
903.328	19521
903.446	19339
903.565	19270
903.683	19369
903.801	19099
903.919	19225
904.038	19198
904.156	19183
904.274	19141
904.392	19053
904.51	18973
904.627	18985
904.745	19053
904.863	19107
904.981	18791
905.098	18772
905.216	18665
905.334	18696
905.451	18749
905.569	18726
905.686	18700
905.803	18635
905.921	18559
906.038	18593
906.155	18593
906.272	18391
906.389	18422
906.506	18300
906.623	18239
906.74	18213
906.857	18091
906.974	18148
907.091	18285
907.208	18342
907.324	18300
907.441	18152
907.557	17935
907.674	17927
907.79	17923
907.907	17908
908.023	17980
908.139	17912
908.256	17904
908.372	17885
908.488	17798
908.604	17726
908.72	17695
908.836	17623
908.952	17771
909.068	17764
909.184	17798
909.3	17657
909.415	17630
909.531	17566
909.647	17433
909.762	17364
909.878	17356
909.993	17311
910.108	17360
910.224	17265
910.339	17292
910.454	17235
910.57	17162
910.685	17185
910.8	17391
910.915	17235
911.03	17075
911.145	16987
911.259	16946
911.374	16957
911.489	16896
911.604	16824
911.718	16736
911.833	16653
911.947	16607
912.062	16546
912.176	16797
912.291	16736
912.405	16675
912.519	16869
912.633	16782
912.748	16721
912.862	16653
912.976	16558
913.09	16409
913.204	16474
913.318	16455
913.431	16565
913.545	16535
913.659	16493
913.772	16466
913.886	16261
914	16318
914.113	16386
914.226	16379
914.34	16325
914.453	16109
914.566	16360
914.68	16010
914.793	16078
914.906	15991
915.019	15854
915.132	15789
915.245	15846
915.358	15797
915.47	15922
915.583	15804
915.696	15941
915.809	15987
915.921	15975
916.034	15842
916.146	15770
916.259	15736
916.371	15846
916.483	15823
916.595	15641
916.708	15701
916.82	15656
916.932	15667
917.044	15660
917.156	15542
917.268	15511
917.38	15587
917.491	15439
917.603	15477
917.715	15538
917.826	15519
917.938	15317
918.049	15332
918.161	15351
918.272	15595
918.384	15561
918.495	15405
918.606	15283
918.717	15161
918.828	15268
918.939	15233
919.05	15123
919.161	15222
919.272	15039
919.383	15127
919.494	15180
919.604	15428
919.715	15131
919.826	15173
919.936	15142
920.047	15264
920.157	15131
920.267	15260
920.378	15161
920.488	15142
920.598	15332
920.708	15580
920.818	15306
920.928	15306
921.038	15428
921.148	15496
921.258	15199
921.368	14982
921.477	14906
921.587	15009
921.697	14765
921.806	14990
921.916	14720
922.025	14693
922.134	14556
922.244	14412
922.353	14613
922.462	14400
922.571	14374
922.68	14111
922.789	14248
922.898	14187
923.007	14183
923.116	14191
923.224	14149
923.333	14145
923.442	13947
923.55	14100
923.659	14050
923.767	14020
923.876	13967
923.984	14096
924.092	13909
924.201	13955
924.309	13974
924.417	13833
924.525	13708
924.633	13917
924.741	14785
924.849	13643
924.956	13822
925.064	13616
925.172	13419
925.279	13537
925.387	13571
925.494	13548
925.602	13696
925.709	13499
925.816	13487
925.924	13510
926.031	13529
926.138	13483
926.245	13460
926.352	13400
926.459	13567
926.566	13616
926.673	13480
926.779	13278
926.886	13327
926.993	13187
927.099	13145
927.206	13031
927.312	13076
927.419	13107
927.525	13008
927.631	13122
927.737	13000
927.843	12916
927.95	12875
928.056	12901
928.162	12882
928.267	12993
928.373	13499
928.479	13031
928.585	12741
928.69	12852
928.796	12920
928.901	12749
929.007	12601
929.112	12688
929.218	12654
929.323	12601
929.428	12593
929.533	12741
929.638	12547
929.743	12536
929.848	12642
929.953	12525
930.058	12460
930.163	12296
930.267	12342
930.372	12486
930.477	12197
930.581	12456
930.685	12311
930.79	12144
930.894	12117
930.998	12292
931.103	12266
931.207	11980
931.311	11798
931.415	11718
931.519	11589
931.623	11585
