Data from test_V78500241_2045.txt Node
Date: Fri Mar 25 15:55:58 CST 2022
User: usil
Spectrometer: V785-0024
Trigger mode: 0
Integration Time (sec): 4.000000E-1
Scans to average: 1
Nonlinearity correction enabled: false
Boxcar width: 0
Storing dark spectrum: false
XAxis mode: Wavelengths
Number of Pixels in Spectrum: 1024
>>>>>Begin Spectral Data<<<<<
801.071	28862
801.214	28919
801.356	28660
801.499	28645
801.641	28394
801.783	28363
801.926	28599
802.068	28401
802.211	28287
802.353	28363
802.496	28295
802.638	28253
802.78	28074
802.923	28086
803.065	28017
803.208	28116
803.35	28109
803.492	28154
803.635	28226
803.777	28196
803.919	28287
804.061	28615
804.204	28363
804.346	28318
804.488	28367
804.63	28310
804.773	28344
804.915	28375
805.057	28504
805.199	28344
805.341	28523
805.483	28424
805.626	28622
805.768	28318
805.91	28554
806.052	28618
806.194	28398
806.336	28706
806.478	28516
806.62	28599
806.762	28588
806.904	28767
807.046	29052
807.188	29010
807.33	28946
807.472	28999
807.614	28938
807.756	28927
807.898	28843
808.04	28687
808.182	28812
808.324	28869
808.465	28862
808.607	29075
808.749	29155
808.891	29280
809.033	29440
809.174	29250
809.316	29277
809.458	29349
809.6	29212
809.741	29318
809.883	29467
810.025	29554
810.166	29600
810.308	29611
810.45	29459
810.591	29395
810.733	29375
810.875	29250
811.016	29269
811.158	29162
811.299	29326
811.441	29528
811.582	29509
811.724	29349
811.865	29178
812.007	29246
812.148	29315
812.29	29254
812.431	29501
812.573	29653
812.714	29490
812.855	29718
812.997	29840
813.138	30076
813.279	29874
813.421	29729
813.562	29885
813.703	29684
813.845	29452
813.986	29379
814.127	29083
814.268	29094
814.41	28946
814.551	28793
814.692	29128
814.833	28938
814.974	28942
815.115	28915
815.256	28908
815.397	28976
815.539	28877
815.68	28653
815.821	28717
815.962	28752
816.103	28858
816.244	28580
816.385	28523
816.526	28527
816.666	28344
816.807	28158
816.948	28322
817.089	28405
817.23	28276
817.371	28223
817.512	28303
817.653	28299
817.793	28257
817.934	28257
818.075	28341
818.216	28215
818.356	28181
818.497	28059
818.638	27922
818.778	28002
818.919	27979
819.06	28169
819.2	28226
819.341	28242
819.481	28272
819.622	28356
819.762	28607
819.903	28607
820.043	28489
820.184	28459
820.324	28360
820.465	28455
820.605	28436
820.746	28409
820.886	28417
821.026	28299
821.167	28375
821.307	28538
821.447	28375
821.588	28230
821.728	28090
821.868	28002
822.008	27854
822.149	27770
822.289	27797
822.429	27549
822.569	27412
822.709	27431
822.849	27249
822.99	27382
823.13	27310
823.27	27249
823.41	27180
823.55	27020
823.69	27074
823.83	27135
823.97	27116
824.11	26975
824.25	26880
824.389	26963
824.529	27028
824.669	27024
824.809	27161
824.949	27020
825.089	26971
825.228	26876
825.368	26804
825.508	26929
825.648	26765
825.787	26686
825.927	26910
826.067	26925
826.206	26796
826.346	26834
826.485	26804
826.625	26804
826.765	26921
826.904	26807
827.044	26503
827.183	26587
827.323	26427
827.462	26613
827.601	26571
827.741	26404
827.88	26526
828.02	26480
828.159	26522
828.298	26457
828.437	26606
828.577	26499
828.716	26613
828.855	26446
828.994	26362
829.134	26294
829.273	26176
829.412	26100
829.551	26130
829.69	26195
829.829	26161
829.968	26305
830.107	26328
830.246	26221
830.385	26233
830.524	26096
830.663	25928
830.802	26157
830.941	25769
831.08	25776
831.219	25951
831.357	25936
831.496	25978
831.635	25799
831.774	25856
831.913	25719
832.051	25704
832.19	25651
832.329	25586
832.467	25464
832.606	25518
832.744	25518
832.883	25381
833.022	25407
833.16	25491
833.299	25491
833.437	25632
833.576	25571
833.714	25635
833.852	25575
833.991	25529
834.129	25643
834.267	25689
834.406	25628
834.544	25567
834.682	25704
834.821	25616
834.959	25616
835.097	25529
835.235	25575
835.373	25487
835.511	25491
835.65	25426
835.788	25476
835.926	25282
836.064	25206
836.202	25145
836.34	25438
836.478	25575
836.615	25255
836.753	25312
836.891	25438
837.029	25381
837.167	25202
837.305	25206
837.443	25308
837.58	25228
837.718	25384
837.856	25312
837.993	25126
838.131	25202
838.269	25084
838.406	25057
838.544	24989
838.681	24920
838.819	24760
838.956	24608
839.094	24582
839.231	24711
839.369	24825
839.506	25057
839.643	24833
839.781	24616
839.918	24673
840.055	24700
840.193	24654
840.33	24464
840.467	24601
840.604	24445
840.742	24817
840.879	24418
841.016	24597
841.153	24426
841.29	24601
841.427	24517
841.564	24616
841.701	24475
841.838	24532
841.975	24369
842.112	24494
842.249	24372
842.385	24270
842.522	24521
842.659	24441
842.796	24167
842.933	24395
843.069	24224
843.206	24273
843.343	24471
843.479	24228
843.616	24422
843.752	24095
843.889	24129
844.025	24232
844.162	24007
844.298	24144
844.435	24098
844.571	24144
844.708	24091
844.844	24095
844.98	24121
845.117	24171
845.253	24030
845.389	24022
845.525	24015
845.661	23813
845.798	23824
845.934	23840
846.07	23836
846.206	23946
846.342	23908
846.478	23726
846.614	23646
846.75	23467
846.886	23524
847.022	23611
847.158	23444
847.294	23558
847.429	23585
847.565	23516
847.701	23931
847.837	23356
847.972	23223
848.108	23280
848.244	23212
848.379	23159
848.515	23181
848.65	23121
848.786	23098
848.921	23033
849.057	23296
849.192	23223
849.328	23147
849.463	22991
849.598	22987
849.734	22957
849.869	23033
850.004	23014
850.14	22911
850.275	22900
850.41	22733
850.545	22911
850.68	22919
850.815	22942
850.95	22980
851.085	23113
851.22	23071
851.355	22953
851.49	22866
851.625	22847
851.76	22820
851.895	22866
852.03	22847
852.165	22965
852.299	22999
852.434	22877
852.569	22949
852.703	22911
852.838	22987
852.973	22972
853.107	23029
853.242	22771
853.376	22698
853.511	22550
853.645	22599
853.78	22744
853.914	22668
854.048	22607
854.183	22653
854.317	22812
854.451	22919
854.585	22675
854.72	22710
854.854	22790
854.988	22653
855.122	22710
855.256	22573
855.39	22706
855.524	22698
855.658	22778
855.792	22675
855.926	22763
856.06	22622
856.194	22767
856.327	22687
856.461	22691
856.595	22607
856.729	22622
856.862	22774
856.996	22752
857.13	22752
857.263	22835
857.397	22812
857.53	22550
857.664	22805
857.797	22778
857.931	22809
858.064	22698
858.197	22713
858.331	22672
858.464	22615
858.597	22607
858.731	22675
858.864	22584
858.997	22748
859.13	22694
859.263	22767
859.396	22828
859.529	22656
859.662	22649
859.795	22660
859.928	22755
860.061	22809
860.194	22839
860.327	22797
860.46	22797
860.592	22809
860.725	22987
860.858	22812
860.99	22675
861.123	22565
861.256	22660
861.388	22668
861.521	23429
861.653	22630
861.786	22455
861.918	22546
862.05	22607
862.183	22694
862.315	22698
862.447	22702
862.58	22626
862.712	22470
862.844	22344
862.976	22485
863.108	22356
863.24	22946
863.372	22394
863.504	22367
863.636	22405
863.768	22462
863.9	22390
864.032	22341
864.164	22306
864.296	22451
864.428	22470
864.559	22398
864.691	22402
864.823	22413
864.954	22409
865.086	22333
865.217	22276
865.349	22067
865.48	22284
865.612	22185
865.743	22390
865.875	22440
866.006	22162
866.137	22242
866.269	22356
866.4	22276
866.531	22226
866.662	22109
866.793	22147
866.924	22173
867.055	22348
867.186	22219
867.317	22200
867.448	22226
867.579	22109
867.71	21994
867.841	22120
867.972	22181
868.103	22147
868.233	22284
868.364	22291
868.495	22394
868.625	22337
868.756	22474
868.886	22310
869.017	22481
869.147	22527
869.278	22493
869.408	22466
869.539	22386
869.669	22478
869.799	22527
869.929	22580
870.06	22554
870.19	22675
870.32	22706
870.45	22812
870.58	22782
870.71	22980
870.84	23022
870.97	22881
871.1	22831
871.23	22957
871.36	23052
871.489	22850
871.619	22942
871.749	22927
871.879	23067
872.008	23212
872.138	23109
872.267	23025
872.397	22995
872.526	22923
872.656	22854
872.785	22698
872.915	23113
873.044	23105
873.173	23060
873.303	23071
873.432	23098
873.561	23121
873.69	23098
873.819	23018
873.948	23094
874.077	23056
874.206	23094
874.335	23064
874.464	23162
874.593	23307
874.722	23246
874.851	23231
874.979	23322
875.108	23273
875.237	23193
875.365	23326
875.494	23185
875.623	23250
875.751	23151
875.88	23261
876.008	23425
876.136	23509
876.265	23661
876.393	23863
876.521	23760
876.65	23638
876.778	23608
876.906	23539
877.034	23509
877.162	23589
877.29	23630
877.418	23554
877.546	23570
877.674	23638
877.802	23596
877.93	23490
878.058	23535
878.185	23372
878.313	23566
878.441	23657
878.568	23520
878.696	23592
878.824	23707
878.951	23760
879.079	23748
879.206	23794
879.333	23699
879.461	23646
879.588	23767
879.715	23756
879.842	23885
879.97	23638
880.097	23452
880.224	23455
880.351	23463
880.478	23444
880.605	23402
880.732	23429
880.859	23707
880.986	23414
881.112	23516
881.239	23261
881.366	23235
881.493	23151
881.619	22908
881.746	23124
881.872	22984
881.999	22961
882.125	22938
882.252	22965
882.378	23025
882.505	22972
882.631	22812
882.757	22645
882.883	22839
883.01	22607
883.136	22565
883.262	22478
883.388	22489
883.514	22706
883.64	22725
883.766	22550
883.892	22409
884.018	22500
884.143	22618
884.269	22645
884.395	22478
884.52	22234
884.646	22249
884.772	22211
884.897	22284
885.023	22367
885.148	22375
885.274	22481
885.399	22440
885.524	22356
885.65	22295
885.775	22360
885.9	22265
886.025	22409
886.15	22329
886.275	22299
886.4	22124
886.525	22230
886.65	22177
886.775	22185
886.9	22360
887.025	22466
887.149	22303
887.274	21892
887.399	22204
887.523	21964
887.648	22002
887.773	21956
887.897	22093
888.021	22150
888.146	22067
888.27	21949
888.395	22204
888.519	22055
888.643	22006
888.767	22128
888.891	21918
889.015	21781
889.139	21888
889.263	21797
889.387	21827
889.511	22078
889.635	21991
889.759	21762
889.883	21804
890.006	21778
890.13	21895
890.254	21599
890.377	21732
890.501	21595
890.624	21595
890.748	21587
890.871	21348
890.995	21424
891.118	21317
891.241	21511
891.364	21344
891.488	21412
891.611	21279
891.734	21523
891.857	21496
891.98	21397
892.103	21431
892.226	21363
892.349	21310
892.471	21230
892.594	21283
892.717	21401
892.839	21203
892.962	21313
893.085	21252
893.207	21325
893.33	21207
893.452	21241
893.575	21264
893.697	21188
893.819	21408
893.941	21515
894.064	21378
894.186	21165
894.308	21150
894.43	21237
894.552	21287
894.674	21340
894.796	21085
894.918	21241
895.04	21272
895.161	21214
895.283	21408
895.405	21199
895.526	21233
895.648	21237
895.769	21336
895.891	21264
896.012	21317
896.134	21237
896.255	21233
896.376	21176
896.498	21184
896.619	21329
896.74	21211
896.861	21302
896.982	21469
897.103	21652
897.224	21473
897.345	21412
897.466	21325
897.587	21587
897.708	21496
897.828	21447
897.949	21275
898.07	21306
898.19	21393
898.311	21488
898.431	21336
898.552	21393
898.672	21583
898.792	21416
898.913	21420
899.033	21355
899.153	21184
899.273	21043
899.393	21096
899.513	21237
899.633	21180
899.753	21142
899.873	21070
899.993	21218
900.113	21161
900.232	21157
900.352	21138
900.472	20994
900.591	20948
900.711	20876
900.83	20975
900.95	20979
901.069	20994
901.189	20754
901.308	20571
901.427	20355
901.546	20537
901.665	20530
901.784	20541
901.904	20457
902.023	20240
902.141	20035
902.26	20058
902.379	20199
902.498	19997
902.617	19932
902.735	19986
902.854	20100
902.973	19837
903.091	19666
903.21	19681
903.328	19685
903.446	19544
903.565	19514
903.683	19438
903.801	19392
903.919	19354
904.038	19392
904.156	19133
904.274	19289
904.392	19221
904.51	19232
904.627	19225
904.745	19225
904.863	19221
904.981	19027
905.098	18829
905.216	18932
905.334	18920
905.451	18871
905.569	18882
905.686	18966
905.803	18833
905.921	18700
906.038	18677
906.155	18593
906.272	18506
906.389	18658
906.506	18479
906.623	18441
906.74	18323
906.857	18407
906.974	18361
907.091	18350
907.208	18464
907.324	18460
907.441	18323
907.557	18163
907.674	18045
907.79	18144
907.907	18034
908.023	18136
908.139	18076
908.256	18072
908.372	17999
908.488	17920
908.604	17840
908.72	17859
908.836	17901
908.952	17798
909.068	17790
909.184	17885
909.3	17832
909.415	17855
909.531	17748
909.647	17585
909.762	17497
909.878	17577
909.993	17474
910.108	17440
910.224	17398
910.339	17528
910.454	17280
910.57	17315
910.685	17265
910.8	17596
910.915	17448
911.03	17353
911.145	17162
911.259	16991
911.374	17185
911.489	16938
911.604	16946
911.718	16828
911.833	16774
911.947	16698
912.062	16691
912.176	16782
912.291	16790
912.405	16881
912.519	17003
912.633	16991
912.748	16949
912.862	16873
912.976	16580
913.09	16565
913.204	16603
913.318	16622
913.431	16679
913.545	16675
913.659	16664
913.772	16519
913.886	16478
914	16470
914.113	16512
914.226	16455
914.34	16462
914.453	16299
914.566	16485
914.68	16257
914.793	16249
914.906	16124
915.019	15994
915.132	15892
915.245	15975
915.358	15899
915.47	15994
915.583	15956
915.696	15899
915.809	16090
915.921	16074
916.034	15964
916.146	16017
916.259	15899
916.371	15934
916.483	15907
916.595	15781
916.708	15907
916.82	15827
916.932	15793
917.044	15720
917.156	15717
917.268	15622
917.38	15625
917.491	15599
917.603	15587
917.715	15747
917.826	15770
917.938	15625
918.049	15507
918.161	15595
918.272	15641
918.384	15675
918.495	15534
918.606	15431
918.717	15344
918.828	15420
918.939	15408
919.05	15245
919.161	15355
919.272	15154
919.383	15116
919.494	15355
919.604	15545
919.715	15386
919.826	15272
919.936	15268
920.047	15374
920.157	15249
920.267	15511
920.378	15397
920.488	15325
920.598	15538
920.708	15606
920.818	15389
920.928	15370
921.038	15534
921.148	15557
921.258	15188
921.368	15131
921.477	15051
921.587	14963
921.697	14876
921.806	14944
921.916	14895
922.025	14716
922.134	14594
922.244	14632
922.353	14731
922.462	14549
922.571	14423
922.68	14393
922.789	14423
922.898	14320
923.007	14191
923.116	14412
923.224	14256
923.333	14259
923.442	14130
923.55	14024
923.659	14153
923.767	14084
923.876	14046
923.984	14142
924.092	13986
924.201	14062
924.309	14081
924.417	14020
924.525	13864
924.633	13963
924.741	14880
924.849	13723
924.956	13833
925.064	13609
925.172	13601
925.279	13639
925.387	13636
925.494	13791
925.602	13833
925.709	13780
925.816	13586
925.924	13552
926.031	13609
926.138	13601
926.245	13613
926.352	13609
926.459	13624
926.566	13556
926.673	13487
926.779	13407
926.886	13377
926.993	13225
927.099	13209
927.206	13240
927.312	13164
927.419	13206
927.525	13190
927.631	13209
927.737	13164
927.843	13114
927.95	12966
928.056	12939
928.162	13015
928.267	13080
928.373	13666
928.479	13038
928.585	12829
928.69	12947
928.796	12958
928.901	12817
929.007	12753
929.112	12852
929.218	12848
929.323	12715
929.428	12722
929.533	12840
929.638	12631
929.743	12692
929.848	12707
929.953	12563
930.058	12582
930.163	12372
930.267	12467
930.372	12551
930.477	12399
930.581	12593
930.685	12422
930.79	12281
930.894	12376
930.998	12251
931.103	12372
931.207	12034
931.311	12015
931.415	11817
931.519	11722
931.623	11668
