Data from test_V78500241_2707.txt Node
Date: Fri Mar 25 16:00:33 CST 2022
User: usil
Spectrometer: V785-0024
Trigger mode: 0
Integration Time (sec): 4.000000E-1
Scans to average: 1
Nonlinearity correction enabled: false
Boxcar width: 0
Storing dark spectrum: false
XAxis mode: Wavelengths
Number of Pixels in Spectrum: 1024
>>>>>Begin Spectral Data<<<<<
801.071	28417
801.214	28162
801.356	28116
801.499	28074
801.641	28006
801.783	27926
801.926	27914
802.068	27949
802.211	27914
802.353	27747
802.496	27663
802.638	27644
802.78	27705
802.923	27530
803.065	27447
803.208	27458
803.35	27675
803.492	27728
803.635	27987
803.777	27785
803.919	27785
804.061	28303
804.204	27846
804.346	27835
804.488	27819
804.63	27846
804.773	27743
804.915	28006
805.057	28063
805.199	27850
805.341	27880
805.483	28070
805.626	28036
805.768	27945
805.91	28013
806.052	27998
806.194	27979
806.336	28093
806.478	28078
806.62	27755
806.762	28204
806.904	28169
807.046	28569
807.188	28493
807.33	28538
807.472	28569
807.614	28291
807.756	28344
807.898	28215
808.04	28291
808.182	28173
808.324	28287
808.465	28512
808.607	28493
808.749	28569
808.891	28866
809.033	28927
809.174	28622
809.316	28592
809.458	28725
809.6	28573
809.741	28736
809.883	28839
810.025	28908
810.166	28976
810.308	28824
810.45	28892
810.591	28885
810.733	28538
810.875	28790
811.016	28694
811.158	28577
811.299	28816
811.441	28942
811.582	28847
811.724	28664
811.865	28645
812.007	28618
812.148	28607
812.29	28858
812.431	28854
812.573	29067
812.714	29025
812.855	29079
812.997	29307
813.138	29364
813.279	29246
813.421	29299
813.562	29113
813.703	28942
813.845	28869
813.986	28554
814.127	28504
814.268	28394
814.41	28470
814.551	28337
814.692	28493
814.833	28284
814.974	28436
815.115	28386
815.256	28204
815.397	28135
815.539	28147
815.68	28333
815.821	28109
815.962	28242
816.103	28249
816.244	28082
816.385	27930
816.526	27998
816.666	27838
816.807	27762
816.948	27625
817.089	27709
817.23	27675
817.371	27667
817.512	27603
817.653	27660
817.793	27709
817.934	27591
818.075	27755
818.216	27633
818.356	27405
818.497	27504
818.638	27496
818.778	27427
818.919	27424
819.06	27561
819.2	27656
819.341	27800
819.481	27724
819.622	27937
819.762	27953
819.903	27903
820.043	27831
820.184	27766
820.324	27846
820.465	27854
820.605	27838
820.746	27888
820.886	27629
821.026	27755
821.167	27850
821.307	27876
821.447	27701
821.588	27454
821.728	27443
821.868	27378
822.008	27233
822.149	27138
822.289	27173
822.429	26918
822.569	26853
822.709	26804
822.849	26659
822.99	26788
823.13	26503
823.27	26648
823.41	26465
823.55	26412
823.69	26488
823.83	26480
823.97	26431
824.11	26332
824.25	26199
824.389	26343
824.529	26450
824.669	26229
824.809	26370
824.949	26381
825.089	26267
825.228	26343
825.368	26111
825.508	26134
825.648	26320
825.787	26119
825.927	26290
826.067	26161
826.206	26164
826.346	26191
826.485	26278
826.625	26149
826.765	26351
826.904	26317
827.044	26084
827.183	25959
827.323	25856
827.462	25978
827.601	25947
827.741	25814
827.88	25822
828.02	25708
828.159	25734
828.298	25894
828.437	25951
828.577	25677
828.716	26092
828.855	26020
828.994	25628
829.134	25537
829.273	25491
829.412	25639
829.551	25460
829.69	25601
829.829	25537
829.968	25715
830.107	25552
830.246	25624
830.385	25472
830.524	25392
830.663	25339
830.802	25335
830.941	25232
831.08	25152
831.219	25297
831.357	25293
831.496	25479
831.635	25129
831.774	25053
831.913	25076
832.051	25061
832.19	24935
832.329	24989
832.467	24875
832.606	24760
832.744	24772
832.883	24897
833.022	24711
833.16	24806
833.299	24837
833.437	24897
833.576	24920
833.714	24894
833.852	24996
833.991	24916
834.129	24985
834.267	24924
834.406	24897
834.544	25008
834.682	24886
834.821	24753
834.959	25118
835.097	24852
835.235	24924
835.373	24882
835.511	24806
835.65	24757
835.788	24779
835.926	24677
836.064	24574
836.202	24555
836.34	24871
836.478	24867
836.615	24719
836.753	24867
836.891	24768
837.029	24722
837.167	24608
837.305	24787
837.443	24566
837.58	24513
837.718	24639
837.856	24532
837.993	24452
838.131	24532
838.269	24380
838.406	24479
838.544	24300
838.681	24182
838.819	24102
838.956	24072
839.094	24038
839.231	24171
839.369	24106
839.506	24498
839.643	24311
839.781	24018
839.918	24015
840.055	24072
840.193	24011
840.33	23904
840.467	24026
840.604	23984
840.742	24159
840.879	23779
841.016	23874
841.153	23836
841.29	23999
841.427	23863
841.564	24026
841.701	23942
841.838	23958
841.975	23798
842.112	23794
842.249	23832
842.385	23592
842.522	23874
842.659	23767
842.796	23737
842.933	23668
843.069	23649
843.206	23619
843.343	23710
843.479	23710
843.616	23695
843.752	23581
843.889	23551
844.025	23665
844.162	23383
844.298	23589
844.435	23573
844.571	23459
844.708	23478
844.844	23566
844.98	23581
845.117	23653
845.253	23372
845.389	23330
845.525	23239
845.661	23463
845.798	23193
845.934	23098
846.07	23185
846.206	23208
846.342	23516
846.478	23166
846.614	22938
846.75	22896
846.886	22866
847.022	23094
847.158	22961
847.294	22911
847.429	22953
847.565	22980
847.701	23212
847.837	22687
847.972	22687
848.108	22672
848.244	22816
848.379	22702
848.515	22573
848.65	22531
848.786	22573
848.921	22527
849.057	22607
849.192	22527
849.328	22596
849.463	22527
849.598	22512
849.734	22451
849.869	22310
850.004	22284
850.14	22314
850.275	22409
850.41	22215
850.545	22204
850.68	22112
850.815	22287
850.95	22238
851.085	22390
851.22	22428
851.355	22299
851.49	22402
851.625	22402
851.76	22207
851.895	22280
852.03	22291
852.165	22246
852.299	22356
852.434	22303
852.569	22280
852.703	22272
852.838	22352
852.973	22360
853.107	22344
853.242	22188
853.376	22044
853.511	22017
853.645	22082
853.78	22249
853.914	22097
854.048	22013
854.183	22196
854.317	22173
854.451	22272
854.585	22036
854.72	22090
854.854	22177
854.988	22036
855.122	22090
855.256	22032
855.39	22116
855.524	22147
855.658	22143
855.792	22128
855.926	22131
856.06	22154
856.194	22181
856.327	22128
856.461	21941
856.595	22063
856.729	22173
856.862	22150
856.996	22230
857.13	22166
857.263	22204
857.397	22086
857.53	22010
857.664	22116
857.797	22223
857.931	22181
858.064	22272
858.197	22325
858.331	22120
858.464	21998
858.597	21953
858.731	22029
858.864	22086
858.997	22051
859.13	22219
859.263	22265
859.396	22192
859.529	22063
859.662	22048
859.795	22013
859.928	22131
860.061	22162
860.194	22299
860.327	22196
860.46	22173
860.592	22253
860.725	22390
860.858	22230
860.99	22029
861.123	21960
861.256	22082
861.388	22109
861.521	22816
861.653	22006
861.786	21964
861.918	21930
862.05	21998
862.183	21953
862.315	22070
862.447	22055
862.58	22143
862.712	21770
862.844	21800
862.976	21953
863.108	21945
863.24	22280
863.372	21724
863.504	21911
863.636	21873
863.768	21774
863.9	21717
864.032	21625
864.164	21747
864.296	21903
864.428	21903
864.559	21861
864.691	21854
864.823	21724
864.954	21812
865.086	21884
865.217	21762
865.349	21675
865.48	21660
865.612	21686
865.743	21789
865.875	21625
866.006	21705
866.137	21648
866.269	21641
866.4	21709
866.531	21671
866.662	21523
866.793	21679
866.924	21732
867.055	21682
867.186	21717
867.317	21591
867.448	21519
867.579	21576
867.71	21564
867.841	21504
867.972	21751
868.103	21534
868.233	21686
868.364	21610
868.495	21728
868.625	21873
868.756	22067
868.886	21804
869.017	21892
869.147	21994
869.278	21956
869.408	21907
869.539	21831
869.669	21987
869.799	21876
869.929	21926
870.06	21915
870.19	22086
870.32	22109
870.45	22314
870.58	22215
870.71	22413
870.84	22382
870.97	22253
871.1	22166
871.23	22379
871.36	22565
871.489	22413
871.619	22375
871.749	22523
871.879	22554
872.008	22573
872.138	22409
872.267	22344
872.397	22249
872.526	22249
872.656	22306
872.785	22405
872.915	22428
873.044	22584
873.173	22462
873.303	22573
873.432	22493
873.561	22580
873.69	22546
873.819	22470
873.948	22512
874.077	22504
874.206	22516
874.335	22527
874.464	22672
874.593	22694
874.722	22706
874.851	22641
874.979	22763
875.108	22702
875.237	22649
875.365	22592
875.494	22649
875.623	22755
875.751	22691
875.88	22774
876.008	22847
876.136	22987
876.265	23159
876.393	23246
876.521	23246
876.65	23109
876.778	23102
876.906	23113
877.034	22976
877.162	23113
877.29	23132
877.418	23090
877.546	22984
877.674	23033
877.802	23025
877.93	22987
878.058	23018
878.185	22934
878.313	23056
878.441	23022
878.568	22881
878.696	22968
878.824	23060
878.951	23273
879.079	23155
879.206	23429
879.333	23227
879.461	23083
879.588	23121
879.715	23212
879.842	23315
879.97	23124
880.097	22881
880.224	22858
880.351	22873
880.478	22854
880.605	22755
880.732	22869
880.859	23178
880.986	22927
881.112	22850
881.239	22759
881.366	22622
881.493	22554
881.619	22474
881.746	22523
881.872	22573
881.999	22428
882.125	22390
882.252	22379
882.378	22508
882.505	22542
882.631	22295
882.757	22299
882.883	22192
883.01	22169
883.136	21956
883.262	22025
883.388	22044
883.514	22173
883.64	22063
883.766	22105
883.892	21880
884.018	21934
884.143	22097
884.269	22109
884.395	21739
884.52	21728
884.646	21831
884.772	21679
884.897	21595
885.023	21819
885.148	21838
885.274	21816
885.399	21739
885.524	21800
885.65	21915
885.775	21812
885.9	21720
886.025	21915
886.15	21880
886.275	21663
886.4	21690
886.525	21717
886.65	21736
886.775	21587
886.9	21804
887.025	21960
887.149	21633
887.274	21561
887.399	21583
887.523	21583
887.648	21515
887.773	21382
887.897	21591
888.021	21587
888.146	21462
888.27	21542
888.395	21591
888.519	21599
888.643	21511
888.767	21595
888.891	21336
889.015	21252
889.139	21416
889.263	21291
889.387	21496
889.511	21469
889.635	21351
889.759	21412
889.883	21272
890.006	21287
890.13	21291
890.254	21306
890.377	21207
890.501	21017
890.624	21001
890.748	21165
890.871	20883
890.995	20758
891.118	20864
891.241	20952
891.364	20819
891.488	21116
891.611	20876
891.734	20937
891.857	20960
891.98	20948
892.103	20842
892.226	20811
892.349	20963
892.471	20705
892.594	20815
892.717	20804
892.839	20705
892.962	20686
893.085	20834
893.207	20754
893.33	20693
893.452	20815
893.575	20811
893.697	20739
893.819	20937
893.941	21039
894.064	20868
894.186	20739
894.308	20765
894.43	20880
894.552	20944
894.674	20773
894.796	20716
894.918	20720
895.04	20754
895.161	20876
895.283	20876
895.405	20651
895.526	20792
895.648	20636
895.769	20670
895.891	20773
896.012	20792
896.134	20834
896.255	20758
896.376	20735
896.498	20811
896.619	20731
896.74	20674
896.861	20842
896.982	21096
897.103	21112
897.224	21051
897.345	20960
897.466	20971
897.587	20906
897.708	21043
897.828	21017
897.949	20895
898.07	20746
898.19	20941
898.311	20975
898.431	20895
898.552	20994
898.672	21028
898.792	21108
898.913	21005
899.033	20819
899.153	20777
899.273	20743
899.393	20720
899.513	20773
899.633	20686
899.753	20708
899.873	20651
899.993	20739
900.113	20670
900.232	20689
900.352	20613
900.472	20514
900.591	20522
900.711	20431
900.83	20404
900.95	20632
901.069	20556
901.189	20408
901.308	20142
901.427	19986
901.546	20126
901.665	20100
901.784	20039
901.904	19997
902.023	19868
902.141	19616
902.26	19658
902.379	19715
902.498	19594
902.617	19613
902.735	19575
902.854	19544
902.973	19605
903.091	19377
903.21	19194
903.328	19122
903.446	19122
903.565	19126
903.683	18985
903.801	18970
903.919	19004
904.038	18947
904.156	18947
904.274	18772
904.392	18764
904.51	18760
904.627	18798
904.745	18859
904.863	18871
904.981	18513
905.098	18448
905.216	18410
905.334	18460
905.451	18369
905.569	18353
905.686	18445
905.803	18521
905.921	18182
906.038	18296
906.155	18315
906.272	18129
906.389	18155
906.506	17988
906.623	17977
906.74	17969
906.857	17790
906.974	17855
907.091	18015
907.208	18129
907.324	17920
907.441	17882
907.557	17672
907.674	17710
907.79	17665
907.907	17619
908.023	17646
908.139	17821
908.256	17703
908.372	17566
908.488	17349
908.604	17414
908.72	17326
908.836	17459
908.952	17368
909.068	17356
909.184	17436
909.3	17383
909.415	17425
909.531	17330
909.647	17181
909.762	17079
909.878	17086
909.993	17075
910.108	17056
910.224	17086
910.339	17048
910.454	16839
910.57	16831
910.685	16919
910.8	17124
910.915	16904
911.03	16972
911.145	16691
911.259	16645
911.374	16672
911.489	16588
911.604	16607
911.718	16455
911.833	16440
911.947	16348
912.062	16238
912.176	16451
912.291	16314
912.405	16363
912.519	16569
912.633	16603
912.748	16485
912.862	16360
912.976	16230
913.09	16017
913.204	16230
913.318	16230
913.431	16177
913.545	16287
913.659	16402
913.772	16177
913.886	16071
914	15956
914.113	16044
914.226	16139
914.34	16067
914.453	15930
914.566	15964
914.68	15907
914.793	15876
914.906	15713
915.019	15644
915.132	15629
915.245	15610
915.358	15667
915.47	15576
915.583	15469
915.696	15542
915.809	15751
915.921	15713
916.034	15511
916.146	15439
916.259	15405
916.371	15538
916.483	15523
916.595	15420
916.708	15393
916.82	15397
916.932	15424
917.044	15431
917.156	15408
917.268	15275
917.38	15310
917.491	15188
917.603	15272
917.715	15291
917.826	15294
917.938	15199
918.049	15028
918.161	15306
918.272	15329
918.384	15348
918.495	15173
918.606	15100
918.717	14952
918.828	14990
918.939	14982
919.05	14883
919.161	14895
919.272	14739
919.383	14823
919.494	15116
919.604	15241
919.715	14963
919.826	14914
919.936	14948
920.047	14952
920.157	14853
920.267	15116
920.378	14937
920.488	14971
920.598	15146
920.708	15112
920.818	15058
920.928	15009
921.038	15214
921.148	15252
921.258	14895
921.368	14769
921.477	14758
921.587	14739
921.697	14492
921.806	14674
921.916	14503
922.025	14328
922.134	14313
922.244	14199
922.353	14400
922.462	14259
922.571	14142
922.68	13860
922.789	13928
922.898	14077
923.007	13909
923.116	14073
923.224	14005
923.333	13875
923.442	13852
923.55	13757
923.659	13837
923.767	13753
923.876	13700
923.984	13791
924.092	13776
924.201	13636
924.309	13670
924.417	13700
924.525	13597
924.633	13681
924.741	14571
924.849	13396
924.956	13518
925.064	13301
925.172	13293
925.279	13365
925.387	13365
925.494	13358
925.602	13457
925.709	13392
925.816	13251
925.924	13312
926.031	13377
926.138	13251
926.245	13301
926.352	13202
926.459	13343
926.566	13419
926.673	13175
926.779	13099
926.886	13023
926.993	12928
927.099	12996
927.206	12806
927.312	12863
927.419	12962
927.525	12890
927.631	12916
927.737	12791
927.843	12776
927.95	12665
928.056	12719
928.162	12696
928.267	12779
928.373	13312
928.479	12829
928.585	12559
928.69	12646
928.796	12654
928.901	12551
929.007	12429
929.112	12597
929.218	12597
929.323	12486
929.428	12433
929.533	12563
929.638	12353
929.743	12388
929.848	12414
929.953	12391
930.058	12239
930.163	12038
930.267	12049
930.372	12319
930.477	12106
930.581	12281
930.685	12155
930.79	11942
930.894	12038
930.998	11954
931.103	12117
931.207	11802
931.311	11649
931.415	11634
931.519	11353
931.623	11341
