Data from test_V78500241_957.txt Node
Date: Fri Mar 25 15:48:25 CST 2022
User: usil
Spectrometer: V785-0024
Trigger mode: 0
Integration Time (sec): 4.000000E-1
Scans to average: 1
Nonlinearity correction enabled: false
Boxcar width: 0
Storing dark spectrum: false
XAxis mode: Wavelengths
Number of Pixels in Spectrum: 1024
>>>>>Begin Spectral Data<<<<<
801.071	28577
801.214	28398
801.356	28249
801.499	28139
801.641	28116
801.783	28074
801.926	28090
802.068	28074
802.211	28070
802.353	27892
802.496	27934
802.638	27770
802.78	27865
802.923	27667
803.065	27618
803.208	27778
803.35	27739
803.492	27888
803.635	27903
803.777	27823
803.919	28032
804.061	28322
804.204	28067
804.346	27945
804.488	27972
804.63	27991
804.773	27937
804.915	27922
805.057	28090
805.199	27926
805.341	28093
805.483	28067
805.626	28105
805.768	28074
805.91	28284
806.052	28093
806.194	27846
806.336	28287
806.478	28116
806.62	28287
806.762	28318
806.904	28398
807.046	28744
807.188	28618
807.33	28569
807.472	28615
807.614	28630
807.756	28611
807.898	28470
808.04	28459
808.182	28466
808.324	28455
808.465	28417
808.607	28786
808.749	28748
808.891	28976
809.033	28919
809.174	28908
809.316	28805
809.458	28774
809.6	28816
809.741	28900
809.883	28900
810.025	29197
810.166	29174
810.308	29216
810.45	29056
810.591	29029
810.733	28900
810.875	28904
811.016	28607
811.158	28687
811.299	28949
811.441	29056
811.582	28968
811.724	28919
811.865	28915
812.007	28797
812.148	28911
812.29	28987
812.431	29071
812.573	29174
812.714	29296
812.855	29353
812.997	29524
813.138	29604
813.279	29714
813.421	29528
813.562	29368
813.703	29208
813.845	28919
813.986	28744
814.127	28637
814.268	28630
814.41	28527
814.551	28683
814.692	28748
814.833	28683
814.974	28580
815.115	28466
815.256	28470
815.397	28481
815.539	28409
815.68	28310
815.821	28150
815.962	28360
816.103	28375
816.244	28367
816.385	28158
816.526	28192
816.666	27975
816.807	27861
816.948	28044
817.089	27949
817.23	27808
817.371	27945
817.512	27975
817.653	27903
817.793	28010
817.934	27823
818.075	28040
818.216	28109
818.356	27808
818.497	27766
818.638	27625
818.778	27739
818.919	27663
819.06	27648
819.2	27873
819.341	27827
819.481	28013
819.622	27956
819.762	28318
819.903	28120
820.043	28097
820.184	28055
820.324	28162
820.465	28017
820.605	27953
820.746	28048
820.886	27934
821.026	27960
821.167	27991
821.307	28010
821.447	27998
821.588	27968
821.728	27770
821.868	27488
822.008	27359
822.149	27496
822.289	27393
822.429	27135
822.569	27051
822.709	26948
822.849	26872
822.99	26906
823.13	26960
823.27	26819
823.41	26712
823.55	26590
823.69	26785
823.83	26785
823.97	26724
824.11	26457
824.25	26488
824.389	26617
824.529	26724
824.669	26564
824.809	26708
824.949	26655
825.089	26701
825.228	26552
825.368	26339
825.508	26423
825.648	26385
825.787	26488
825.927	26514
826.067	26404
826.206	26442
826.346	26571
826.485	26408
826.625	26332
826.765	26469
826.904	26526
827.044	26298
827.183	26305
827.323	26031
827.462	26214
827.601	26240
827.741	26214
827.88	26168
828.02	26058
828.159	26012
828.298	26107
828.437	26145
828.577	26046
828.716	26275
828.855	26096
828.994	25909
829.134	25955
829.273	25811
829.412	25769
829.551	25738
829.69	25799
829.829	25963
829.968	25917
830.107	25944
830.246	25883
830.385	25734
830.524	25753
830.663	25700
830.802	25586
830.941	25392
831.08	25415
831.219	25533
831.357	25624
831.496	25674
831.635	25392
831.774	25312
831.913	25312
832.051	25316
832.19	25225
832.329	25285
832.467	25175
832.606	25129
832.744	25069
832.883	25187
833.022	25050
833.16	25175
833.299	25202
833.437	24962
833.576	25179
833.714	25148
833.852	25244
833.991	25285
834.129	25327
834.267	25304
834.406	25031
834.544	25255
834.682	25080
834.821	25198
834.959	25426
835.097	25061
835.235	25289
835.373	25156
835.511	25114
835.65	25076
835.788	25122
835.926	24973
836.064	24848
836.202	24913
836.34	25129
836.478	25099
836.615	25027
836.753	24989
836.891	24992
837.029	25110
837.167	24962
837.305	24863
837.443	24837
837.58	24913
837.718	24985
837.856	24878
837.993	24840
838.131	24749
838.269	24684
838.406	24779
838.544	24730
838.681	24483
838.819	24441
838.956	24292
839.094	24186
839.231	24429
839.369	24441
839.506	24688
839.643	24566
839.781	24247
839.918	24277
840.055	24155
840.193	24155
840.33	24159
840.467	24277
840.604	24338
840.742	24574
840.879	24209
841.016	24163
841.153	24045
841.29	24201
841.427	24251
841.564	24178
841.701	24144
841.838	24159
841.975	24178
842.112	24133
842.249	24053
842.385	24026
842.522	24213
842.659	24045
842.796	23878
842.933	23836
843.069	23973
843.206	23988
843.343	23939
843.479	23817
843.616	23851
843.752	23741
843.889	23786
844.025	23783
844.162	23615
844.298	23798
844.435	23756
844.571	23783
844.708	23710
844.844	23935
844.98	23878
845.117	23843
845.253	23634
845.389	23687
845.525	23756
845.661	23665
845.798	23463
845.934	23509
846.07	23417
846.206	23463
846.342	23501
846.478	23330
846.614	23269
846.75	23098
846.886	23239
847.022	23277
847.158	23246
847.294	23193
847.429	23185
847.565	23151
847.701	23467
847.837	22904
847.972	22923
848.108	22942
848.244	22927
848.379	22923
848.515	22919
848.65	22717
848.786	22850
848.921	22828
849.057	22866
849.192	22904
849.328	22755
849.463	22653
849.598	22645
849.734	22679
849.869	22645
850.004	22664
850.14	22596
850.275	22611
850.41	22447
850.545	22588
850.68	22519
850.815	22550
850.95	22493
851.085	22721
851.22	22607
851.355	22618
851.49	22580
851.625	22535
851.76	22607
851.895	22512
852.03	22497
852.165	22599
852.299	22611
852.434	22660
852.569	22649
852.703	22519
852.838	22554
852.973	22596
853.107	22626
853.242	22398
853.376	22287
853.511	22253
853.645	22390
853.78	22443
853.914	22451
854.048	22287
854.183	22337
854.317	22390
854.451	22607
854.585	22325
854.72	22333
854.854	22447
854.988	22253
855.122	22318
855.256	22112
855.39	22367
855.524	22409
855.658	22443
855.792	22405
855.926	22348
856.06	22344
856.194	22474
856.327	22318
856.461	22386
856.595	22272
856.729	22348
856.862	22478
856.996	22333
857.13	22375
857.263	22478
857.397	22409
857.53	22322
857.664	22382
857.797	22436
857.931	22478
858.064	22390
858.197	22561
858.331	22390
858.464	22272
858.597	22238
858.731	22371
858.864	22257
858.997	22261
859.13	22318
859.263	22333
859.396	22462
859.529	22341
859.662	22318
859.795	22398
859.928	22405
860.061	22573
860.194	22462
860.327	22299
860.46	22287
860.592	22394
860.725	22538
860.858	22470
860.99	22291
861.123	22295
861.256	22344
861.388	22371
861.521	23010
861.653	22177
861.786	22154
861.918	21987
862.05	22314
862.183	22219
862.315	22284
862.447	22299
862.58	22276
862.712	22029
862.844	21960
862.976	22230
863.108	22169
863.24	22398
863.372	22074
863.504	22059
863.636	22010
863.768	22131
863.9	22025
864.032	22006
864.164	22032
864.296	22074
864.428	22154
864.559	22139
864.691	22139
864.823	22090
864.954	22025
865.086	22017
865.217	21968
865.349	21979
865.48	21994
865.612	21930
865.743	22006
865.875	21975
866.006	21922
866.137	21983
866.269	22112
866.4	21880
866.531	21895
866.662	21895
866.793	21857
866.924	21835
867.055	21926
867.186	21949
867.317	21915
867.448	21781
867.579	21838
867.71	21831
867.841	21873
867.972	21739
868.103	21755
868.233	21797
868.364	21857
868.495	21907
868.625	22169
868.756	22169
868.886	21979
869.017	22082
869.147	22242
869.278	22192
869.408	22078
869.539	22021
869.669	22207
869.799	22112
869.929	22261
870.06	22223
870.19	22443
870.32	22497
870.45	22421
870.58	22577
870.71	22512
870.84	22569
870.97	22455
871.1	22538
871.23	22630
871.36	22763
871.489	22546
871.619	22637
871.749	22702
871.879	22618
872.008	22744
872.138	22664
872.267	22930
872.397	22554
872.526	22519
872.656	22641
872.785	22481
872.915	22561
873.044	22831
873.173	22752
873.303	22713
873.432	22889
873.561	22797
873.69	22866
873.819	22816
873.948	22820
874.077	22748
874.206	22656
874.335	22615
874.464	22744
874.593	22995
874.722	22980
874.851	22908
874.979	22908
875.108	23037
875.237	22942
875.365	22908
875.494	22984
875.623	22942
875.751	22915
875.88	23086
876.008	23056
876.136	22987
876.265	23322
876.393	23459
876.521	23322
876.65	23341
876.778	23197
876.906	23204
877.034	23246
877.162	23185
877.29	23147
877.418	23197
877.546	23330
877.674	23208
877.802	23185
877.93	23212
878.058	23216
878.185	23121
878.313	23277
878.441	23212
878.568	23132
878.696	23246
878.824	23299
878.951	23421
879.079	23379
879.206	23551
879.333	23463
879.461	23356
879.588	23391
879.715	23528
879.842	23581
879.97	23452
880.097	23025
880.224	23090
880.351	23117
880.478	23220
880.605	23147
880.732	23090
880.859	23307
880.986	23155
881.112	23086
881.239	22904
881.366	22801
881.493	22744
881.619	22736
881.746	22694
881.872	22637
881.999	22679
882.125	22561
882.252	22687
882.378	22660
882.505	22759
882.631	22478
882.757	22348
882.883	22417
883.01	22363
883.136	22242
883.262	22299
883.388	22120
883.514	22344
883.64	22394
883.766	22284
883.892	22120
884.018	22093
884.143	22291
884.269	22352
884.395	22181
884.52	21861
884.646	22013
884.772	21953
884.897	21934
885.023	22002
885.148	21941
885.274	22128
885.399	22074
885.524	22090
885.65	21983
885.775	22002
885.9	21949
886.025	22010
886.15	22166
886.275	21705
886.4	21869
886.525	22013
886.65	21819
886.775	21972
886.9	22040
887.025	22280
887.149	21972
887.274	21759
887.399	21827
887.523	21698
887.648	21720
887.773	21633
887.897	21720
888.021	21884
888.146	21641
888.27	21781
888.395	21739
888.519	21880
888.643	21686
888.767	21732
888.891	21519
889.015	21576
889.139	21603
889.263	21557
889.387	21671
889.511	21698
889.635	21679
889.759	21443
889.883	21542
890.006	21507
890.13	21629
890.254	21500
890.377	21485
890.501	21325
890.624	21135
890.748	21199
890.871	21169
890.995	21131
891.118	21039
891.241	21127
891.364	21058
891.488	21184
891.611	21032
891.734	21062
891.857	21081
891.98	21085
892.103	20986
892.226	21116
892.349	20998
892.471	20933
892.594	20952
892.717	20963
892.839	21020
892.962	20979
893.085	21009
893.207	20937
893.33	20956
893.452	20929
893.575	21032
893.697	20921
893.819	21127
893.941	21207
894.064	21077
894.186	20872
894.308	20849
894.43	21096
894.552	21150
894.674	21093
894.796	20956
894.918	20853
895.04	20876
895.161	20960
895.283	20864
895.405	20815
895.526	21001
895.648	20963
895.769	20956
895.891	20956
896.012	20994
896.134	20895
896.255	20819
896.376	20838
896.498	20960
896.619	20967
896.74	21066
896.861	20925
896.982	21252
897.103	21401
897.224	21138
897.345	21226
897.466	21024
897.587	21173
897.708	21272
897.828	21096
897.949	21066
898.07	21028
898.19	21070
898.311	21203
898.431	21085
898.552	21119
898.672	21112
898.792	21279
898.913	21184
899.033	20948
899.153	20994
899.273	20857
899.393	20925
899.513	20956
899.633	20910
899.753	20834
899.873	20804
899.993	20921
900.113	20720
900.232	20800
900.352	20781
900.472	20731
900.591	20640
900.711	20564
900.83	20495
900.95	20587
901.069	20807
901.189	20476
901.308	20259
901.427	20313
901.546	20286
901.665	20145
901.784	20267
901.904	20058
902.023	19993
902.141	19864
902.26	19708
902.379	19845
902.498	19727
902.617	19514
902.735	19727
902.854	19723
902.973	19575
903.091	19518
903.21	19354
903.328	19358
903.446	19282
903.565	19141
903.683	19141
903.801	19118
903.919	19031
904.038	19148
904.156	18973
904.274	18985
904.392	18943
904.51	18814
904.627	18909
904.745	18954
904.863	18962
904.981	18627
905.098	18574
905.216	18627
905.334	18597
905.451	18696
905.569	18665
905.686	18540
905.803	18589
905.921	18281
906.038	18460
906.155	18498
906.272	18357
906.389	18213
906.506	18133
906.623	18155
906.74	18186
906.857	17908
906.974	17973
907.091	18197
907.208	18273
907.324	18178
907.441	17999
907.557	17866
907.674	17840
907.79	17745
907.907	17764
908.023	17961
908.139	17802
908.256	17756
908.372	17760
908.488	17722
908.604	17600
908.72	17543
908.836	17558
908.952	17516
909.068	17543
909.184	17661
909.3	17596
909.415	17570
909.531	17509
909.647	17303
909.762	17189
909.878	17231
909.993	17254
910.108	17337
910.224	17166
910.339	17170
910.454	17090
910.57	17079
910.685	16946
910.8	17307
910.915	17220
911.03	17143
911.145	16923
911.259	16843
911.374	16835
911.489	16759
911.604	16672
911.718	16615
911.833	16580
911.947	16542
912.062	16382
912.176	16573
912.291	16607
912.405	16611
912.519	16862
912.633	16672
912.748	16656
912.862	16588
912.976	16459
913.09	16299
913.204	16379
913.318	16390
913.431	16474
913.545	16421
913.659	16462
913.772	16386
913.886	16196
914	16215
914.113	16261
914.226	16226
914.34	16219
914.453	16051
914.566	16158
914.68	16040
914.793	16025
914.906	15876
915.019	15838
915.132	15633
915.245	15770
915.358	15797
915.47	15751
915.583	15713
915.696	15797
915.809	15869
915.921	15907
916.034	15705
916.146	15576
916.259	15572
916.371	15739
916.483	15739
916.595	15580
916.708	15545
916.82	15595
916.932	15580
917.044	15496
917.156	15481
917.268	15397
917.38	15431
917.491	15424
917.603	15340
917.715	15507
917.826	15477
917.938	15340
918.049	15268
918.161	15393
918.272	15382
918.384	15424
918.495	15325
918.606	15142
918.717	15001
918.828	15119
918.939	15188
919.05	15036
919.161	15039
919.272	14918
919.383	15036
919.494	15188
919.604	15226
919.715	15119
919.826	15009
919.936	15123
920.047	15154
920.157	15097
920.267	15294
920.378	15104
920.488	15009
920.598	15199
920.708	15370
920.818	15306
920.928	15237
921.038	15382
921.148	15275
921.258	15047
921.368	15028
921.477	14819
921.587	14739
921.697	14754
921.806	14773
921.916	14705
922.025	14541
922.134	14442
922.244	14499
922.353	14541
922.462	14278
922.571	14221
922.68	14142
922.789	14115
922.898	14084
923.007	14024
923.116	14069
923.224	14027
923.333	14073
923.442	13967
923.55	13864
923.659	13963
923.767	13894
923.876	13906
923.984	13925
924.092	13696
924.201	13875
924.309	13788
924.417	13780
924.525	13780
924.633	13757
924.741	14636
924.849	13457
924.956	13677
925.064	13586
925.172	13373
925.279	13468
925.387	13495
925.494	13495
925.602	13548
925.709	13548
925.816	13343
925.924	13464
926.031	13525
926.138	13365
926.245	13362
926.352	13304
926.459	13480
926.566	13487
926.673	13324
926.779	13202
926.886	13152
926.993	13084
927.099	13008
927.206	13008
927.312	12924
927.419	13065
927.525	12993
927.631	13057
927.737	12901
927.843	12829
927.95	12749
928.056	12783
928.162	12833
928.267	12806
928.373	13362
928.479	12935
928.585	12650
928.69	12681
928.796	12878
928.901	12741
929.007	12513
929.112	12665
929.218	12566
929.323	12547
929.428	12677
929.533	12692
929.638	12460
929.743	12513
929.848	12513
929.953	12441
930.058	12380
930.163	12152
930.267	12194
930.372	12384
930.477	12148
930.581	12395
930.685	12220
930.79	12038
930.894	12114
930.998	12114
931.103	12281
931.207	11828
931.311	11771
931.415	11798
931.519	11524
931.623	11448
