Data from test_V78500241_2519.txt Node
Date: Fri Mar 25 15:59:15 CST 2022
User: usil
Spectrometer: V785-0024
Trigger mode: 0
Integration Time (sec): 4.000000E-1
Scans to average: 1
Nonlinearity correction enabled: false
Boxcar width: 0
Storing dark spectrum: false
XAxis mode: Wavelengths
Number of Pixels in Spectrum: 1024
>>>>>Begin Spectral Data<<<<<
801.071	28546
801.214	28641
801.356	28474
801.499	28413
801.641	28348
801.783	28265
801.926	28367
802.068	28303
802.211	28253
802.353	28192
802.496	28109
802.638	27884
802.78	27968
802.923	27930
803.065	27953
803.208	27869
803.35	28070
803.492	28067
803.635	28238
803.777	27994
803.919	28337
804.061	28557
804.204	28348
804.346	28249
804.488	28143
804.63	28276
804.773	28306
804.915	28341
805.057	28375
805.199	28166
805.341	28314
805.483	28413
805.626	28432
805.768	28295
805.91	28371
806.052	28470
806.194	28303
806.336	28691
806.478	28204
806.62	28409
806.762	28611
806.904	28710
807.046	28843
807.188	28873
807.33	28729
807.472	28904
807.614	28786
807.756	28908
807.898	28740
808.04	28752
808.182	28557
808.324	28561
808.465	28679
808.607	28930
808.749	28946
808.891	29098
809.033	29261
809.174	29064
809.316	29064
809.458	28987
809.6	29006
809.741	29109
809.883	29322
810.025	29326
810.166	29512
810.308	29349
810.45	29414
810.591	29280
810.733	29227
810.875	29155
811.016	28980
811.158	29041
811.299	29162
811.441	29151
811.582	29193
811.724	29086
811.865	29185
812.007	28972
812.148	29102
812.29	29204
812.431	29254
812.573	29440
812.714	29516
812.855	29505
812.997	29695
813.138	29748
813.279	29756
813.421	29695
813.562	29665
813.703	29471
813.845	29265
813.986	29128
814.127	28885
814.268	28801
814.41	28938
814.551	28801
814.692	28927
814.833	28782
814.974	28664
815.115	28946
815.256	28687
815.397	28664
815.539	28694
815.68	28672
815.821	28512
815.962	28512
816.103	28634
816.244	28573
816.385	28333
816.526	28318
816.666	28242
816.807	27994
816.948	28196
817.089	28207
817.23	28181
817.371	28131
817.512	28090
817.653	28139
817.793	27922
817.934	27994
818.075	28074
818.216	28097
818.356	27945
818.497	27914
818.638	27804
818.778	27823
818.919	27880
819.06	28010
819.2	27979
819.341	28120
819.481	28112
819.622	28257
819.762	28500
819.903	28485
820.043	28367
820.184	28371
820.324	28299
820.465	28421
820.605	28211
820.746	28150
820.886	28200
821.026	28181
821.167	28131
821.307	28173
821.447	28246
821.588	28120
821.728	27922
821.868	27713
822.008	27690
822.149	27496
822.289	27667
822.429	27359
822.569	27165
822.709	27237
822.849	27165
822.99	27112
823.13	27024
823.27	27017
823.41	26967
823.55	26838
823.69	26971
823.83	26868
823.97	26804
824.11	26815
824.25	26720
824.389	26845
824.529	26895
824.669	26823
824.809	26902
824.949	26826
825.089	26861
825.228	26788
825.368	26686
825.508	26716
825.648	26621
825.787	26659
825.927	26830
826.067	26579
826.206	26689
826.346	26655
826.485	26705
826.625	26648
826.765	26758
826.904	26663
827.044	26431
827.183	26503
827.323	26259
827.462	26473
827.601	26404
827.741	26240
827.88	26434
828.02	26214
828.159	26347
828.298	26393
828.437	26278
828.577	26259
828.716	26473
828.855	26218
828.994	25932
829.134	26088
829.273	26157
829.412	26016
829.551	25986
829.69	26001
829.829	26168
829.968	26039
830.107	26195
830.246	25951
830.385	25986
830.524	25902
830.663	25909
830.802	25750
830.941	25708
831.08	25491
831.219	25685
831.357	25662
831.496	25963
831.635	25601
831.774	25681
831.913	25514
832.051	25544
832.19	25331
832.329	25422
832.467	25411
832.606	25278
832.744	25221
832.883	25407
833.022	25301
833.16	25365
833.299	25362
833.437	25403
833.576	25282
833.714	25228
833.852	25411
833.991	25449
834.129	25415
834.267	25510
834.406	25228
834.544	25343
834.682	25350
834.821	25312
834.959	25472
835.097	25343
835.235	25472
835.373	25362
835.511	25278
835.65	25145
835.788	25240
835.926	25008
836.064	25023
836.202	25091
836.34	25384
836.478	25301
836.615	25187
836.753	25266
836.891	25381
837.029	25179
837.167	25141
837.305	25031
837.443	25076
837.58	24935
837.718	25027
837.856	24977
837.993	24992
838.131	25114
838.269	24973
838.406	24962
838.544	24996
838.681	24612
838.819	24627
838.956	24464
839.094	24563
839.231	24486
839.369	24696
839.506	24954
839.643	24791
839.781	24544
839.918	24475
840.055	24498
840.193	24475
840.33	24445
840.467	24566
840.604	24471
840.742	24700
840.879	24235
841.016	24365
841.153	24342
841.29	24513
841.427	24319
841.564	24448
841.701	24452
841.838	24323
841.975	24292
842.112	24216
842.249	24311
842.385	24258
842.522	24388
842.659	24228
842.796	24155
842.933	24258
843.069	24171
843.206	24045
843.343	24186
843.479	24163
843.616	24209
843.752	24026
843.889	23942
844.025	24095
844.162	24045
844.298	24053
844.435	23984
844.571	23920
844.708	24022
844.844	24174
844.98	24171
845.117	24064
845.253	23946
845.389	23695
845.525	23866
845.661	23752
845.798	23745
845.934	23745
846.07	23722
846.206	23718
846.342	23851
846.478	23646
846.614	23566
846.75	23512
846.886	23436
847.022	23490
847.158	23391
847.294	23414
847.429	23596
847.565	23478
847.701	23611
847.837	23124
847.972	23128
848.108	23193
848.244	23315
848.379	23014
848.515	22953
848.65	22995
848.786	23041
848.921	23037
849.057	23094
849.192	23067
849.328	23170
849.463	23124
849.598	22957
849.734	22793
849.869	23044
850.004	22820
850.14	22801
850.275	22790
850.41	22816
850.545	22683
850.68	22683
850.815	22854
850.95	22824
851.085	22869
851.22	22999
851.355	22828
851.49	22710
851.625	22721
851.76	22881
851.895	22736
852.03	22687
852.165	22782
852.299	22809
852.434	22877
852.569	22717
852.703	22755
852.838	22801
852.973	22850
853.107	22919
853.242	22664
853.376	22660
853.511	22455
853.645	22660
853.78	22668
853.914	22603
854.048	22630
854.183	22561
854.317	22679
854.451	22816
854.585	22538
854.72	22615
854.854	22698
854.988	22565
855.122	22645
855.256	22451
855.39	22561
855.524	22634
855.658	22687
855.792	22675
855.926	22588
856.06	22759
856.194	22580
856.327	22523
856.461	22596
856.595	22622
856.729	22599
856.862	22771
856.996	22596
857.13	22637
857.263	22664
857.397	22698
857.53	22580
857.664	22660
857.797	22637
857.931	22679
858.064	22637
858.197	22504
858.331	22538
858.464	22649
858.597	22489
858.731	22611
858.864	22474
858.997	22542
859.13	22588
859.263	22672
859.396	22546
859.529	22565
859.662	22516
859.795	22417
859.928	22436
860.061	22691
860.194	22759
860.327	22607
860.46	22706
860.592	22778
860.725	22778
860.858	22733
860.99	22599
861.123	22538
861.256	22584
861.388	22626
861.521	23391
861.653	22546
861.786	22443
861.918	22375
862.05	22306
862.183	22489
862.315	22599
862.447	22592
862.58	22466
862.712	22287
862.844	22158
862.976	22276
863.108	22531
863.24	22694
863.372	22249
863.504	22246
863.636	22382
863.768	22246
863.9	22337
864.032	22147
864.164	22344
864.296	22303
864.428	22352
864.559	22341
864.691	22375
864.823	22257
864.954	22303
865.086	22204
865.217	22192
865.349	22090
865.48	22177
865.612	22158
865.743	22265
865.875	22219
866.006	22109
866.137	22261
866.269	22215
866.4	22295
866.531	22032
866.662	22067
866.793	22105
866.924	21994
867.055	22238
867.186	21987
867.317	22112
867.448	21991
867.579	22097
867.71	22116
867.841	22105
867.972	22082
868.103	22063
868.233	22097
868.364	22124
868.495	22181
868.625	22284
868.756	22478
868.886	22135
869.017	22348
869.147	22379
869.278	22421
869.408	22299
869.539	22329
869.669	22371
869.799	22295
869.929	22421
870.06	22405
870.19	22588
870.32	22618
870.45	22656
870.58	22740
870.71	22809
870.84	22904
870.97	22687
871.1	22763
871.23	22904
871.36	22919
871.489	22942
871.619	22805
871.749	22919
871.879	22976
872.008	23090
872.138	22904
872.267	22877
872.397	22854
872.526	22809
872.656	22908
872.785	22793
872.915	22896
873.044	23128
873.173	22949
873.303	22980
873.432	22980
873.561	23151
873.69	22919
873.819	22942
873.948	23022
874.077	22904
874.206	22938
874.335	22938
874.464	23102
874.593	23121
874.722	23143
874.851	23227
874.979	23261
875.108	23341
875.237	23227
875.365	23018
875.494	23117
875.623	23223
875.751	23246
875.88	23151
876.008	23395
876.136	23315
876.265	23680
876.393	23828
876.521	23668
876.65	23707
876.778	23596
876.906	23459
877.034	23516
877.162	23535
877.29	23383
877.418	23531
877.546	23528
877.674	23528
877.802	23539
877.93	23448
878.058	23372
878.185	23372
878.313	23455
878.441	23467
878.568	23387
878.696	23410
878.824	23509
878.951	23493
879.079	23528
879.206	23836
879.333	23615
879.461	23524
879.588	23539
879.715	23604
879.842	23798
879.97	23581
880.097	23406
880.224	23273
880.351	23376
880.478	23326
880.605	23296
880.732	23330
880.859	23535
880.986	23360
881.112	23398
881.239	23235
881.366	23044
881.493	22866
881.619	22991
881.746	22873
881.872	22965
881.999	22774
882.125	22900
882.252	22904
882.378	22980
882.505	22946
882.631	22622
882.757	22580
882.883	22645
883.01	22584
883.136	22504
883.262	22356
883.388	22394
883.514	22535
883.64	22664
883.766	22402
883.892	22249
884.018	22367
884.143	22432
884.269	22516
884.395	22242
884.52	22185
884.646	22287
884.772	22143
884.897	22048
885.023	22257
885.148	22242
885.274	22382
885.399	22337
885.524	22234
885.65	22284
885.775	22181
885.9	22154
886.025	22344
886.15	22242
886.275	22185
886.4	22082
886.525	22105
886.65	22188
886.775	22196
886.9	22291
887.025	22295
887.149	22097
887.274	21903
887.399	21972
887.523	21854
887.648	21808
887.773	21724
887.897	21956
888.021	22093
888.146	21819
888.27	21941
888.395	21934
888.519	21979
888.643	21899
888.767	22055
888.891	22051
889.015	21800
889.139	21816
889.263	21644
889.387	21857
889.511	21991
889.635	21781
889.759	21709
889.883	21644
890.006	21724
890.13	21816
890.254	21622
890.377	21736
890.501	21504
890.624	21405
890.748	21591
890.871	21378
890.995	21306
891.118	21207
891.241	21302
891.364	21431
891.488	21367
891.611	21306
891.734	21378
891.857	21298
891.98	21336
892.103	21313
892.226	21260
892.349	21222
892.471	21077
892.594	21279
892.717	21188
892.839	21146
892.962	21249
893.085	21184
893.207	21226
893.33	21173
893.452	21074
893.575	21135
893.697	21233
893.819	21393
893.941	21325
894.064	21344
894.186	21256
894.308	21108
894.43	21260
894.552	21344
894.674	21321
894.796	20941
894.918	21184
895.04	21112
895.161	21127
895.283	21077
895.405	21214
895.526	21195
895.648	21138
895.769	21154
895.891	21116
896.012	21203
896.134	21157
896.255	21157
896.376	21062
896.498	21245
896.619	21184
896.74	21108
896.861	21188
896.982	21511
897.103	21682
897.224	21481
897.345	21370
897.466	21374
897.587	21389
897.708	21450
897.828	21367
897.949	21298
898.07	21157
898.19	21241
898.311	21382
898.431	21336
898.552	21275
898.672	21466
898.792	21348
898.913	21340
899.033	21203
899.153	21150
899.273	20975
899.393	21093
899.513	21138
899.633	20914
899.753	21081
899.873	21055
899.993	21142
900.113	21055
900.232	21032
900.352	21020
900.472	20933
900.591	20796
900.711	20883
900.83	20937
900.95	20944
901.069	20868
901.189	20674
901.308	20530
901.427	20366
901.546	20404
901.665	20389
901.784	20461
901.904	20309
902.023	20244
902.141	19917
902.26	20065
902.379	19989
902.498	19944
902.617	19928
902.735	19970
902.854	19909
902.973	19852
903.091	19567
903.21	19658
903.328	19480
903.446	19369
903.565	19297
903.683	19369
903.801	19228
903.919	19381
904.038	19259
904.156	19202
904.274	19213
904.392	19206
904.51	19050
904.627	19126
904.745	19133
904.863	19141
904.981	18909
905.098	18840
905.216	18787
905.334	18985
905.451	18806
905.569	18764
905.686	18810
905.803	18867
905.921	18597
906.038	18673
906.155	18589
906.272	18536
906.389	18601
906.506	18277
906.623	18304
906.74	18338
906.857	18167
906.974	18247
907.091	18243
907.208	18388
907.324	18327
907.441	18197
907.557	18148
907.674	18083
907.79	18041
907.907	17958
908.023	18068
908.139	17988
908.256	17912
908.372	17984
908.488	17832
908.604	17798
908.72	17817
908.836	17745
908.952	17741
909.068	17824
909.184	17939
909.3	17710
909.415	17691
909.531	17646
909.647	17448
909.762	17497
909.878	17311
909.993	17467
910.108	17425
910.224	17452
910.339	17414
910.454	17315
910.57	17341
910.685	17235
910.8	17417
910.915	17364
911.03	17208
911.145	17014
911.259	16999
911.374	17003
911.489	16923
911.604	16957
911.718	16752
911.833	16706
911.947	16672
912.062	16687
912.176	16782
912.291	16778
912.405	16675
912.519	16961
912.633	16896
912.748	16866
912.862	16729
912.976	16546
913.09	16561
913.204	16455
913.318	16493
913.431	16599
913.545	16694
913.659	16626
913.772	16474
913.886	16344
914	16329
914.113	16440
914.226	16497
914.34	16360
914.453	16234
914.566	16409
914.68	16192
914.793	16200
914.906	15972
915.019	15979
915.132	15876
915.245	15937
915.358	15949
915.47	16021
915.583	15983
915.696	15941
915.809	16063
915.921	16074
916.034	15819
916.146	15835
916.259	15671
916.371	15956
916.483	15819
916.595	15698
916.708	15762
916.82	15633
916.932	15644
917.044	15720
917.156	15720
917.268	15603
917.38	15549
917.491	15614
917.603	15542
917.715	15633
917.826	15625
917.938	15443
918.049	15363
918.161	15450
918.272	15542
918.384	15564
918.495	15485
918.606	15321
918.717	15340
918.828	15382
918.939	15275
919.05	15188
919.161	15264
919.272	15100
919.383	15203
919.494	15351
919.604	15374
919.715	15176
919.826	15089
919.936	15199
920.047	15405
920.157	15169
920.267	15424
920.378	15214
920.488	15237
920.598	15291
920.708	15477
920.818	15389
920.928	15382
921.038	15553
921.148	15348
921.258	15180
921.368	15047
921.477	15058
921.587	14982
921.697	14777
921.806	14956
921.916	14861
922.025	14739
922.134	14663
922.244	14564
922.353	14648
922.462	14545
922.571	14374
922.68	14256
922.789	14252
922.898	14298
923.007	14195
923.116	14278
923.224	14096
923.333	14180
923.442	14084
923.55	14054
923.659	14058
923.767	14164
923.876	13951
923.984	14046
924.092	13902
924.201	13917
924.309	13955
924.417	13928
924.525	13890
924.633	13879
924.741	14602
924.849	13605
924.956	13788
925.064	13708
925.172	13620
925.279	13620
925.387	13597
925.494	13666
925.602	13734
925.709	13616
925.816	13521
925.924	13502
926.031	13670
926.138	13544
926.245	13563
926.352	13430
926.459	13548
926.566	13609
926.673	13438
926.779	13373
926.886	13320
926.993	13251
927.099	13137
927.206	13061
927.312	13080
927.419	13232
927.525	13126
927.631	13152
927.737	13031
927.843	13019
927.95	12840
928.056	12863
928.162	12920
928.267	13072
928.373	13525
928.479	13137
928.585	12814
928.69	12882
928.796	12913
928.901	12863
929.007	12662
929.112	12810
929.218	12776
929.323	12707
929.428	12745
929.533	12821
929.638	12593
929.743	12574
929.848	12707
929.953	12684
930.058	12521
930.163	12407
930.267	12338
930.372	12509
930.477	12213
930.581	12566
930.685	12357
930.79	12201
930.894	12224
930.998	12175
931.103	12353
931.207	11992
931.311	11946
931.415	11775
931.519	11665
931.623	11497
