Data from test_V78500241_1108.txt Node
Date: Fri Mar 25 15:49:28 CST 2022
User: usil
Spectrometer: V785-0024
Trigger mode: 0
Integration Time (sec): 4.000000E-1
Scans to average: 1
Nonlinearity correction enabled: false
Boxcar width: 0
Storing dark spectrum: false
XAxis mode: Wavelengths
Number of Pixels in Spectrum: 1024
>>>>>Begin Spectral Data<<<<<
801.071	28481
801.214	28367
801.356	28131
801.499	28109
801.641	28059
801.783	27876
801.926	28029
802.068	27854
802.211	27903
802.353	27903
802.496	27648
802.638	27739
802.78	27705
802.923	27717
803.065	27481
803.208	27694
803.35	27675
803.492	27865
803.635	27964
803.777	27835
803.919	27983
804.061	28261
804.204	28124
804.346	27945
804.488	27835
804.63	27732
804.773	27778
804.915	27865
805.057	28013
805.199	27926
805.341	28101
805.483	28158
805.626	28070
805.768	27991
805.91	27922
806.052	28051
806.194	27991
806.336	28284
806.478	28158
806.62	28147
806.762	28219
806.904	28405
807.046	28622
807.188	28519
807.33	28592
807.472	28508
807.614	28554
807.756	28497
807.898	28481
808.04	28436
808.182	28428
808.324	28162
808.465	28390
808.607	28672
808.749	28771
808.891	28915
809.033	28904
809.174	28816
809.316	28736
809.458	28733
809.6	28618
809.741	28824
809.883	28949
810.025	29048
810.166	29060
810.308	29128
810.45	29006
810.591	28949
810.733	28866
810.875	28759
811.016	28611
811.158	28713
811.299	28805
811.441	28911
811.582	28847
811.724	28778
811.865	28831
812.007	28778
812.148	28774
812.29	28888
812.431	28847
812.573	29143
812.714	29113
812.855	29318
812.997	29250
813.138	29493
813.279	29273
813.421	29280
813.562	29410
813.703	29109
813.845	29003
813.986	28778
814.127	28557
814.268	28462
814.41	28550
814.551	28599
814.692	28672
814.833	28401
814.974	28481
815.115	28337
815.256	28337
815.397	28299
815.539	28348
815.68	28246
815.821	28272
815.962	28280
816.103	28192
816.244	28192
816.385	28032
816.526	28086
816.666	27960
816.807	27838
816.948	27972
817.089	27968
817.23	27823
817.371	27747
817.512	27762
817.653	27755
817.793	27720
817.934	27652
818.075	27949
818.216	27675
818.356	27671
818.497	27720
818.638	27583
818.778	27603
818.919	27591
819.06	27576
819.2	27728
819.341	27743
819.481	27842
819.622	27949
819.762	27941
819.903	28010
820.043	28078
820.184	27857
820.324	27922
820.465	27945
820.605	27880
820.746	27934
820.886	27827
821.026	27991
821.167	27888
821.307	28036
821.447	27778
821.588	27724
821.728	27545
821.868	27462
822.008	27397
822.149	27264
822.289	27268
822.429	26845
822.569	27047
822.709	27058
822.849	26918
822.99	26724
823.13	26773
823.27	26731
823.41	26602
823.55	26473
823.69	26609
823.83	26663
823.97	26499
824.11	26438
824.25	26320
824.389	26267
824.529	26564
824.669	26423
824.809	26488
824.949	26617
825.089	26556
825.228	26503
825.368	26275
825.508	26374
825.648	26332
825.787	26351
825.927	26377
826.067	26301
826.206	26362
826.346	26377
826.485	26366
826.625	26358
826.765	26408
826.904	26301
827.044	26130
827.183	26248
827.323	25978
827.462	26218
827.601	26035
827.741	25947
827.88	26020
828.02	25959
828.159	26046
828.298	25936
828.437	26138
828.577	25921
828.716	26092
828.855	25963
828.994	25811
829.134	25681
829.273	25795
829.412	25753
829.551	25712
829.69	25852
829.829	25738
829.968	25803
830.107	25826
830.246	25769
830.385	25731
830.524	25700
830.663	25605
830.802	25525
830.941	25266
831.08	25312
831.219	25335
831.357	25434
831.496	25422
831.635	25320
831.774	25194
831.913	25160
832.051	25148
832.19	25099
832.329	25190
832.467	25091
832.606	24939
832.744	24913
832.883	24947
833.022	25034
833.16	25000
833.299	25080
833.437	25061
833.576	25057
833.714	25034
833.852	25099
833.991	25221
834.129	25088
834.267	25217
834.406	25114
834.544	25148
834.682	24985
834.821	24890
834.959	25217
835.097	24943
835.235	25000
835.373	24992
835.511	24958
835.65	24882
835.788	24840
835.926	24711
836.064	24642
836.202	24608
836.34	24924
836.478	24882
836.615	24833
836.753	24977
836.891	24981
837.029	24837
837.167	24852
837.305	24798
837.443	24802
837.58	24738
837.718	24757
837.856	24840
837.993	24601
838.131	24719
838.269	24513
838.406	24688
838.544	24608
838.681	24308
838.819	24372
838.956	24174
839.094	24201
839.231	24357
839.369	24399
839.506	24620
839.643	24429
839.781	24102
839.918	24072
840.055	24201
840.193	24213
840.33	24026
840.467	24213
840.604	24224
840.742	24300
840.879	23866
841.016	24053
841.153	24034
841.29	24186
841.427	24015
841.564	24159
841.701	24098
841.838	23920
841.975	23973
842.112	23996
842.249	23882
842.385	23870
842.522	24045
842.659	24007
842.796	23726
842.933	23832
843.069	23684
843.206	23718
843.343	23775
843.479	23832
843.616	23798
843.752	23589
843.889	23634
844.025	23863
844.162	23573
844.298	23707
844.435	23687
844.571	23543
844.708	23687
844.844	23745
844.98	23718
845.117	23764
845.253	23482
845.389	23581
845.525	23589
845.661	23444
845.798	23402
845.934	23383
846.07	23368
846.206	23421
846.342	23440
846.478	23315
846.614	23151
846.75	23037
846.886	22961
847.022	22984
847.158	23083
847.294	23094
847.429	23147
847.565	23060
847.701	23387
847.837	22721
847.972	22759
848.108	22892
848.244	22873
848.379	22664
848.515	22569
848.65	22641
848.786	22702
848.921	22645
849.057	22755
849.192	22721
849.328	22694
849.463	22649
849.598	22660
849.734	22611
849.869	22508
850.004	22470
850.14	22474
850.275	22375
850.41	22295
850.545	22303
850.68	22318
850.815	22325
850.95	22363
851.085	22561
851.22	22573
851.355	22535
851.49	22303
851.625	22371
851.76	22356
851.895	22424
852.03	22375
852.165	22481
852.299	22344
852.434	22447
852.569	22455
852.703	22455
852.838	22508
852.973	22394
853.107	22531
853.242	22318
853.376	22158
853.511	22143
853.645	22219
853.78	22341
853.914	22310
854.048	22284
854.183	22219
854.317	22356
854.451	22379
854.585	22215
854.72	22162
854.854	22314
854.988	22211
855.122	22158
855.256	22131
855.39	22280
855.524	22272
855.658	22211
855.792	22306
855.926	22333
856.06	22341
856.194	22249
856.327	22147
856.461	22230
856.595	22185
856.729	22253
856.862	22352
856.996	22223
857.13	22265
857.263	22409
857.397	22409
857.53	22185
857.664	22173
857.797	22390
857.931	22291
858.064	22253
858.197	22333
858.331	22177
858.464	22173
858.597	22143
858.731	22204
858.864	22238
858.997	22253
859.13	22238
859.263	22143
859.396	22451
859.529	22154
859.662	22242
859.795	22109
859.928	22242
860.061	22360
860.194	22367
860.327	22280
860.46	22276
860.592	22417
860.725	22382
860.858	22352
860.99	22215
861.123	22166
861.256	22219
861.388	22287
861.521	22850
861.653	22173
861.786	22093
861.918	22010
862.05	22112
862.183	22204
862.315	22238
862.447	22242
862.58	22135
862.712	21991
862.844	21915
862.976	22048
863.108	21930
863.24	22531
863.372	21861
863.504	21926
863.636	22025
863.768	21956
863.9	21983
864.032	21915
864.164	21873
864.296	21846
864.428	22002
864.559	21998
864.691	22002
864.823	21907
864.954	21994
865.086	21899
865.217	21880
865.349	21800
865.48	21918
865.612	21781
865.743	21835
865.875	21838
866.006	21800
866.137	21724
866.269	21915
866.4	21759
866.531	21789
866.662	21739
866.793	21736
866.924	21762
867.055	21876
867.186	21751
867.317	21610
867.448	21599
867.579	21762
867.71	21686
867.841	21641
867.972	21694
868.103	21819
868.233	21739
868.364	21671
868.495	21823
868.625	22013
868.756	22135
868.886	21918
869.017	22006
869.147	22067
869.278	22120
869.408	22051
869.539	22029
869.669	21949
869.799	22070
869.929	22101
870.06	22097
870.19	22348
870.32	22204
870.45	22299
870.58	22379
870.71	22485
870.84	22489
870.97	22360
871.1	22428
871.23	22489
871.36	22641
871.489	22447
871.619	22516
871.749	22630
871.879	22641
872.008	22656
872.138	22478
872.267	22615
872.397	22409
872.526	22561
872.656	22478
872.785	22333
872.915	22580
873.044	22656
873.173	22603
873.303	22622
873.432	22721
873.561	22675
873.69	22580
873.819	22538
873.948	22694
874.077	22550
874.206	22481
874.335	22489
874.464	22752
874.593	22805
874.722	22831
874.851	22873
874.979	22801
875.108	22885
875.237	22615
875.365	22649
875.494	22805
875.623	22961
875.751	22824
875.88	22854
876.008	22923
876.136	23025
876.265	23265
876.393	23364
876.521	23330
876.65	23341
876.778	23166
876.906	23105
877.034	23105
877.162	23128
877.29	23060
877.418	23250
877.546	23193
877.674	23193
877.802	23277
877.93	23204
878.058	23223
878.185	23022
878.313	23151
878.441	23174
878.568	22927
878.696	23109
878.824	23151
878.951	23231
879.079	23303
879.206	23554
879.333	23387
879.461	23064
879.588	23318
879.715	23284
879.842	23467
879.97	23246
880.097	23014
880.224	22866
880.351	22991
880.478	22968
880.605	22927
880.732	23014
880.859	23151
880.986	22892
881.112	22949
881.239	22976
881.366	22847
881.493	22580
881.619	22489
881.746	22611
881.872	22565
881.999	22500
882.125	22504
882.252	22630
882.378	22710
882.505	22664
882.631	22352
882.757	22390
882.883	22310
883.01	22188
883.136	22192
883.262	22181
883.388	22055
883.514	22166
883.64	22223
883.766	22207
883.892	21987
884.018	22116
884.143	22177
884.269	22249
884.395	21991
884.52	21808
884.646	21789
884.772	21622
884.897	21804
885.023	21915
885.148	22013
885.274	21979
885.399	21937
885.524	21850
885.65	21899
885.775	21812
885.9	21869
886.025	21903
886.15	21991
886.275	21850
886.4	21789
886.525	21747
886.65	21732
886.775	21808
886.9	22006
887.025	21960
887.149	21816
887.274	21641
887.399	21545
887.523	21671
887.648	21412
887.773	21576
887.897	21690
888.021	21705
888.146	21618
888.27	21663
888.395	21747
888.519	21637
888.643	21614
888.767	21652
888.891	21401
889.015	21443
889.139	21507
889.263	21336
889.387	21633
889.511	21671
889.635	21488
889.759	21488
889.883	21321
890.006	21473
890.13	21466
890.254	21363
890.377	21420
890.501	21211
890.624	21127
890.748	21199
890.871	21062
890.995	20937
891.118	20902
891.241	20990
891.364	21036
891.488	21100
891.611	20975
891.734	21055
891.857	20979
891.98	20952
892.103	20883
892.226	21024
892.349	20891
892.471	20796
892.594	20921
892.717	20975
892.839	20826
892.962	20792
893.085	20899
893.207	20948
893.33	20716
893.452	20830
893.575	20963
893.697	20902
893.819	21036
893.941	21032
894.064	21039
894.186	20731
894.308	20739
894.43	20971
894.552	20944
894.674	20921
894.796	20724
894.918	20769
895.04	20796
895.161	21085
895.283	20849
895.405	20769
895.526	20876
895.648	20853
895.769	20849
895.891	20910
896.012	20864
896.134	20845
896.255	20861
896.376	20845
896.498	20857
896.619	20857
896.74	20849
896.861	20887
896.982	21146
897.103	21161
897.224	20994
897.345	21043
897.466	20933
897.587	21039
897.708	21028
897.828	21028
897.949	20960
898.07	20998
898.19	20891
898.311	21047
898.431	20883
898.552	20975
898.672	21070
898.792	21096
898.913	21089
899.033	20967
899.153	20743
899.273	20613
899.393	20697
899.513	20796
899.633	20880
899.753	20823
899.873	20693
899.993	20773
900.113	20686
900.232	20693
900.352	20777
900.472	20655
900.591	20632
900.711	20511
900.83	20583
900.95	20663
901.069	20571
901.189	20385
901.308	20218
901.427	20172
901.546	20142
901.665	20092
901.784	20069
901.904	19997
902.023	19947
902.141	19784
902.26	19601
902.379	19700
902.498	19616
902.617	19586
902.735	19620
902.854	19658
902.973	19445
903.091	19407
903.21	19198
903.328	19285
903.446	19263
903.565	19065
903.683	19050
903.801	18943
903.919	18958
904.038	19133
904.156	18802
904.274	18859
904.392	18783
904.51	18837
904.627	18817
904.745	18852
904.863	18875
904.981	18681
905.098	18585
905.216	18502
905.334	18555
905.451	18544
905.569	18517
905.686	18506
905.803	18486
905.921	18342
906.038	18471
906.155	18346
906.272	18285
906.389	18194
906.506	18072
906.623	18087
906.74	17988
906.857	17954
906.974	17969
907.091	18095
907.208	18209
907.324	18136
907.441	17901
907.557	17885
907.674	17767
907.79	17665
907.907	17649
908.023	17794
908.139	17824
908.256	17741
908.372	17551
908.488	17703
908.604	17425
908.72	17356
908.836	17459
908.952	17376
909.068	17516
909.184	17547
909.3	17436
909.415	17440
909.531	17482
909.647	17147
909.762	17121
909.878	17151
909.993	17159
910.108	17181
910.224	17098
910.339	17045
910.454	17037
910.57	16991
910.685	16919
910.8	17121
910.915	17140
911.03	16972
911.145	16869
911.259	16664
911.374	16847
911.489	16637
911.604	16656
911.718	16390
911.833	16523
911.947	16344
912.062	16402
912.176	16440
912.291	16485
912.405	16485
912.519	16611
912.633	16683
912.748	16470
912.862	16379
912.976	16382
913.09	16246
913.204	16287
913.318	16337
913.431	16295
913.545	16284
913.659	16451
913.772	16303
913.886	16078
914	16078
914.113	16112
914.226	16131
914.34	16230
914.453	15975
914.566	15972
914.68	15998
914.793	15876
914.906	15808
915.019	15694
915.132	15587
915.245	15610
915.358	15698
915.47	15644
915.583	15675
915.696	15724
915.809	15709
915.921	15888
916.034	15637
916.146	15580
916.259	15530
916.371	15724
916.483	15701
916.595	15542
916.708	15481
916.82	15485
916.932	15408
917.044	15469
917.156	15454
917.268	15386
917.38	15272
917.491	15306
917.603	15340
917.715	15370
917.826	15370
917.938	15249
918.049	15165
918.161	15291
918.272	15443
918.384	15367
918.495	15275
918.606	15077
918.717	15043
918.828	15119
918.939	15116
919.05	14948
919.161	15036
919.272	14792
919.383	14933
919.494	15013
919.604	15279
919.715	15142
919.826	14853
919.936	14982
920.047	15108
920.157	15005
920.267	15165
920.378	14990
920.488	14933
920.598	15260
920.708	15340
920.818	15211
920.928	15127
921.038	15386
921.148	15249
921.258	14952
921.368	14899
921.477	14800
921.587	14655
921.697	14495
921.806	14651
921.916	14610
922.025	14423
922.134	14324
922.244	14358
922.353	14434
922.462	14218
922.571	14183
922.68	14001
922.789	14073
922.898	14054
923.007	13932
923.116	14054
923.224	13928
923.333	14054
923.442	13875
923.55	13822
923.659	13864
923.767	13799
923.876	13807
923.984	13814
924.092	13746
924.201	13849
924.309	13746
924.417	13772
924.525	13734
924.633	13601
924.741	14446
924.849	13449
924.956	13521
925.064	13449
925.172	13369
925.279	13384
925.387	13476
925.494	13255
925.602	13510
925.709	13430
925.816	13270
925.924	13407
926.031	13445
926.138	13293
926.245	13354
926.352	13263
926.459	13476
926.566	13354
926.673	13251
926.779	13175
926.886	13149
926.993	13050
927.099	12920
927.206	12878
927.312	12779
927.419	12993
927.525	12886
927.631	12977
927.737	12783
927.843	12764
927.95	12734
928.056	12833
928.162	12738
928.267	12837
928.373	13346
928.479	12840
928.585	12589
928.69	12658
928.796	12757
928.901	12604
929.007	12486
929.112	12578
929.218	12597
929.323	12448
929.428	12521
929.533	12551
929.638	12350
929.743	12456
929.848	12525
929.953	12346
930.058	12372
930.163	12167
930.267	12155
930.372	12281
930.477	12152
930.581	12388
930.685	12171
930.79	12095
930.894	12064
930.998	11950
931.103	12201
931.207	11737
931.311	11775
931.415	11570
931.519	11440
931.623	11414
