Data from test_V78500241_2475.txt Node
Date: Fri Mar 25 15:58:56 CST 2022
User: usil
Spectrometer: V785-0024
Trigger mode: 0
Integration Time (sec): 4.000000E-1
Scans to average: 1
Nonlinearity correction enabled: false
Boxcar width: 0
Storing dark spectrum: false
XAxis mode: Wavelengths
Number of Pixels in Spectrum: 1024
>>>>>Begin Spectral Data<<<<<
801.071	28451
801.214	28443
801.356	28211
801.499	28158
801.641	28169
801.783	28040
801.926	28200
802.068	27960
802.211	28017
802.353	27850
802.496	27762
802.638	27686
802.78	27690
802.923	27618
803.065	27564
803.208	27743
803.35	27747
803.492	27781
803.635	27876
803.777	27751
803.919	27956
804.061	28303
804.204	27949
804.346	27895
804.488	27827
804.63	27949
804.773	27713
804.915	27937
805.057	28032
805.199	27945
805.341	28036
805.483	28147
805.626	28086
805.768	27793
805.91	27998
806.052	28070
806.194	27945
806.336	28341
806.478	28097
806.62	28082
806.762	28055
806.904	28371
807.046	28527
807.188	28519
807.33	28379
807.472	28702
807.614	28512
807.756	28489
807.898	28352
808.04	28246
808.182	28394
808.324	28341
808.465	28394
808.607	28580
808.749	28778
808.891	28816
809.033	28946
809.174	28850
809.316	28702
809.458	28660
809.6	28778
809.741	28839
809.883	28885
810.025	28866
810.166	29025
810.308	29010
810.45	28953
810.591	28942
810.733	28843
810.875	28767
811.016	28752
811.158	28634
811.299	28843
811.441	28877
811.582	28927
811.724	28668
811.865	28694
812.007	28656
812.148	28835
812.29	28820
812.431	28972
812.573	29113
812.714	29220
812.855	29170
812.997	29360
813.138	29520
813.279	29528
813.421	29166
813.562	29147
813.703	29075
813.845	28854
813.986	28721
814.127	28565
814.268	28493
814.41	28493
814.551	28474
814.692	28485
814.833	28291
814.974	28538
815.115	28634
815.256	28291
815.397	28299
815.539	28238
815.68	28341
815.821	28253
815.962	28181
816.103	28226
816.244	28105
816.385	27994
816.526	28040
816.666	27835
816.807	27751
816.948	27785
817.089	27747
817.23	27812
817.371	27736
817.512	27743
817.653	27850
817.793	27561
817.934	27648
818.075	27778
818.216	27808
818.356	27709
818.497	27625
818.638	27473
818.778	27485
818.919	27542
819.06	27553
819.2	27690
819.341	27751
819.481	27781
819.622	27869
819.762	28021
819.903	28082
820.043	27956
820.184	27739
820.324	27705
820.465	27842
820.605	27926
820.746	27934
820.886	27778
821.026	27831
821.167	27690
821.307	27911
821.447	27705
821.588	27637
821.728	27679
821.868	27393
822.008	27378
822.149	27344
822.289	27222
822.429	27051
822.569	26838
822.709	26967
822.849	26842
822.99	26777
823.13	26640
823.27	26549
823.41	26670
823.55	26598
823.69	26571
823.83	26560
823.97	26488
824.11	26415
824.25	26320
824.389	26385
824.529	26469
824.669	26343
824.809	26408
824.949	26358
825.089	26480
825.228	26374
825.368	26126
825.508	26039
825.648	26309
825.787	26240
825.927	26343
826.067	26183
826.206	26229
826.346	26278
826.485	26240
826.625	26256
826.765	26355
826.904	26301
827.044	26138
827.183	26096
827.323	25955
827.462	25993
827.601	25932
827.741	25955
827.88	25963
828.02	25841
828.159	26077
828.298	25944
828.437	26031
828.577	25879
828.716	26111
828.855	25826
828.994	25803
829.134	25666
829.273	25761
829.412	25677
829.551	25651
829.69	25597
829.829	25769
829.968	25639
830.107	25795
830.246	25643
830.385	25563
830.524	25666
830.663	25487
830.802	25365
830.941	25240
831.08	25320
831.219	25377
831.357	25293
831.496	25487
831.635	25324
831.774	25217
831.913	25031
832.051	24981
832.19	25118
832.329	25137
832.467	24973
832.606	24924
832.744	24878
832.883	24920
833.022	24958
833.16	24973
833.299	25023
833.437	24992
833.576	24920
833.714	25042
833.852	25057
833.991	25023
834.129	25061
834.267	24951
834.406	24943
834.544	25038
834.682	25038
834.821	25046
834.959	25202
835.097	24981
835.235	24981
835.373	24894
835.511	25023
835.65	24734
835.788	24939
835.926	24658
836.064	24703
836.202	24589
836.34	24867
836.478	24932
836.615	24871
836.753	24913
836.891	24859
837.029	24901
837.167	24642
837.305	24696
837.443	24760
837.58	24604
837.718	24738
837.856	24726
837.993	24665
838.131	24616
838.269	24479
838.406	24528
838.544	24441
838.681	24334
838.819	24315
838.956	24152
839.094	24205
839.231	24266
839.369	24201
839.506	24460
839.643	24391
839.781	24129
839.918	24045
840.055	24292
840.193	24114
840.33	24003
840.467	24083
840.604	24087
840.742	24186
840.879	23912
841.016	23980
841.153	23973
841.29	24041
841.427	24038
841.564	24022
841.701	23935
841.838	24045
841.975	23916
842.112	23908
842.249	23870
842.385	23897
842.522	23969
842.659	23878
842.796	23904
842.933	23741
843.069	23646
843.206	23805
843.343	23775
843.479	23942
843.616	23794
843.752	23478
843.889	23600
844.025	23668
844.162	23604
844.298	23676
844.435	23524
844.571	23543
844.708	23562
844.844	23687
844.98	23657
845.117	23554
845.253	23501
845.389	23345
845.525	23429
845.661	23356
845.798	23284
845.934	23467
846.07	23254
846.206	23402
846.342	23383
846.478	23250
846.614	22923
846.75	22843
846.886	22923
847.022	23098
847.158	23067
847.294	23064
847.429	23014
847.565	23064
847.701	23299
847.837	22660
847.972	22839
848.108	22702
848.244	22877
848.379	22603
848.515	22622
848.65	22641
848.786	22584
848.921	22611
849.057	22694
849.192	22710
849.328	22626
849.463	22645
849.598	22535
849.734	22470
849.869	22440
850.004	22322
850.14	22466
850.275	22394
850.41	22173
850.545	22360
850.68	22344
850.815	22367
850.95	22443
851.085	22618
851.22	22569
851.355	22356
851.49	22310
851.625	22314
851.76	22371
851.895	22447
852.03	22348
852.165	22405
852.299	22436
852.434	22481
852.569	22356
852.703	22436
852.838	22447
852.973	22341
853.107	22432
853.242	22276
853.376	22051
853.511	22177
853.645	22166
853.78	22272
853.914	22253
854.048	22124
854.183	22238
854.317	22322
854.451	22363
854.585	22166
854.72	22177
854.854	22257
854.988	22135
855.122	22055
855.256	22048
855.39	22249
855.524	22280
855.658	22135
855.792	22356
855.926	22246
856.06	22223
856.194	22402
856.327	22211
856.461	22032
856.595	22147
856.729	22177
856.862	22249
856.996	22276
857.13	22158
857.263	22310
857.397	22200
857.53	22234
857.664	22261
857.797	22306
857.931	22470
858.064	22215
858.197	22348
858.331	22200
858.464	22128
858.597	22010
858.731	22124
858.864	22177
858.997	22188
859.13	22211
859.263	22196
859.396	22295
859.529	22223
859.662	22055
859.795	22249
859.928	22204
860.061	22519
860.194	22436
860.327	22272
860.46	22124
860.592	22390
860.725	22356
860.858	22337
860.99	22192
861.123	22131
861.256	22204
861.388	22261
861.521	23117
861.653	22067
861.786	22013
861.918	21975
862.05	22017
862.183	22105
862.315	22211
862.447	22166
862.58	22090
862.712	21880
862.844	21926
862.976	21987
863.108	21983
863.24	22257
863.372	21842
863.504	21888
863.636	21892
863.768	21888
863.9	21949
864.032	21724
864.164	21800
864.296	21956
864.428	21930
864.559	22029
864.691	21949
864.823	21979
864.954	21869
865.086	21857
865.217	21861
865.349	21797
865.48	21846
865.612	21838
865.743	21854
865.875	21732
866.006	21850
866.137	21865
866.269	21789
866.4	21663
866.531	21698
866.662	21663
866.793	21907
866.924	21701
867.055	21747
867.186	21842
867.317	21686
867.448	21671
867.579	21671
867.71	21633
867.841	21709
867.972	21762
868.103	21614
868.233	21762
868.364	21804
868.495	21876
868.625	21941
868.756	22090
868.886	21968
869.017	22048
869.147	21983
869.278	22059
869.408	21895
869.539	21941
869.669	22078
869.799	21975
869.929	21949
870.06	22025
870.19	22363
870.32	22280
870.45	22310
870.58	22310
870.71	22394
870.84	22485
870.97	22390
871.1	22325
871.23	22519
871.36	22459
871.489	22481
871.619	22527
871.749	22500
871.879	22664
872.008	22634
872.138	22504
872.267	22561
872.397	22447
872.526	22348
872.656	22504
872.785	22432
872.915	22554
873.044	22733
873.173	22565
873.303	22664
873.432	22786
873.561	22740
873.69	22694
873.819	22497
873.948	22561
874.077	22508
874.206	22523
874.335	22569
874.464	22664
874.593	22782
874.722	22782
874.851	22946
874.979	22839
875.108	22820
875.237	22755
875.365	22744
875.494	22763
875.623	22793
875.751	22755
875.88	22721
876.008	22866
876.136	22858
876.265	23132
876.393	23269
876.521	23162
876.65	23239
876.778	23185
876.906	23128
877.034	23083
877.162	23083
877.29	23102
877.418	23079
877.546	23170
877.674	23147
877.802	23143
877.93	23083
878.058	23136
878.185	23079
878.313	23159
878.441	23094
878.568	23064
878.696	23086
878.824	23136
878.951	23132
879.079	23387
879.206	23444
879.333	23322
879.461	23166
879.588	23151
879.715	23341
879.842	23364
879.97	23147
880.097	22915
880.224	22976
880.351	23044
880.478	23067
880.605	22930
880.732	22869
880.859	23166
880.986	22831
881.112	23010
881.239	22908
881.366	22653
881.493	22569
881.619	22546
881.746	22493
881.872	22634
881.999	22523
882.125	22508
882.252	22573
882.378	22497
882.505	22622
882.631	22325
882.757	22299
882.883	22405
883.01	22226
883.136	22078
883.262	22150
883.388	22074
883.514	22162
883.64	22249
883.766	22188
883.892	21949
884.018	21956
884.143	22036
884.269	22257
884.395	21903
884.52	21759
884.646	21739
884.772	21846
884.897	21846
885.023	21816
885.148	21915
885.274	21994
885.399	22029
885.524	21960
885.65	21865
885.775	21857
885.9	21835
886.025	21911
886.15	21873
886.275	21800
886.4	21751
886.525	21682
886.65	21705
886.775	21736
886.9	21991
887.025	22070
887.149	21713
887.274	21599
887.399	21724
887.523	21728
887.648	21515
887.773	21450
887.897	21618
888.021	21538
888.146	21576
888.27	21644
888.395	21739
888.519	21671
888.643	21618
888.767	21641
888.891	21561
889.015	21199
889.139	21355
889.263	21431
889.387	21564
889.511	21515
889.635	21515
889.759	21397
889.883	21264
890.006	21378
890.13	21424
890.254	21268
890.377	21306
890.501	21173
890.624	21085
890.748	21298
890.871	21032
890.995	20975
891.118	20925
891.241	20842
891.364	20918
891.488	21081
891.611	20967
891.734	20918
891.857	20982
891.98	20906
892.103	21039
892.226	20906
892.349	20918
892.471	20804
892.594	20906
892.717	21001
892.839	20724
892.962	20777
893.085	20910
893.207	20956
893.33	20758
893.452	20705
893.575	20883
893.697	20853
893.819	20925
893.941	21055
894.064	20925
894.186	20705
894.308	20746
894.43	20887
894.552	20834
894.674	20845
894.796	20727
894.918	20819
895.04	20804
895.161	20891
895.283	20868
895.405	20785
895.526	20864
895.648	20727
895.769	20868
895.891	20830
896.012	20891
896.134	20921
896.255	20796
896.376	20724
896.498	20830
896.619	20785
896.74	20857
896.861	20823
896.982	21218
897.103	21306
897.224	21043
897.345	21013
897.466	21001
897.587	21009
897.708	21180
897.828	20948
897.949	21024
898.07	20853
898.19	20948
898.311	21207
898.431	20868
898.552	21001
898.672	21089
898.792	21047
898.913	21096
899.033	21020
899.153	20849
899.273	20731
899.393	20781
899.513	20754
899.633	20823
899.753	20800
899.873	20670
899.993	20621
900.113	20705
900.232	20845
900.352	20758
900.472	20594
900.591	20571
900.711	20594
900.83	20431
900.95	20583
901.069	20693
901.189	20408
901.308	20195
901.427	20153
901.546	20043
901.665	20290
901.784	20149
901.904	19928
902.023	19757
902.141	19761
902.26	19616
902.379	19666
902.498	19635
902.617	19605
902.735	19616
902.854	19700
902.973	19502
903.091	19354
903.21	19255
903.328	19133
903.446	19194
903.565	19133
903.683	19202
903.801	18989
903.919	18996
904.038	19076
904.156	18848
904.274	18859
904.392	18795
904.51	18753
904.627	18894
904.745	18871
904.863	18954
904.981	18681
905.098	18525
905.216	18483
905.334	18563
905.451	18589
905.569	18490
905.686	18555
905.803	18528
905.921	18281
906.038	18319
906.155	18251
906.272	18133
906.389	18357
906.506	17958
906.623	18030
906.74	17878
906.857	17882
906.974	18019
907.091	18133
907.208	18197
907.324	18095
907.441	17931
907.557	17828
907.674	17722
907.79	17707
907.907	17726
908.023	17779
908.139	17779
908.256	17729
908.372	17543
908.488	17703
908.604	17482
908.72	17337
908.836	17417
908.952	17459
909.068	17421
909.184	17482
909.3	17497
909.415	17581
909.531	17532
909.647	17204
909.762	17143
909.878	17155
909.993	17155
910.108	17136
910.224	17037
910.339	17136
910.454	17003
910.57	16923
910.685	16968
910.8	17200
910.915	17143
911.03	16927
911.145	16900
911.259	16820
911.374	16854
911.489	16752
911.604	16584
911.718	16531
911.833	16451
911.947	16485
912.062	16337
912.176	16455
912.291	16554
912.405	16462
912.519	16558
912.633	16546
912.748	16489
912.862	16390
912.976	16325
913.09	16211
913.204	16306
913.318	16299
913.431	16299
913.545	16344
913.659	16424
913.772	16196
913.886	16128
914	16086
914.113	16207
914.226	16169
914.34	16078
914.453	16025
914.566	16169
914.68	15953
914.793	15998
914.906	15755
915.019	15580
915.132	15549
915.245	15682
915.358	15660
915.47	15701
915.583	15667
915.696	15675
915.809	15808
915.921	15762
916.034	15618
916.146	15606
916.259	15644
916.371	15717
916.483	15500
916.595	15526
916.708	15549
916.82	15485
916.932	15466
917.044	15401
917.156	15458
917.268	15359
917.38	15317
917.491	15332
917.603	15321
917.715	15313
917.826	15439
917.938	15256
918.049	15188
918.161	15260
918.272	15332
918.384	15408
918.495	15249
918.606	15142
918.717	15062
918.828	15112
918.939	15058
919.05	14956
919.161	15116
919.272	14792
919.383	14838
919.494	15043
919.604	15272
919.715	15001
919.826	14872
919.936	14960
920.047	15108
920.157	15017
920.267	15260
920.378	15154
920.488	15047
920.598	15218
920.708	15355
920.818	15138
920.928	15127
921.038	15298
921.148	15264
921.258	14971
921.368	14811
921.477	14651
921.587	14712
921.697	14602
921.806	14777
921.916	14590
922.025	14427
922.134	14317
922.244	14396
922.353	14400
922.462	14233
922.571	14294
922.68	14024
922.789	14035
922.898	14126
923.007	13967
923.116	14092
923.224	13928
923.333	13974
923.442	13830
923.55	13845
923.659	13765
923.767	13925
923.876	13731
923.984	13811
924.092	13693
924.201	13750
924.309	13799
924.417	13685
924.525	13571
924.633	13658
924.741	14484
924.849	13487
924.956	13594
925.064	13457
925.172	13388
925.279	13373
925.387	13510
925.494	13403
925.602	13422
925.709	13483
925.816	13236
925.924	13365
926.031	13407
926.138	13350
926.245	13289
926.352	13221
926.459	13339
926.566	13396
926.673	13259
926.779	13118
926.886	13149
926.993	13031
927.099	13004
927.206	12821
927.312	12916
927.419	12932
927.525	12954
927.631	12897
927.737	12802
927.843	12817
927.95	12730
928.056	12817
928.162	12753
928.267	12814
928.373	13483
928.479	12817
928.585	12559
928.69	12760
928.796	12802
928.901	12620
929.007	12445
929.112	12623
929.218	12566
929.323	12525
929.428	12585
929.533	12547
929.638	12369
929.743	12353
929.848	12559
929.953	12460
930.058	12277
930.163	12155
930.267	12136
930.372	12235
930.477	12125
930.581	12365
930.685	12247
930.79	12038
930.894	12133
930.998	12034
931.103	12194
931.207	11802
931.311	11783
931.415	11634
931.519	11478
931.623	11337
