Data from test_V78500241_3226.txt Node
Date: Fri Mar 25 16:04:08 CST 2022
User: usil
Spectrometer: V785-0024
Trigger mode: 0
Integration Time (sec): 4.000000E-1
Scans to average: 1
Nonlinearity correction enabled: false
Boxcar width: 0
Storing dark spectrum: false
XAxis mode: Wavelengths
Number of Pixels in Spectrum: 1024
>>>>>Begin Spectral Data<<<<<
801.071	28660
801.214	28683
801.356	28569
801.499	28337
801.641	28367
801.783	28386
801.926	28493
802.068	28390
802.211	28424
802.353	28257
802.496	28173
802.638	28067
802.78	28154
802.923	27987
803.065	27800
803.208	27892
803.35	28154
803.492	28257
803.635	28207
803.777	28295
803.919	28306
804.061	28683
804.204	28299
804.346	28379
804.488	28120
804.63	28234
804.773	28291
804.915	28360
805.057	28443
805.199	28451
805.341	28504
805.483	28538
805.626	28588
805.768	28329
805.91	28489
806.052	28527
806.194	28512
806.336	28698
806.478	28607
806.62	28580
806.762	28683
806.904	28888
807.046	29064
807.188	28965
807.33	29014
807.472	28995
807.614	28965
807.756	29003
807.898	28733
808.04	28790
808.182	28752
808.324	28824
808.465	28877
808.607	29117
808.749	29181
808.891	29280
809.033	29417
809.174	29322
809.316	29174
809.458	29037
809.6	29075
809.741	29326
809.883	29299
810.025	29368
810.166	29531
810.308	29417
810.45	29486
810.591	29330
810.733	29174
810.875	29254
811.016	29121
811.158	29147
811.299	29227
811.441	29269
811.582	29402
811.724	29155
811.865	29379
812.007	29147
812.148	29223
812.29	29299
812.431	29261
812.573	29551
812.714	29596
812.855	29729
812.997	29977
813.138	29912
813.279	29996
813.421	29695
813.562	29687
813.703	29486
813.845	29440
813.986	29220
814.127	29098
814.268	28968
814.41	28987
814.551	28961
814.692	28999
814.833	28896
814.974	28763
815.115	28820
815.256	28839
815.397	28786
815.539	28713
815.68	28778
815.821	28774
815.962	28835
816.103	28763
816.244	28535
816.385	28577
816.526	28592
816.666	28379
816.807	28116
816.948	28356
817.089	28394
817.23	28173
817.371	28200
817.512	28261
817.653	28230
817.793	28242
817.934	28261
818.075	28249
818.216	28322
818.356	28253
818.497	28116
818.638	28063
818.778	28013
818.919	28150
819.06	27972
819.2	28139
819.341	28253
819.481	28128
819.622	28401
819.762	28516
819.903	28440
820.043	28413
820.184	28455
820.324	28390
820.465	28531
820.605	28447
820.746	28405
820.886	28173
821.026	28356
821.167	28379
821.307	28428
821.447	28295
821.588	28166
821.728	28078
821.868	27918
822.008	27831
822.149	27671
822.289	27679
822.429	27496
822.569	27393
822.709	27435
822.849	27302
822.99	27317
823.13	27294
823.27	27230
823.41	27001
823.55	26963
823.69	27233
823.83	26998
823.97	27058
824.11	26800
824.25	26735
824.389	26823
824.529	26849
824.669	26956
824.809	26914
824.949	27001
825.089	27032
825.228	27020
825.368	26785
825.508	26731
825.648	26819
825.787	26731
825.927	27001
826.067	26800
826.206	26792
826.346	26769
826.485	26933
826.625	26743
826.765	26785
826.904	26849
827.044	26514
827.183	26708
827.323	26507
827.462	26488
827.601	26480
827.741	26480
827.88	26583
828.02	26328
828.159	26423
828.298	26518
828.437	26545
828.577	26358
828.716	26632
828.855	26469
828.994	26187
829.134	26176
829.273	26183
829.412	26161
829.551	26157
829.69	26180
829.829	26092
829.968	26320
830.107	26290
830.246	26130
830.385	26031
830.524	26077
830.663	26043
830.802	25955
830.941	25795
831.08	25784
831.219	25799
831.357	25856
831.496	26126
831.635	25795
831.774	25734
831.913	25670
832.051	25464
832.19	25575
832.329	25582
832.467	25502
832.606	25422
832.744	25472
832.883	25575
833.022	25358
833.16	25533
833.299	25616
833.437	25571
833.576	25620
833.714	25628
833.852	25563
833.991	25476
834.129	25586
834.267	25635
834.406	25556
834.544	25586
834.682	25453
834.821	25468
834.959	25552
835.097	25575
835.235	25563
835.373	25613
835.511	25575
835.65	25320
835.788	25324
835.926	25282
836.064	25213
836.202	25289
836.34	25316
836.478	25445
836.615	25331
836.753	25381
836.891	25384
837.029	25441
837.167	25308
837.305	25194
837.443	25232
837.58	25236
837.718	25236
837.856	25244
837.993	25129
838.131	25244
838.269	25114
838.406	25065
838.544	24954
838.681	24871
838.819	24791
838.956	24639
839.094	24745
839.231	24658
839.369	24909
839.506	24962
839.643	24916
839.781	24616
839.918	24612
840.055	24547
840.193	24574
840.33	24536
840.467	24661
840.604	24608
840.742	24935
840.879	24384
841.016	24593
841.153	24330
841.29	24715
841.427	24570
841.564	24544
841.701	24532
841.838	24471
841.975	24433
842.112	24369
842.249	24384
842.385	24285
842.522	24494
842.659	24403
842.796	24216
842.933	24289
843.069	24266
843.206	24281
843.343	24422
843.479	24182
843.616	24369
843.752	24121
843.889	24045
844.025	24247
844.162	24114
844.298	24174
844.435	24079
844.571	24007
844.708	24190
844.844	24194
844.98	24129
845.117	24209
845.253	24060
845.389	23836
845.525	23859
845.661	24015
845.798	23866
845.934	23821
846.07	23710
846.206	23821
846.342	23980
846.478	23783
846.614	23585
846.75	23581
846.886	23608
847.022	23623
847.158	23684
847.294	23516
847.429	23520
847.565	23566
847.701	23798
847.837	23280
847.972	23185
848.108	23311
848.244	23292
848.379	22991
848.515	23079
848.65	23037
848.786	23105
848.921	23132
849.057	23261
849.192	23155
849.328	23200
849.463	22995
849.598	23094
849.734	23010
849.869	22900
850.004	22869
850.14	22942
850.275	22877
850.41	22771
850.545	22968
850.68	22946
850.815	22949
850.95	22854
851.085	23037
851.22	23052
851.355	22843
851.49	22938
851.625	22968
851.76	22896
851.895	22755
852.03	22862
852.165	22930
852.299	23029
852.434	23041
852.569	23006
852.703	22752
852.838	22839
852.973	23018
853.107	22995
853.242	22752
853.376	22782
853.511	22706
853.645	22744
853.78	22847
853.914	22706
854.048	22664
854.183	22717
854.317	22679
854.451	22847
854.585	22733
854.72	22763
854.854	22713
854.988	22664
855.122	22725
855.256	22565
855.39	22725
855.524	22774
855.658	22717
855.792	22725
855.926	22603
856.06	22858
856.194	22656
856.327	22706
856.461	22622
856.595	22755
856.729	22740
856.862	22782
856.996	22752
857.13	22755
857.263	22820
857.397	22710
857.53	22702
857.664	22755
857.797	22763
857.931	22873
858.064	22759
858.197	22854
858.331	22774
858.464	22641
858.597	22660
858.731	22679
858.864	22691
858.997	22691
859.13	22774
859.263	22744
859.396	22698
859.529	22691
859.662	22683
859.795	22668
859.928	22698
860.061	22805
860.194	22904
860.327	22694
860.46	22809
860.592	22896
860.725	22721
860.858	22801
860.99	22618
861.123	22634
861.256	22767
861.388	22679
861.521	23493
861.653	22565
861.786	22424
861.918	22421
862.05	22569
862.183	22626
862.315	22577
862.447	22630
862.58	22603
862.712	22519
862.844	22367
862.976	22497
863.108	22417
863.24	22812
863.372	22367
863.504	22538
863.636	22546
863.768	22470
863.9	22386
864.032	22238
864.164	22409
864.296	22493
864.428	22531
864.559	22451
864.691	22447
864.823	22413
864.954	22535
865.086	22325
865.217	22280
865.349	22299
865.48	22265
865.612	22280
865.743	22344
865.875	22360
866.006	22341
866.137	22344
866.269	22200
866.4	22344
866.531	22139
866.662	22166
866.793	22070
866.924	22230
867.055	22177
867.186	22238
867.317	22265
867.448	22158
867.579	22109
867.71	22177
867.841	22013
867.972	22249
868.103	22143
868.233	22135
868.364	22284
868.495	22272
868.625	22451
868.756	22637
868.886	22402
869.017	22485
869.147	22527
869.278	22645
869.408	22561
869.539	22497
869.669	22497
869.799	22409
869.929	22478
870.06	22668
870.19	22858
870.32	22835
870.45	22782
870.58	22896
870.71	22953
870.84	23041
870.97	22721
871.1	22828
871.23	23117
871.36	23079
871.489	22949
871.619	23006
871.749	23098
871.879	23155
872.008	23208
872.138	23132
872.267	23041
872.397	23113
872.526	22923
872.656	22908
872.785	22957
872.915	23166
873.044	23174
873.173	23159
873.303	23166
873.432	23235
873.561	23208
873.69	23231
873.819	23140
873.948	23273
874.077	23402
874.206	23071
874.335	23010
874.464	23239
874.593	23448
874.722	23387
874.851	23353
874.979	23387
875.108	23414
875.237	23258
875.365	23132
875.494	23330
875.623	23395
875.751	23284
875.88	23414
876.008	23478
876.136	23501
876.265	23668
876.393	23821
876.521	23718
876.65	23851
876.778	23756
876.906	23726
877.034	23630
877.162	23619
877.29	23630
877.418	23748
877.546	23767
877.674	23710
877.802	23684
877.93	23657
878.058	23695
878.185	23562
878.313	23596
878.441	23733
878.568	23573
878.696	23573
878.824	23695
878.951	23843
879.079	23832
879.206	23859
879.333	23794
879.461	23790
879.588	23931
879.715	23889
879.842	24064
879.97	23882
880.097	23421
880.224	23493
880.351	23482
880.478	23551
880.605	23398
880.732	23531
880.859	23760
880.986	23535
881.112	23440
881.239	23261
881.366	23341
881.493	23067
881.619	23044
881.746	23064
881.872	23117
881.999	23029
882.125	22938
882.252	23147
882.378	23056
882.505	23102
882.631	22987
882.757	22816
882.883	22748
883.01	22733
883.136	22599
883.262	22687
883.388	22546
883.514	22664
883.64	22820
883.766	22706
883.892	22493
884.018	22573
884.143	22592
884.269	22850
884.395	22493
884.52	22207
884.646	22329
884.772	22299
884.897	22169
885.023	22287
885.148	22580
885.274	22478
885.399	22428
885.524	22409
885.65	22485
885.775	22268
885.9	22265
886.025	22462
886.15	22462
886.275	22306
886.4	22230
886.525	22265
886.65	22306
886.775	22303
886.9	22291
887.025	22421
887.149	22261
887.274	22226
887.399	22173
887.523	22154
887.648	21945
887.773	22101
887.897	22154
888.021	22204
888.146	22112
888.27	22105
888.395	22246
888.519	22230
888.643	21945
888.767	22188
888.891	21964
889.015	21945
889.139	21846
889.263	21972
889.387	22036
889.511	22017
889.635	21812
889.759	21755
889.883	21911
890.006	21823
890.13	21865
890.254	21713
890.377	21804
890.501	21663
890.624	21538
890.748	21686
890.871	21542
890.995	21557
891.118	21386
891.241	21496
891.364	21462
891.488	21481
891.611	21355
891.734	21431
891.857	21583
891.98	21439
892.103	21519
892.226	21374
892.349	21336
892.471	21226
892.594	21237
892.717	21283
892.839	21310
892.962	21408
893.085	21466
893.207	21302
893.33	21291
893.452	21192
893.575	21450
893.697	21302
893.819	21370
893.941	21587
894.064	21424
894.186	21245
894.308	21264
894.43	21367
894.552	21382
894.674	21344
894.796	21176
894.918	21203
895.04	21378
895.161	21264
895.283	21386
895.405	21287
895.526	21317
895.648	21272
895.769	21298
895.891	21420
896.012	21504
896.134	21310
896.255	21325
896.376	21222
896.498	21351
896.619	21211
896.74	21313
896.861	21412
896.982	21507
897.103	21747
897.224	21576
897.345	21462
897.466	21313
897.587	21523
897.708	21709
897.828	21477
897.949	21389
898.07	21386
898.19	21348
898.311	21576
898.431	21454
898.552	21458
898.672	21568
898.792	21568
898.913	21580
899.033	21412
899.153	21302
899.273	21093
899.393	21268
899.513	21264
899.633	21199
899.753	21306
899.873	21203
899.993	21173
900.113	21081
900.232	21070
900.352	21146
900.472	21089
900.591	20895
900.711	20914
900.83	20937
900.95	21024
901.069	20998
901.189	20811
901.308	20587
901.427	20579
901.546	20571
901.665	20644
901.784	20617
901.904	20457
902.023	20339
902.141	20202
902.26	20001
902.379	20065
902.498	20024
902.617	19989
902.735	20161
902.854	19982
902.973	20031
903.091	19693
903.21	19738
903.328	19696
903.446	19605
903.565	19445
903.683	19510
903.801	19510
903.919	19495
904.038	19369
904.156	19312
904.274	19377
904.392	19244
904.51	19285
904.627	19164
904.745	19263
904.863	19335
904.981	18958
905.098	18928
905.216	18970
905.334	18920
905.451	19019
905.569	18871
905.686	18897
905.803	18894
905.921	18779
906.038	18734
906.155	18768
906.272	18639
906.389	18593
906.506	18498
906.623	18494
906.74	18395
906.857	18365
906.974	18410
907.091	18426
907.208	18525
907.324	18433
907.441	18407
907.557	18266
907.674	18155
907.79	18079
907.907	18201
908.023	18106
908.139	18251
908.256	18197
908.372	17965
908.488	18053
908.604	17893
908.72	17802
908.836	17912
908.952	17805
909.068	17988
909.184	17870
909.3	17817
909.415	17882
909.531	17843
909.647	17596
909.762	17577
909.878	17532
909.993	17562
910.108	17547
910.224	17608
910.339	17615
910.454	17436
910.57	17334
910.685	17307
910.8	17490
910.915	17395
911.03	17307
911.145	17227
911.259	17143
911.374	17052
911.489	17079
911.604	16995
911.718	16915
911.833	16862
911.947	16782
912.062	16573
912.176	16752
912.291	16946
912.405	16881
912.519	17071
912.633	17064
912.748	16965
912.862	16908
912.976	16691
913.09	16580
913.204	16694
913.318	16759
913.431	16729
913.545	16805
913.659	16824
913.772	16611
913.886	16523
914	16497
914.113	16546
914.226	16630
914.34	16394
914.453	16402
914.566	16478
914.68	16306
914.793	16265
914.906	16147
915.019	16071
915.132	15979
915.245	16051
915.358	16067
915.47	16017
915.583	16025
915.696	16078
915.809	16158
915.921	16158
916.034	16006
916.146	15918
916.259	15884
916.371	16059
916.483	15945
916.595	15975
916.708	15823
916.82	15835
916.932	15759
917.044	15838
917.156	15751
917.268	15648
917.38	15717
917.491	15686
917.603	15622
917.715	15778
917.826	15720
917.938	15698
918.049	15458
918.161	15557
918.272	15762
918.384	15728
918.495	15648
918.606	15450
918.717	15344
918.828	15519
918.939	15477
919.05	15287
919.161	15389
919.272	15169
919.383	15192
919.494	15523
919.604	15610
919.715	15336
919.826	15321
919.936	15351
920.047	15374
920.157	15336
920.267	15553
920.378	15329
920.488	15306
920.598	15473
920.708	15652
920.818	15469
920.928	15492
921.038	15599
921.148	15500
921.258	15344
921.368	15119
921.477	15104
921.587	15112
921.697	14990
921.806	14975
921.916	14804
922.025	14739
922.134	14716
922.244	14727
922.353	14644
922.462	14530
922.571	14476
922.68	14469
922.789	14305
922.898	14358
923.007	14339
923.116	14385
923.224	14469
923.333	14290
923.442	14111
923.55	14123
923.659	14172
923.767	14199
923.876	14111
923.984	14210
924.092	14035
924.201	14115
924.309	14081
924.417	13963
924.525	14005
924.633	14008
924.741	14811
924.849	13761
924.956	13883
925.064	13814
925.172	13662
925.279	13731
925.387	13795
925.494	13662
925.602	13791
925.709	13723
925.816	13636
925.924	13677
926.031	13715
926.138	13578
926.245	13563
926.352	13533
926.459	13685
926.566	13620
926.673	13594
926.779	13457
926.886	13392
926.993	13263
927.099	13320
927.206	13110
927.312	13217
927.419	13289
927.525	13301
927.631	13270
927.737	13110
927.843	13088
927.95	12916
928.056	13057
928.162	13038
928.267	13046
928.373	13556
928.479	13129
928.585	12882
928.69	13000
928.796	13008
928.901	12817
929.007	12741
929.112	12863
929.218	12882
929.323	12779
929.428	12825
929.533	12947
929.638	12635
929.743	12696
929.848	12741
929.953	12684
930.058	12597
930.163	12376
930.267	12410
930.372	12639
930.477	12353
930.581	12658
930.685	12384
930.79	12334
930.894	12338
930.998	12319
931.103	12445
931.207	12060
931.311	11958
931.415	11954
931.519	11646
931.623	11592
