Data from test_V78500241_2731.txt Node
Date: Fri Mar 25 16:00:43 CST 2022
User: usil
Spectrometer: V785-0024
Trigger mode: 0
Integration Time (sec): 4.000000E-1
Scans to average: 1
Nonlinearity correction enabled: false
Boxcar width: 0
Storing dark spectrum: false
XAxis mode: Wavelengths
Number of Pixels in Spectrum: 1024
>>>>>Begin Spectral Data<<<<<
801.071	28786
801.214	28736
801.356	28401
801.499	28322
801.641	28344
801.783	28443
801.926	28436
802.068	28363
802.211	28390
802.353	28325
802.496	28124
802.638	28128
802.78	28040
802.923	28055
803.065	27956
803.208	27964
803.35	28090
803.492	28211
803.635	28101
803.777	28223
803.919	28417
804.061	28645
804.204	28394
804.346	28341
804.488	28181
804.63	28249
804.773	28158
804.915	28459
805.057	28481
805.199	28314
805.341	28470
805.483	28554
805.626	28379
805.768	28352
805.91	28542
806.052	28580
806.194	28421
806.336	28653
806.478	28592
806.62	28459
806.762	28683
806.904	28820
807.046	29075
807.188	28828
807.33	28961
807.472	29086
807.614	28934
807.756	28755
807.898	28729
808.04	28702
808.182	28683
808.324	28820
808.465	28816
808.607	29113
808.749	29330
808.891	29159
809.033	29356
809.174	29185
809.316	29197
809.458	29109
809.6	29136
809.741	29151
809.883	29356
810.025	29509
810.166	29429
810.308	29322
810.45	29372
810.591	29292
810.733	29208
810.875	29208
811.016	29132
811.158	29109
811.299	29200
811.441	29322
811.582	29318
811.724	29318
811.865	29121
812.007	29166
812.148	29132
812.29	29292
812.431	29436
812.573	29421
812.714	29661
812.855	29748
812.997	29726
813.138	29950
813.279	29775
813.421	29661
813.562	29707
813.703	29505
813.845	29444
813.986	29189
814.127	29025
814.268	28809
814.41	28915
814.551	28995
814.692	28984
814.833	28911
814.974	28953
815.115	28877
815.256	28812
815.397	28774
815.539	28866
815.68	28752
815.821	28653
815.962	28641
816.103	28592
816.244	28550
816.385	28508
816.526	28546
816.666	28337
816.807	28173
816.948	28333
817.089	28284
817.23	28253
817.371	28090
817.512	28265
817.653	28196
817.793	28188
817.934	28322
818.075	28207
818.216	28257
818.356	28158
818.497	28093
818.638	27987
818.778	27960
818.919	27960
819.06	28109
819.2	28078
819.341	28242
819.481	28287
819.622	28341
819.762	28542
819.903	28470
820.043	28489
820.184	28459
820.324	28329
820.465	28531
820.605	28409
820.746	28238
820.886	28200
821.026	28417
821.167	28344
821.307	28382
821.447	28192
821.588	28044
821.728	28006
821.868	27686
822.008	27603
822.149	27477
822.289	27720
822.429	27348
822.569	27401
822.709	27336
822.849	27256
822.99	27310
823.13	27173
823.27	27142
823.41	27184
823.55	26944
823.69	27081
823.83	27096
823.97	27017
824.11	26807
824.25	26887
824.389	26781
824.529	26960
824.669	26872
824.809	26994
824.949	26998
825.089	27039
825.228	26925
825.368	26796
825.508	26777
825.648	26724
825.787	26640
825.927	26838
826.067	26735
826.206	26762
826.346	26868
826.485	26895
826.625	26617
826.765	26925
826.904	26807
827.044	26438
827.183	26511
827.323	26518
827.462	26484
827.601	26423
827.741	26526
827.88	26541
828.02	26343
828.159	26396
828.298	26476
828.437	26434
828.577	26469
828.716	26648
828.855	26419
828.994	26210
829.134	26164
829.273	26218
829.412	26286
829.551	26008
829.69	26081
829.829	26180
829.968	26180
830.107	26225
830.246	26252
830.385	26176
830.524	26001
830.663	25997
830.802	25921
830.941	25765
831.08	25681
831.219	25837
831.357	25791
831.496	26111
831.635	25887
831.774	25761
831.913	25582
832.051	25632
832.19	25578
832.329	25597
832.467	25476
832.606	25434
832.744	25339
832.883	25430
833.022	25362
833.16	25388
833.299	25491
833.437	25457
833.576	25476
833.714	25594
833.852	25453
833.991	25499
834.129	25552
834.267	25499
834.406	25487
834.544	25495
834.682	25464
834.821	25548
834.959	25712
835.097	25373
835.235	25407
835.373	25479
835.511	25407
835.65	25331
835.788	25259
835.926	25289
836.064	25137
836.202	25145
836.34	25339
836.478	25449
836.615	25312
836.753	25274
836.891	25293
837.029	25331
837.167	25282
837.305	25221
837.443	25148
837.58	25217
837.718	25225
837.856	25031
837.993	25076
838.131	25244
838.269	24890
838.406	24970
838.544	25034
838.681	24905
838.819	24760
838.956	24445
839.094	24601
839.231	24620
839.369	24779
839.506	24935
839.643	24787
839.781	24582
839.918	24677
840.055	24623
840.193	24563
840.33	24357
840.467	24525
840.604	24589
840.742	24749
840.879	24357
841.016	24441
841.153	24327
841.29	24597
841.427	24456
841.564	24544
841.701	24391
841.838	24471
841.975	24509
842.112	24315
842.249	24350
842.385	24353
842.522	24544
842.659	24346
842.796	24330
842.933	24174
843.069	24308
843.206	24190
843.343	24380
843.479	24342
843.616	24243
843.752	24022
843.889	24053
844.025	24159
844.162	24057
844.298	24197
844.435	24018
844.571	23885
844.708	24152
844.844	24117
844.98	24129
845.117	24140
845.253	23851
845.389	23916
845.525	23885
845.661	23870
845.798	23794
845.934	23805
846.07	23729
846.206	23699
846.342	23889
846.478	23832
846.614	23551
846.75	23520
846.886	23497
847.022	23497
847.158	23573
847.294	23539
847.429	23638
847.565	23398
847.701	23665
847.837	23269
847.972	23284
848.108	23315
848.244	23379
848.379	23140
848.515	23010
848.65	23121
848.786	23037
848.921	23220
849.057	23166
849.192	23159
849.328	23181
849.463	23022
849.598	23083
849.734	22850
849.869	22889
850.004	22782
850.14	22809
850.275	22831
850.41	22778
850.545	22885
850.68	22786
850.815	22904
850.95	22790
851.085	23037
851.22	22946
851.355	22828
851.49	22771
851.625	22847
851.76	22847
851.895	22782
852.03	22740
852.165	22854
852.299	22862
852.434	22911
852.569	22858
852.703	22831
852.838	22942
852.973	23060
853.107	22942
853.242	22748
853.376	22717
853.511	22664
853.645	22668
853.78	22782
853.914	22744
854.048	22618
854.183	22675
854.317	22786
854.451	22763
854.585	22615
854.72	22668
854.854	22679
854.988	22622
855.122	22588
855.256	22561
855.39	22504
855.524	22683
855.658	22691
855.792	22744
855.926	22752
856.06	22577
856.194	22702
856.327	22641
856.461	22706
856.595	22588
856.729	22630
856.862	22710
856.996	22809
857.13	22820
857.263	22698
857.397	22626
857.53	22603
857.664	22569
857.797	22839
857.931	22774
858.064	22656
858.197	22649
858.331	22550
858.464	22611
858.597	22584
858.731	22656
858.864	22596
858.997	22577
859.13	22679
859.263	22782
859.396	22809
859.529	22816
859.662	22664
859.795	22672
859.928	22691
860.061	22744
860.194	22843
860.327	22736
860.46	22584
860.592	22843
860.725	22634
860.858	22694
860.99	22733
861.123	22672
861.256	22584
861.388	22641
861.521	23368
861.653	22424
861.786	22489
861.918	22409
862.05	22531
862.183	22565
862.315	22500
862.447	22569
862.58	22683
862.712	22280
862.844	22291
862.976	22504
863.108	22405
863.24	22717
863.372	22253
863.504	22253
863.636	22291
863.768	22363
863.9	22367
864.032	22402
864.164	22325
864.296	22432
864.428	22485
864.559	22546
864.691	22436
864.823	22371
864.954	22413
865.086	22230
865.217	22280
865.349	22063
865.48	22154
865.612	22219
865.743	22413
865.875	22310
866.006	22188
866.137	22291
866.269	22268
866.4	22223
866.531	22162
866.662	22074
866.793	22044
866.924	22204
867.055	22253
867.186	22291
867.317	22048
867.448	22109
867.579	22158
867.71	22074
867.841	22013
867.972	22234
868.103	22234
868.233	22166
868.364	22147
868.495	22177
868.625	22356
868.756	22538
868.886	22352
869.017	22352
869.147	22519
869.278	22405
869.408	22512
869.539	22363
869.669	22455
869.799	22432
869.929	22535
870.06	22561
870.19	22672
870.32	22824
870.45	22767
870.58	22626
870.71	22866
870.84	22923
870.97	22831
871.1	22812
871.23	22900
871.36	23022
871.489	22919
871.619	22946
871.749	23079
871.879	23094
872.008	23109
872.138	22976
872.267	23044
872.397	22835
872.526	22801
872.656	22911
872.785	22866
872.915	23060
873.044	23132
873.173	23151
873.303	22991
873.432	23018
873.561	23189
873.69	23075
873.819	23086
873.948	23014
874.077	23170
874.206	22881
874.335	23071
874.464	23299
874.593	23280
874.722	23242
874.851	23254
874.979	23322
875.108	23261
875.237	23254
875.365	23212
875.494	23166
875.623	23345
875.751	23246
875.88	23170
876.008	23296
876.136	23520
876.265	23665
876.393	23779
876.521	23718
876.65	23764
876.778	23642
876.906	23535
877.034	23528
877.162	23589
877.29	23459
877.418	23627
877.546	23482
877.674	23668
877.802	23554
877.93	23520
878.058	23444
878.185	23467
878.313	23490
878.441	23585
878.568	23417
878.696	23551
878.824	23589
878.951	23661
879.079	23741
879.206	23805
879.333	23851
879.461	23737
879.588	23592
879.715	23748
879.842	23874
879.97	23661
880.097	23440
880.224	23372
880.351	23558
880.478	23509
880.605	23406
880.732	23372
880.859	23592
880.986	23452
881.112	23455
881.239	23315
881.366	23239
881.493	23052
881.619	22987
881.746	23037
881.872	23052
881.999	23025
882.125	22984
882.252	22987
882.378	22930
882.505	23003
882.631	22854
882.757	22778
882.883	22618
883.01	22675
883.136	22561
883.262	22478
883.388	22470
883.514	22778
883.64	22577
883.766	22577
883.892	22440
884.018	22413
884.143	22618
884.269	22637
884.395	22333
884.52	22238
884.646	22382
884.772	22226
884.897	22181
885.023	22314
885.148	22428
885.274	22584
885.399	22356
885.524	22265
885.65	22226
885.775	22363
885.9	22173
886.025	22417
886.15	22421
886.275	22158
886.4	22226
886.525	22139
886.65	22177
886.775	22162
886.9	22535
887.025	22394
887.149	22253
887.274	22063
887.399	21975
887.523	22185
887.648	21941
887.773	22017
887.897	22036
888.021	22090
888.146	21899
888.27	22116
888.395	22086
888.519	21979
888.643	21998
888.767	22173
888.891	21899
889.015	21865
889.139	22044
889.263	21743
889.387	21979
889.511	22013
889.635	21991
889.759	21701
889.883	21880
890.006	21679
890.13	21949
890.254	21793
890.377	21671
890.501	21511
890.624	21530
890.748	21694
890.871	21504
890.995	21416
891.118	21268
891.241	21348
891.364	21447
891.488	21454
891.611	21355
891.734	21443
891.857	21458
891.98	21351
892.103	21504
892.226	21287
892.349	21340
892.471	21252
892.594	21279
892.717	21294
892.839	21283
892.962	21287
893.085	21351
893.207	21306
893.33	21150
893.452	21077
893.575	21291
893.697	21302
893.819	21298
893.941	21382
894.064	21389
894.186	21123
894.308	21051
894.43	21332
894.552	21336
894.674	21298
894.796	21180
894.918	21184
895.04	21176
895.161	21211
895.283	21283
895.405	21169
895.526	21207
895.648	21123
895.769	21165
895.891	21268
896.012	21283
896.134	21264
896.255	21211
896.376	21249
896.498	21264
896.619	21298
896.74	21275
896.861	21294
896.982	21507
897.103	21751
897.224	21496
897.345	21443
897.466	21393
897.587	21367
897.708	21641
897.828	21416
897.949	21431
898.07	21287
898.19	21363
898.311	21485
898.431	21351
898.552	21386
898.672	21401
898.792	21412
898.913	21416
899.033	21344
899.153	21428
899.273	21108
899.393	21142
899.513	21112
899.633	21123
899.753	21218
899.873	21127
899.993	21093
900.113	21150
900.232	21207
900.352	21188
900.472	21028
900.591	20830
900.711	20891
900.83	20929
900.95	20952
901.069	21047
901.189	20731
901.308	20571
901.427	20381
901.546	20454
901.665	20404
901.784	20457
901.904	20419
902.023	20252
902.141	20008
902.26	19982
902.379	20149
902.498	19963
902.617	19974
902.735	20138
902.854	19909
902.973	19746
903.091	19586
903.21	19655
903.328	19647
903.446	19639
903.565	19495
903.683	19502
903.801	19312
903.919	19388
904.038	19316
904.156	19145
904.274	19221
904.392	19198
904.51	19190
904.627	19133
904.745	19168
904.863	19217
904.981	18932
905.098	18829
905.216	18863
905.334	18776
905.451	18913
905.569	18783
905.686	18924
905.803	18806
905.921	18555
906.038	18665
906.155	18726
906.272	18486
906.389	18578
906.506	18353
906.623	18528
906.74	18399
906.857	18186
906.974	18289
907.091	18315
907.208	18414
907.324	18277
907.441	18330
907.557	17996
907.674	18053
907.79	17946
907.907	18030
908.023	18091
908.139	18098
908.256	18019
908.372	18030
908.488	17942
908.604	17961
908.72	17745
908.836	17821
908.952	17726
909.068	17840
909.184	17950
909.3	17760
909.415	17832
909.531	17760
909.647	17566
909.762	17433
909.878	17440
909.993	17539
910.108	17493
910.224	17429
910.339	17444
910.454	17326
910.57	17311
910.685	17261
910.8	17509
910.915	17410
911.03	17197
911.145	17071
911.259	17079
911.374	17124
911.489	17064
911.604	16908
911.718	16755
911.833	16835
911.947	16835
912.062	16637
912.176	16649
912.291	16816
912.405	16740
912.519	17075
912.633	16930
912.748	16885
912.862	16771
912.976	16615
913.09	16512
913.204	16622
913.318	16641
913.431	16694
913.545	16816
913.659	16706
913.772	16558
913.886	16440
914	16348
914.113	16478
914.226	16596
914.34	16379
914.453	16333
914.566	16500
914.68	16303
914.793	16219
914.906	15998
915.019	15991
915.132	15895
915.245	15937
915.358	16055
915.47	16051
915.583	16021
915.696	15998
915.809	16154
915.921	16044
916.034	15941
916.146	15838
916.259	15857
916.371	15934
916.483	15819
916.595	15751
916.708	15774
916.82	15823
916.932	15842
917.044	15682
917.156	15671
917.268	15572
917.38	15690
917.491	15557
917.603	15568
917.715	15675
917.826	15663
917.938	15450
918.049	15405
918.161	15515
918.272	15709
918.384	15644
918.495	15477
918.606	15424
918.717	15405
918.828	15469
918.939	15439
919.05	15230
919.161	15260
919.272	15131
919.383	15173
919.494	15348
919.604	15450
919.715	15348
919.826	15184
919.936	15264
920.047	15393
920.157	15329
920.267	15408
920.378	15329
920.488	15397
920.598	15485
920.708	15641
920.818	15416
920.928	15428
921.038	15496
921.148	15568
921.258	15256
921.368	15093
921.477	15058
921.587	14994
921.697	14929
921.806	15017
921.916	14838
922.025	14682
922.134	14701
922.244	14678
922.353	14720
922.462	14606
922.571	14495
922.68	14347
922.789	14180
922.898	14278
923.007	14214
923.116	14301
923.224	14290
923.333	14195
923.442	14069
923.55	14103
923.659	14065
923.767	14103
923.876	14123
923.984	14111
924.092	13955
924.201	14039
924.309	14027
924.417	13959
924.525	13917
924.633	13864
924.741	14910
924.849	13689
924.956	13769
925.064	13727
925.172	13658
925.279	13670
925.387	13734
925.494	13613
925.602	13734
925.709	13571
925.816	13537
925.924	13662
926.031	13639
926.138	13658
926.245	13601
926.352	13472
926.459	13597
926.566	13662
926.673	13460
926.779	13339
926.886	13419
926.993	13194
927.099	13187
927.206	13190
927.312	13240
927.419	13293
927.525	13240
927.631	13209
927.737	13080
927.843	13046
927.95	12951
928.056	12958
928.162	13015
928.267	13084
928.373	13601
928.479	13027
928.585	12806
928.69	12875
928.796	12993
928.901	12825
929.007	12722
929.112	12840
929.218	12837
929.323	12772
929.428	12719
929.533	12935
929.638	12783
929.743	12741
929.848	12620
929.953	12658
930.058	12547
930.163	12323
930.267	12346
930.372	12612
930.477	12410
930.581	12563
930.685	12395
930.79	12334
930.894	12311
930.998	12296
931.103	12361
931.207	11923
931.311	11847
931.415	11832
931.519	11699
931.623	11649
