Data from test_V78500241_1474.txt Node
Date: Fri Mar 25 15:52:00 CST 2022
User: usil
Spectrometer: V785-0024
Trigger mode: 0
Integration Time (sec): 4.000000E-1
Scans to average: 1
Nonlinearity correction enabled: false
Boxcar width: 0
Storing dark spectrum: false
XAxis mode: Wavelengths
Number of Pixels in Spectrum: 1024
>>>>>Begin Spectral Data<<<<<
801.071	27389
801.214	27264
801.356	27127
801.499	26891
801.641	27013
801.783	26864
801.926	27024
802.068	26781
802.211	26758
802.353	26796
802.496	26495
802.638	26583
802.78	26511
802.923	26537
803.065	26431
803.208	26575
803.35	26693
803.492	26613
803.635	26705
803.777	26769
803.919	26708
804.061	27112
804.204	26792
804.346	26667
804.488	26469
804.63	26830
804.773	26701
804.915	26739
805.057	26765
805.199	26739
805.341	26716
805.483	26971
805.626	26937
805.768	26644
805.91	26887
806.052	26925
806.194	26834
806.336	27058
806.478	26902
806.62	26769
806.762	26925
806.904	27123
807.046	27393
807.188	27222
807.33	27123
807.472	27355
807.614	27207
807.756	27230
807.898	27039
808.04	27058
808.182	27013
808.324	27081
808.465	27226
808.607	27397
808.749	27473
808.891	27488
809.033	27667
809.174	27625
809.316	27359
809.458	27511
809.6	27504
809.741	27576
809.883	27504
810.025	27709
810.166	27755
810.308	27694
810.45	27739
810.591	27671
810.733	27450
810.875	27363
811.016	27283
811.158	27131
811.299	27519
811.441	27595
811.582	27667
811.724	27473
811.865	27473
812.007	27329
812.148	27427
812.29	27504
812.431	27660
812.573	27675
812.714	27846
812.855	27842
812.997	27979
813.138	28150
813.279	28150
813.421	27831
813.562	27934
813.703	27808
813.845	27652
813.986	27199
814.127	27294
814.268	27199
814.41	27108
814.551	27135
814.692	27127
814.833	27074
814.974	27154
815.115	27062
815.256	26883
815.397	26971
815.539	26967
815.68	26830
815.821	26777
815.962	26952
816.103	26876
816.244	26743
816.385	26727
816.526	26716
816.666	26358
816.807	26396
816.948	26446
817.089	26575
817.23	26396
817.371	26332
817.512	26457
817.653	26450
817.793	26336
817.934	26488
818.075	26374
818.216	26404
818.356	26286
818.497	26214
818.638	26035
818.778	26138
818.919	26107
819.06	26157
819.2	26240
819.341	26461
819.481	26332
819.622	26606
819.762	26724
819.903	26609
820.043	26434
820.184	26453
820.324	26514
820.465	26564
820.605	26400
820.746	26396
820.886	26282
821.026	26469
821.167	26347
821.307	26560
821.447	26244
821.588	26366
821.728	26077
821.868	26039
822.008	25868
822.149	25875
822.289	25731
822.429	25620
822.569	25487
822.709	25499
822.849	25438
822.99	25259
823.13	25320
823.27	25209
823.41	25225
823.55	24924
823.69	25160
823.83	25179
823.97	25107
824.11	24958
824.25	24928
824.389	24897
824.529	25148
824.669	24973
824.809	25152
824.949	24943
825.089	25110
825.228	24977
825.368	24844
825.508	24753
825.648	24886
825.787	24871
825.927	24890
826.067	24787
826.206	24863
826.346	24886
826.485	24856
826.625	24753
826.765	24901
826.904	24905
827.044	24532
827.183	24483
827.323	24460
827.462	24760
827.601	24513
827.741	24486
827.88	24551
828.02	24467
828.159	24547
828.298	24639
828.437	24722
828.577	24513
828.716	24627
828.855	24536
828.994	24277
829.134	24266
829.273	24346
829.412	24159
829.551	24125
829.69	24197
829.829	24178
829.968	24361
830.107	24258
830.246	24323
830.385	24129
830.524	24117
830.663	24083
830.802	24026
830.941	23882
831.08	23821
831.219	23817
831.357	23882
831.496	24095
831.635	23714
831.774	23786
831.913	23726
832.051	23661
832.19	23668
832.329	23714
832.467	23630
832.606	23482
832.744	23421
832.883	23497
833.022	23455
833.16	23535
833.299	23619
833.437	23448
833.576	23573
833.714	23672
833.852	23722
833.991	23570
834.129	23733
834.267	23604
834.406	23577
834.544	23562
834.682	23474
834.821	23684
834.959	23733
835.097	23448
835.235	23691
835.373	23577
835.511	23566
835.65	23429
835.788	23410
835.926	23311
836.064	23322
836.202	23303
836.34	23391
836.478	23592
836.615	23417
836.753	23467
836.891	23497
837.029	23478
837.167	23296
837.305	23334
837.443	23212
837.58	23284
837.718	23239
837.856	23337
837.993	23220
838.131	23284
838.269	23204
838.406	23170
838.544	23242
838.681	22869
838.819	22900
838.956	22672
839.094	22672
839.231	22839
839.369	22831
839.506	23060
839.643	23109
839.781	22752
839.918	22687
840.055	22774
840.193	22653
840.33	22748
840.467	22717
840.604	22607
840.742	23048
840.879	22637
841.016	22565
841.153	22554
841.29	22869
841.427	22649
841.564	22713
841.701	22611
841.838	22626
841.975	22569
842.112	22485
842.249	22588
842.385	22352
842.522	22740
842.659	22443
842.796	22291
842.933	22447
843.069	22295
843.206	22402
843.343	22478
843.479	22379
843.616	22379
843.752	22200
843.889	22219
844.025	22329
844.162	22173
844.298	22242
844.435	22188
844.571	22192
844.708	22147
844.844	22348
844.98	22291
845.117	22242
845.253	22059
845.389	22124
845.525	22067
845.661	21968
845.798	21861
845.934	22021
846.07	21960
846.206	22032
846.342	21945
846.478	21876
846.614	21724
846.75	21545
846.886	21614
847.022	21797
847.158	21694
847.294	21637
847.429	21660
847.565	21599
847.701	21983
847.837	21500
847.972	21363
848.108	21466
848.244	21454
848.379	21241
848.515	21264
848.65	21313
848.786	21203
848.921	21195
849.057	21332
849.192	21313
849.328	21268
849.463	21298
849.598	21241
849.734	21207
849.869	21123
850.004	21096
850.14	21077
850.275	20975
850.41	20963
850.545	20975
850.68	20986
850.815	21089
850.95	20929
851.085	21264
851.22	21184
851.355	20998
851.49	21009
851.625	20902
851.76	20994
851.895	20918
852.03	20948
852.165	21032
852.299	21070
852.434	21222
852.569	21051
852.703	20979
852.838	21157
852.973	21218
853.107	21108
853.242	20982
853.376	20880
853.511	20800
853.645	20693
853.78	20880
853.914	20944
854.048	20731
854.183	20716
854.317	20864
854.451	21051
854.585	20845
854.72	20857
854.854	20872
854.988	20686
855.122	20800
855.256	20739
855.39	20701
855.524	20796
855.658	20842
855.792	20883
855.926	20777
856.06	20914
856.194	20944
856.327	20746
856.461	20724
856.595	20754
856.729	20788
856.862	20914
856.996	20861
857.13	20765
857.263	21009
857.397	21001
857.53	20815
857.664	20944
857.797	20902
857.931	20941
858.064	20804
858.197	21055
858.331	20891
858.464	20724
858.597	20678
858.731	20754
858.864	20777
858.997	20750
859.13	20956
859.263	20785
859.396	21028
859.529	20777
859.662	20708
859.795	20811
859.928	20746
860.061	21009
860.194	21066
860.327	20853
860.46	20845
860.592	21051
860.725	20963
860.858	20921
860.99	20918
861.123	20815
861.256	20746
861.388	20815
861.521	21599
861.653	20682
861.786	20609
861.918	20560
862.05	20686
862.183	20746
862.315	20682
862.447	20902
862.58	20750
862.712	20609
862.844	20533
862.976	20648
863.108	20549
863.24	20952
863.372	20541
863.504	20469
863.636	20606
863.768	20651
863.9	20488
864.032	20480
864.164	20579
864.296	20583
864.428	20636
864.559	20617
864.691	20659
864.823	20511
864.954	20499
865.086	20530
865.217	20492
865.349	20476
865.48	20476
865.612	20499
865.743	20648
865.875	20484
866.006	20518
866.137	20476
866.269	20495
866.4	20514
866.531	20446
866.662	20419
866.793	20503
866.924	20465
867.055	20446
867.186	20343
867.317	20339
867.448	20313
867.579	20351
867.71	20328
867.841	20259
867.972	20396
868.103	20473
868.233	20320
868.364	20366
868.495	20526
868.625	20598
868.756	20868
868.886	20541
869.017	20552
869.147	20773
869.278	20655
869.408	20689
869.539	20571
869.669	20670
869.799	20754
869.929	20788
870.06	20849
870.19	20868
870.32	20944
870.45	20872
870.58	21009
870.71	21066
870.84	21096
870.97	21104
871.1	21112
871.23	21123
871.36	21230
871.489	21119
871.619	21203
871.749	21096
871.879	21237
872.008	21294
872.138	21226
872.267	21150
872.397	21199
872.526	21081
872.656	20994
872.785	21058
872.915	21249
873.044	21199
873.173	21310
873.303	21272
873.432	21241
873.561	21485
873.69	21291
873.819	21275
873.948	21359
874.077	21367
874.206	21154
874.335	21348
874.464	21302
874.593	21466
874.722	21572
874.851	21606
874.979	21587
875.108	21576
875.237	21447
875.365	21458
875.494	21447
875.623	21583
875.751	21428
875.88	21496
876.008	21671
876.136	21656
876.265	21854
876.393	21968
876.521	21884
876.65	22002
876.778	21972
876.906	21903
877.034	21831
877.162	21755
877.29	21785
877.418	21953
877.546	21873
877.674	21762
877.802	21808
877.93	21964
878.058	21732
878.185	21755
878.313	21880
878.441	21743
878.568	21682
878.696	21899
878.824	22044
878.951	21915
879.079	22044
879.206	22067
879.333	22032
879.461	22017
879.588	21956
879.715	22070
879.842	22029
879.97	21937
880.097	21800
880.224	21736
880.351	21762
880.478	21766
880.605	21667
880.732	21629
880.859	21930
880.986	21808
881.112	21762
881.239	21587
881.366	21412
881.493	21272
881.619	21378
881.746	21344
881.872	21173
881.999	21325
882.125	21207
882.252	21237
882.378	21260
882.505	21336
882.631	21093
882.757	20990
882.883	20998
883.01	21077
883.136	20819
883.262	20762
883.388	20857
883.514	21005
883.64	20933
883.766	20960
883.892	20823
884.018	20868
884.143	20883
884.269	20933
884.395	20689
884.52	20526
884.646	20541
884.772	20594
884.897	20465
885.023	20651
885.148	20727
885.274	20758
885.399	20746
885.524	20609
885.65	20625
885.775	20667
885.9	20583
886.025	20716
886.15	20716
886.275	20579
886.4	20374
886.525	20606
886.65	20541
886.775	20461
886.9	20659
887.025	20792
887.149	20693
887.274	20476
887.399	20275
887.523	20328
887.648	20317
887.773	20191
887.897	20457
888.021	20480
888.146	20366
888.27	20552
888.395	20522
888.519	20408
888.643	20522
888.767	20419
888.891	20324
889.015	20263
889.139	20233
889.263	20142
889.387	20199
889.511	20301
889.635	20259
889.759	20073
889.883	20176
890.006	20107
890.13	20278
890.254	20039
890.377	20214
890.501	19906
890.624	19940
890.748	20005
890.871	19875
890.995	19776
891.118	19811
891.241	19761
891.364	19776
891.488	19791
891.611	19757
891.734	19746
891.857	19871
891.98	19723
892.103	19769
892.226	19799
892.349	19708
892.471	19514
892.594	19715
892.717	19628
892.839	19715
892.962	19799
893.085	19681
893.207	19704
893.33	19628
893.452	19628
893.575	19727
893.697	19780
893.819	19750
893.941	19928
894.064	19837
894.186	19677
894.308	19590
894.43	19784
894.552	19826
894.674	19738
894.796	19639
894.918	19628
895.04	19670
895.161	19685
895.283	19723
895.405	19514
895.526	19734
895.648	19674
895.769	19635
895.891	19700
896.012	19750
896.134	19696
896.255	19769
896.376	19700
896.498	19693
896.619	19700
896.74	19670
896.861	19666
896.982	20176
897.103	20195
897.224	20035
897.345	19997
897.466	19849
897.587	19947
897.708	19997
897.828	20005
897.949	19746
898.07	19799
898.19	19944
898.311	20039
898.431	19883
898.552	19974
898.672	20134
898.792	20031
898.913	20016
899.033	19765
899.153	19826
899.273	19643
899.393	19597
899.513	19700
899.633	19681
899.753	19742
899.873	19594
899.993	19784
900.113	19723
900.232	19727
900.352	19674
900.472	19556
900.591	19377
900.711	19586
900.83	19403
900.95	19556
901.069	19685
901.189	19460
901.308	19198
901.427	19065
901.546	19065
901.665	19069
901.784	19156
901.904	18878
902.023	18901
902.141	18551
902.26	18654
902.379	18688
902.498	18585
902.617	18635
902.735	18688
902.854	18486
902.973	18555
903.091	18277
903.21	18254
903.328	18266
903.446	18171
903.565	18019
903.683	18041
903.801	17946
903.919	17961
904.038	18049
904.156	17767
904.274	17832
904.392	17798
904.51	17809
904.627	17714
904.745	17855
904.863	17771
904.981	17608
905.098	17440
905.216	17512
905.334	17547
905.451	17493
905.569	17471
905.686	17558
905.803	17505
905.921	17356
906.038	17474
906.155	17334
906.272	17189
906.389	17246
906.506	17121
906.623	17033
906.74	17132
906.857	16900
906.974	16949
907.091	17083
907.208	17216
907.324	17025
907.441	16869
907.557	16835
907.674	16839
907.79	16729
907.907	16767
908.023	16759
908.139	16805
908.256	16588
908.372	16641
908.488	16618
908.604	16535
908.72	16390
908.836	16538
908.952	16402
909.068	16531
909.184	16546
909.3	16443
909.415	16535
909.531	16455
909.647	16280
909.762	16124
909.878	16196
909.993	16166
910.108	16078
910.224	16154
910.339	16135
910.454	16059
910.57	15987
910.685	15968
910.8	16150
910.915	16128
911.03	16013
911.145	15892
911.259	15838
911.374	15888
911.489	15724
911.604	15698
911.718	15549
911.833	15511
911.947	15313
912.062	15386
912.176	15580
912.291	15477
912.405	15553
912.519	15625
912.633	15644
912.748	15564
912.862	15496
912.976	15405
913.09	15230
913.204	15298
913.318	15317
913.431	15340
913.545	15428
913.659	15329
913.772	15233
913.886	15321
914	15097
914.113	15294
914.226	15176
914.34	15214
914.453	15108
914.566	15089
914.68	15036
914.793	14929
914.906	14804
915.019	14765
915.132	14830
915.245	14941
915.358	14731
915.47	14754
915.583	14800
915.696	14773
915.809	14853
915.921	14895
916.034	14765
916.146	14701
916.259	14659
916.371	14807
916.483	14758
916.595	14560
916.708	14697
916.82	14636
916.932	14541
917.044	14457
917.156	14556
917.268	14427
917.38	14465
917.491	14473
917.603	14431
917.715	14560
917.826	14461
917.938	14457
918.049	14370
918.161	14358
918.272	14526
918.384	14476
918.495	14393
918.606	14142
918.717	14225
918.828	14248
918.939	14294
919.05	14069
919.161	14123
919.272	14069
919.383	14043
919.494	14317
919.604	14431
919.715	14256
919.826	14107
919.936	14058
920.047	14210
920.157	14187
920.267	14336
920.378	14199
920.488	14134
920.598	14267
920.708	14423
920.818	14370
920.928	14305
921.038	14442
921.148	14427
921.258	14016
921.368	14039
921.477	14035
921.587	13898
921.697	13818
921.806	13997
921.916	13852
922.025	13590
922.134	13537
922.244	13609
922.353	13597
922.462	13460
922.571	13438
922.68	13339
922.789	13179
922.898	13156
923.007	13194
923.116	13149
923.224	13270
923.333	13156
923.442	13065
923.55	13008
923.659	13088
923.767	13149
923.876	13046
923.984	13008
924.092	13019
924.201	12958
924.309	13027
924.417	12901
924.525	12867
924.633	12814
924.741	13868
924.849	12711
924.956	12817
925.064	12665
925.172	12726
925.279	12692
925.387	12703
925.494	12608
925.602	12795
925.709	12741
925.816	12631
925.924	12555
926.031	12673
926.138	12612
926.245	12646
926.352	12517
926.459	12719
926.566	12703
926.673	12658
926.779	12407
926.886	12509
926.993	12327
927.099	12311
927.206	12334
927.312	12178
927.419	12247
927.525	12273
927.631	12213
927.737	12060
927.843	12102
927.95	12019
928.056	12076
928.162	12163
928.267	12144
928.373	12703
928.479	12194
928.585	11901
928.69	12072
928.796	11988
928.901	11973
929.007	11733
929.112	11980
929.218	11897
929.323	11885
929.428	11748
929.533	11897
929.638	11783
929.743	11714
929.848	11805
929.953	11767
930.058	11566
930.163	11467
930.267	11516
930.372	11688
930.477	11417
930.581	11668
930.685	11543
930.79	11440
930.894	11459
930.998	11303
931.103	11516
931.207	11174
931.311	11033
931.415	11014
931.519	10839
931.623	10679
