Data from test_V78500241_1749.txt Node
Date: Fri Mar 25 15:53:55 CST 2022
User: usil
Spectrometer: V785-0024
Trigger mode: 0
Integration Time (sec): 4.000000E-1
Scans to average: 1
Nonlinearity correction enabled: false
Boxcar width: 0
Storing dark spectrum: false
XAxis mode: Wavelengths
Number of Pixels in Spectrum: 1024
>>>>>Begin Spectral Data<<<<<
801.071	28588
801.214	28542
801.356	28284
801.499	28192
801.641	28215
801.783	28128
801.926	28139
802.068	28128
802.211	28078
802.353	28040
802.496	27800
802.638	27861
802.78	27724
802.923	27766
803.065	27679
803.208	27793
803.35	27831
803.492	28048
803.635	28032
803.777	28059
803.919	28017
804.061	28401
804.204	27998
804.346	28029
804.488	28082
804.63	28032
804.773	27949
804.915	28040
805.057	28219
805.199	28032
805.341	28025
805.483	28249
805.626	28310
805.768	28226
805.91	28325
806.052	28246
806.194	28287
806.336	28424
806.478	28147
806.62	28272
806.762	28386
806.904	28538
807.046	28767
807.188	28538
807.33	28622
807.472	28782
807.614	28531
807.756	28717
807.898	28478
808.04	28542
808.182	28603
808.324	28561
808.465	28561
808.607	28698
808.749	28995
808.891	28949
809.033	29083
809.174	28972
809.316	28915
809.458	28843
809.6	28839
809.741	29037
809.883	28987
810.025	29185
810.166	29197
810.308	29140
810.45	29147
810.591	29086
810.733	29029
810.875	28942
811.016	28691
811.158	28771
811.299	28919
811.441	29056
811.582	29064
811.724	28892
811.865	28896
812.007	28999
812.148	28733
812.29	28949
812.431	29136
812.573	29231
812.714	29402
812.855	29345
812.997	29467
813.138	29653
813.279	29661
813.421	29467
813.562	29375
813.703	29022
813.845	29277
813.986	28892
814.127	28767
814.268	28584
814.41	28504
814.551	28542
814.692	28687
814.833	28656
814.974	28607
815.115	28584
815.256	28523
815.397	28599
815.539	28618
815.68	28447
815.821	28367
815.962	28424
816.103	28409
816.244	28341
816.385	28204
816.526	28200
816.666	28055
816.807	27880
816.948	27949
817.089	27899
817.23	27949
817.371	27934
817.512	27953
817.653	27876
817.793	27831
817.934	27895
818.075	27873
818.216	27854
818.356	27812
818.497	27873
818.638	27622
818.778	27766
818.919	27667
819.06	27595
819.2	27800
819.341	27953
819.481	28006
819.622	28021
819.762	28143
819.903	28059
820.043	28105
820.184	28036
820.324	28135
820.465	28166
820.605	28025
820.746	28097
820.886	27876
821.026	27983
821.167	27956
821.307	28063
821.447	27949
821.588	27808
821.728	27690
821.868	27599
822.008	27454
822.149	27405
822.289	27443
822.429	27154
822.569	27024
822.709	27165
822.849	26960
822.99	27062
823.13	26940
823.27	26804
823.41	26792
823.55	26701
823.69	26857
823.83	26701
823.97	26720
824.11	26370
824.25	26469
824.389	26598
824.529	26507
824.669	26469
824.809	26667
824.949	26648
825.089	26697
825.228	26640
825.368	26377
825.508	26328
825.648	26590
825.787	26488
825.927	26427
826.067	26351
826.206	26339
826.346	26343
826.485	26495
826.625	26362
826.765	26434
826.904	26442
827.044	26282
827.183	26149
827.323	26111
827.462	26134
827.601	26130
827.741	26122
827.88	26267
828.02	26134
828.159	26096
828.298	26073
828.437	26240
828.577	26115
828.716	26263
828.855	26084
828.994	25894
829.134	25750
829.273	25875
829.412	25875
829.551	25788
829.69	25776
829.829	25772
829.968	25959
830.107	25906
830.246	25814
830.385	25784
830.524	25780
830.663	25590
830.802	25559
830.941	25365
831.08	25464
831.219	25533
831.357	25552
831.496	25552
831.635	25495
831.774	25373
831.913	25251
832.051	25202
832.19	25236
832.329	25373
832.467	25179
832.606	25046
832.744	25061
832.883	25053
833.022	25091
833.16	25008
833.299	25148
833.437	25152
833.576	25190
833.714	25190
833.852	25129
833.991	25137
834.129	25282
834.267	25278
834.406	25179
834.544	25171
834.682	25152
834.821	25107
834.959	25278
835.097	25088
835.235	25198
835.373	25171
835.511	25133
835.65	24970
835.788	25095
835.926	24973
836.064	24787
836.202	24951
836.34	25031
836.478	25084
836.615	25042
836.753	25019
836.891	24924
837.029	25095
837.167	24840
837.305	24821
837.443	24901
837.58	24779
837.718	24924
837.856	24722
837.993	24829
838.131	24802
838.269	24810
838.406	24814
838.544	24608
838.681	24471
838.819	24346
838.956	24304
839.094	24247
839.231	24407
839.369	24582
839.506	24833
839.643	24593
839.781	24277
839.918	24159
840.055	24300
840.193	24216
840.33	24041
840.467	24140
840.604	24201
840.742	24403
840.879	24110
841.016	24114
841.153	24091
841.29	24228
841.427	24209
841.564	24133
841.701	24167
841.838	24133
841.975	24117
842.112	24053
842.249	23961
842.385	23920
842.522	24167
842.659	24144
842.796	23904
842.933	23961
843.069	23874
843.206	23805
843.343	24038
843.479	23912
843.616	23832
843.752	23741
843.889	23821
844.025	23821
844.162	23752
844.298	23859
844.435	23676
844.571	23634
844.708	23733
844.844	23897
844.98	23863
845.117	23790
845.253	23604
845.389	23619
845.525	23497
845.661	23581
845.798	23455
845.934	23528
846.07	23501
846.206	23497
846.342	23627
846.478	23444
846.614	23170
846.75	23086
846.886	23166
847.022	23322
847.158	23254
847.294	23288
847.429	23246
847.565	23220
847.701	23459
847.837	22881
847.972	22896
848.108	22919
848.244	23033
848.379	22805
848.515	22622
848.65	22698
848.786	22706
848.921	22683
849.057	22873
849.192	22782
849.328	22835
849.463	22892
849.598	22649
849.734	22713
849.869	22538
850.004	22554
850.14	22493
850.275	22531
850.41	22417
850.545	22474
850.68	22466
850.815	22512
850.95	22440
851.085	22675
851.22	22622
851.355	22504
851.49	22432
851.625	22493
851.76	22596
851.895	22459
852.03	22375
852.165	22542
852.299	22550
852.434	22660
852.569	22527
852.703	22485
852.838	22474
852.973	22683
853.107	22596
853.242	22451
853.376	22386
853.511	22306
853.645	22169
853.78	22500
853.914	22253
854.048	22325
854.183	22386
854.317	22375
854.451	22596
854.585	22360
854.72	22291
854.854	22421
854.988	22265
855.122	22417
855.256	22158
855.39	22421
855.524	22375
855.658	22398
855.792	22337
855.926	22337
856.06	22341
856.194	22443
856.327	22363
856.461	22341
856.595	22314
856.729	22303
856.862	22466
856.996	22485
857.13	22382
857.263	22512
857.397	22257
857.53	22356
857.664	22295
857.797	22367
857.931	22485
858.064	22363
858.197	22500
858.331	22405
858.464	22265
858.597	22055
858.731	22291
858.864	22272
858.997	22325
859.13	22371
859.263	22367
859.396	22493
859.529	22409
859.662	22341
859.795	22261
859.928	22314
860.061	22462
860.194	22443
860.327	22432
860.46	22310
860.592	22500
860.725	22462
860.858	22603
860.99	22386
861.123	22272
861.256	22341
861.388	22356
861.521	23132
861.653	22272
861.786	22090
861.918	22090
862.05	22219
862.183	22303
862.315	22196
862.447	22287
862.58	22234
862.712	22051
862.844	21960
862.976	22230
863.108	22124
863.24	22424
863.372	22017
863.504	22109
863.636	22082
863.768	21994
863.9	22090
864.032	21964
864.164	21994
864.296	22120
864.428	22147
864.559	22017
864.691	22154
864.823	22067
864.954	21994
865.086	22051
865.217	21964
865.349	22006
865.48	22010
865.612	21979
865.743	22112
865.875	21911
866.006	21873
866.137	21964
866.269	21937
866.4	21876
866.531	21774
866.662	21854
866.793	21892
866.924	21930
867.055	21876
867.186	21915
867.317	21637
867.448	21781
867.579	21751
867.71	21724
867.841	21816
867.972	21941
868.103	21789
868.233	21880
868.364	21759
868.495	21918
868.625	22188
868.756	22093
868.886	22090
869.017	22051
869.147	22173
869.278	22246
869.408	22188
869.539	22147
869.669	22204
869.799	22158
869.929	22169
870.06	22211
870.19	22337
870.32	22337
870.45	22432
870.58	22440
870.71	22607
870.84	22557
870.97	22421
871.1	22363
871.23	22668
871.36	22687
871.489	22603
871.619	22664
871.749	22706
871.879	22767
872.008	22835
872.138	22736
872.267	22580
872.397	22512
872.526	22500
872.656	22596
872.785	22523
872.915	22805
873.044	22889
873.173	22683
873.303	22839
873.432	22858
873.561	22767
873.69	22649
873.819	22645
873.948	22801
874.077	22736
874.206	22729
874.335	22630
874.464	22801
874.593	22953
874.722	22923
874.851	22961
874.979	22930
875.108	23094
875.237	22885
875.365	22915
875.494	22930
875.623	23102
875.751	22854
875.88	23029
876.008	23067
876.136	23143
876.265	23200
876.393	23425
876.521	23299
876.65	23387
876.778	23360
876.906	23303
877.034	23193
877.162	23318
877.29	23181
877.418	23227
877.546	23284
877.674	23261
877.802	23318
877.93	23315
878.058	23193
878.185	23117
878.313	23159
878.441	23178
878.568	23128
878.696	23318
878.824	23353
878.951	23299
879.079	23284
879.206	23547
879.333	23471
879.461	23208
879.588	23353
879.715	23299
879.842	23516
879.97	23311
880.097	23162
880.224	23147
880.351	23212
880.478	23143
880.605	23041
880.732	23006
880.859	23231
880.986	23117
881.112	23075
881.239	22957
881.366	22850
881.493	22831
881.619	22592
881.746	22679
881.872	22713
881.999	22740
882.125	22447
882.252	22634
882.378	22615
882.505	22763
882.631	22523
882.757	22268
882.883	22440
883.01	22329
883.136	22310
883.262	22192
883.388	22093
883.514	22295
883.64	22405
883.766	22295
883.892	22040
884.018	22147
884.143	22295
884.269	22344
884.395	22086
884.52	22051
884.646	22029
884.772	22021
884.897	21835
885.023	21960
885.148	21987
885.274	22093
885.399	22139
885.524	21884
885.65	22010
885.775	21972
885.9	21915
886.025	21968
886.15	22010
886.275	21850
886.4	21846
886.525	22006
886.65	21880
886.775	21888
886.9	21953
887.025	22070
887.149	21953
887.274	21816
887.399	21679
887.523	21675
887.648	21793
887.773	21625
887.897	21869
888.021	21800
888.146	21641
888.27	21930
888.395	21865
888.519	21736
888.643	21736
888.767	21625
888.891	21523
889.015	21523
889.139	21644
889.263	21454
889.387	21610
889.511	21633
889.635	21576
889.759	21477
889.883	21500
890.006	21469
890.13	21564
890.254	21496
890.377	21473
890.501	21256
890.624	21089
890.748	21310
890.871	21096
890.995	21009
891.118	21013
891.241	21085
891.364	21051
891.488	21138
891.611	21066
891.734	21055
891.857	21028
891.98	20967
892.103	20990
892.226	20967
892.349	21051
892.471	20899
892.594	21066
892.717	21020
892.839	20933
892.962	20914
893.085	20986
893.207	20956
893.33	20830
893.452	20944
893.575	21058
893.697	20876
893.819	21089
893.941	21100
894.064	21127
894.186	20971
894.308	20861
894.43	20986
894.552	21020
894.674	21062
894.796	20807
894.918	20952
895.04	20887
895.161	20849
895.283	20948
895.405	20724
895.526	20963
895.648	20804
895.769	20994
895.891	21005
896.012	21066
896.134	20899
896.255	20990
896.376	20861
896.498	20902
896.619	21028
896.74	20910
896.861	20925
896.982	21279
897.103	21329
897.224	21245
897.345	21173
897.466	21055
897.587	21142
897.708	21329
897.828	21188
897.949	20944
898.07	20960
898.19	21036
898.311	21241
898.431	21161
898.552	21066
898.672	21150
898.792	21131
898.913	21066
899.033	21081
899.153	20933
899.273	20914
899.393	20758
899.513	20830
899.633	20876
899.753	21017
899.873	20682
899.993	20914
900.113	20800
900.232	20853
900.352	20731
900.472	20781
900.591	20651
900.711	20606
900.83	20609
900.95	20594
901.069	20743
901.189	20537
901.308	20206
901.427	20130
901.546	20233
901.665	20149
901.784	20256
901.904	20107
902.023	20058
902.141	19784
902.26	19776
902.379	19871
902.498	19746
902.617	19681
902.735	19689
902.854	19666
902.973	19616
903.091	19388
903.21	19339
903.328	19411
903.446	19274
903.565	19126
903.683	19179
903.801	19091
903.919	19088
904.038	19065
904.156	18943
904.274	19057
904.392	19008
904.51	18947
904.627	18981
904.745	18901
904.863	18970
904.981	18692
905.098	18700
905.216	18753
905.334	18551
905.451	18623
905.569	18608
905.686	18635
905.803	18555
905.921	18388
906.038	18525
906.155	18433
906.272	18315
906.389	18319
906.506	18125
906.623	18197
906.74	18174
906.857	18003
906.974	18079
907.091	18235
907.208	18224
907.324	18239
907.441	18163
907.557	17908
907.674	17885
907.79	17756
907.907	17821
908.023	17942
908.139	17878
908.256	17790
908.372	17760
908.488	17707
908.604	17539
908.72	17589
908.836	17551
908.952	17455
909.068	17436
909.184	17676
909.3	17543
909.415	17596
909.531	17581
909.647	17212
909.762	17334
909.878	17193
909.993	17197
910.108	17155
910.224	17155
910.339	17121
910.454	17083
910.57	17022
910.685	17079
910.8	17273
910.915	17212
911.03	17083
911.145	16854
911.259	16793
911.374	16862
911.489	16755
911.604	16679
911.718	16573
911.833	16660
911.947	16462
912.062	16516
912.176	16558
912.291	16550
912.405	16546
912.519	16588
912.633	16797
912.748	16672
912.862	16538
912.976	16497
913.09	16238
913.204	16329
913.318	16360
913.431	16417
913.545	16459
913.659	16527
913.772	16287
913.886	16234
914	16105
914.113	16402
914.226	16246
914.34	16207
914.453	15994
914.566	16204
914.68	16036
914.793	15983
914.906	15876
915.019	15770
915.132	15686
915.245	15732
915.358	15793
915.47	15823
915.583	15739
915.696	15759
915.809	15918
915.921	15861
916.034	15648
916.146	15739
916.259	15557
916.371	15789
916.483	15663
916.595	15622
916.708	15633
916.82	15530
916.932	15542
917.044	15500
917.156	15424
917.268	15370
917.38	15431
917.491	15230
917.603	15329
917.715	15359
917.826	15424
917.938	15340
918.049	15195
918.161	15408
918.272	15504
918.384	15363
918.495	15424
918.606	15146
918.717	15146
918.828	15131
918.939	15192
919.05	15017
919.161	15157
919.272	14948
919.383	14849
919.494	15169
919.604	15211
919.715	15047
919.826	14956
919.936	15028
920.047	15108
920.157	15116
920.267	15154
920.378	15070
920.488	15024
920.598	15241
920.708	15374
920.818	15180
920.928	15131
921.038	15367
921.148	15275
921.258	15032
921.368	14910
921.477	14819
921.587	14807
921.697	14735
921.806	14823
921.916	14613
922.025	14571
922.134	14415
922.244	14381
922.353	14457
922.462	14278
922.571	14317
922.68	14058
922.789	14024
922.898	14027
923.007	13970
923.116	14164
923.224	14027
923.333	13963
923.442	13864
923.55	13826
923.659	13887
923.767	13959
923.876	13925
923.984	13795
924.092	13731
924.201	13852
924.309	13723
924.417	13822
924.525	13746
924.633	13757
924.741	14454
924.849	13449
924.956	13674
925.064	13533
925.172	13460
925.279	13434
925.387	13563
925.494	13537
925.602	13616
925.709	13521
925.816	13388
925.924	13434
926.031	13491
926.138	13434
926.245	13472
926.352	13240
926.459	13407
926.566	13373
926.673	13335
926.779	13232
926.886	13114
926.993	13069
927.099	13072
927.206	12928
927.312	13019
927.419	12996
927.525	13027
927.631	13027
927.737	12863
927.843	12901
927.95	12741
928.056	12768
928.162	12848
928.267	12882
928.373	13525
928.479	12875
928.585	12673
928.69	12722
928.796	12817
928.901	12684
929.007	12585
929.112	12707
929.218	12658
929.323	12566
929.428	12509
929.533	12696
929.638	12433
929.743	12422
929.848	12589
929.953	12414
930.058	12391
930.163	12273
930.267	12159
930.372	12388
930.477	12155
930.581	12330
930.685	12296
930.79	12045
930.894	12133
930.998	12102
931.103	12190
931.207	11851
931.311	11786
931.415	11623
931.519	11535
931.623	11425
