Data from test_V78500241_408.txt Node
Date: Fri Mar 25 15:44:37 CST 2022
User: usil
Spectrometer: V785-0024
Trigger mode: 0
Integration Time (sec): 4.000000E-1
Scans to average: 1
Nonlinearity correction enabled: false
Boxcar width: 0
Storing dark spectrum: false
XAxis mode: Wavelengths
Number of Pixels in Spectrum: 1024
>>>>>Begin Spectral Data<<<<<
801.071	28797
801.214	28729
801.356	28523
801.499	28428
801.641	28440
801.783	28276
801.926	28531
802.068	28352
802.211	28310
802.353	28352
802.496	28249
802.638	28025
802.78	28128
802.923	28063
803.065	27934
803.208	28169
803.35	28067
803.492	28128
803.635	28185
803.777	28070
803.919	28139
804.061	28561
804.204	28348
804.346	28074
804.488	28246
804.63	28230
804.773	28158
804.915	28249
805.057	28318
805.199	27998
805.341	28150
805.483	28367
805.626	28147
805.768	28242
805.91	28257
806.052	28375
806.194	28272
806.336	28550
806.478	28234
806.62	28238
806.762	28421
806.904	28672
807.046	28816
807.188	28752
807.33	28778
807.472	28858
807.614	28626
807.756	28725
807.898	28660
808.04	28474
808.182	28508
808.324	28683
808.465	28577
808.607	28881
808.749	28828
808.891	28972
809.033	29189
809.174	28965
809.316	29010
809.458	28995
809.6	28927
809.741	29193
809.883	29090
810.025	29356
810.166	29292
810.308	29113
810.45	29330
810.591	29239
810.733	29037
810.875	29022
811.016	28915
811.158	28809
811.299	29048
811.441	29208
811.582	29056
811.724	28919
811.865	28888
812.007	28767
812.148	28961
812.29	28965
812.431	29166
812.573	29395
812.714	29474
812.855	29455
812.997	29608
813.138	29615
813.279	29653
813.421	29452
813.562	29417
813.703	29181
813.845	29189
813.986	28847
814.127	28656
814.268	28744
814.41	28626
814.551	28603
814.692	28736
814.833	28516
814.974	28493
815.115	28702
815.256	28440
815.397	28451
815.539	28466
815.68	28523
815.821	28310
815.962	28466
816.103	28390
816.244	28223
816.385	28150
816.526	28029
816.666	28188
816.807	27861
816.948	27899
817.089	28055
817.23	27975
817.371	27869
817.512	27755
817.653	27774
817.793	27808
817.934	27842
818.075	27914
818.216	27846
818.356	27751
818.497	27648
818.638	27736
818.778	27462
818.919	27663
819.06	27587
819.2	27686
819.341	27785
819.481	27778
819.622	27975
819.762	28188
819.903	28139
820.043	28006
820.184	27857
820.324	27956
820.465	27960
820.605	27846
820.746	27854
820.886	27884
821.026	27800
821.167	27751
821.307	27964
821.447	27827
821.588	27774
821.728	27576
821.868	27515
822.008	27393
822.149	27165
822.289	27093
822.429	26880
822.569	26838
822.709	26921
822.849	26906
822.99	26674
823.13	26659
823.27	26716
823.41	26476
823.55	26377
823.69	26598
823.83	26438
823.97	26564
824.11	26370
824.25	26404
824.389	26381
824.529	26469
824.669	26389
824.809	26522
824.949	26484
825.089	26419
825.228	26370
825.368	26176
825.508	26100
825.648	26244
825.787	26248
825.927	26252
826.067	26244
826.206	26157
826.346	26233
826.485	26183
826.625	26233
826.765	26278
826.904	26199
827.044	25940
827.183	25951
827.323	25970
827.462	25898
827.601	25898
827.741	25875
827.88	25814
828.02	25769
828.159	25818
828.298	25841
828.437	25871
828.577	25738
828.716	25917
828.855	25951
828.994	25689
829.134	25575
829.273	25552
829.412	25559
829.551	25544
829.69	25540
829.829	25693
829.968	25677
830.107	25685
830.246	25704
830.385	25639
830.524	25422
830.663	25495
830.802	25190
830.941	25126
831.08	25088
831.219	25247
831.357	25346
831.496	25472
831.635	25221
831.774	25027
831.913	25004
832.051	24951
832.19	24821
832.329	24901
832.467	24829
832.606	24817
832.744	24741
832.883	24829
833.022	24848
833.16	24677
833.299	24738
833.437	24905
833.576	25072
833.714	24859
833.852	24973
833.991	24882
834.129	24992
834.267	24871
834.406	24810
834.544	24844
834.682	24894
834.821	24856
834.959	24973
835.097	24707
835.235	24795
835.373	24738
835.511	24844
835.65	24741
835.788	24650
835.926	24536
836.064	24479
836.202	24471
836.34	24582
836.478	24760
836.615	24505
836.753	24616
836.891	24741
837.029	24715
837.167	24593
837.305	24570
837.443	24639
837.58	24452
837.718	24467
837.856	24547
837.993	24391
838.131	24365
838.269	24330
838.406	24323
838.544	24182
838.681	24148
838.819	24117
838.956	23866
839.094	23832
839.231	24133
839.369	24041
839.506	24243
839.643	24007
839.781	23977
839.918	23840
840.055	23878
840.193	23843
840.33	23843
840.467	23775
840.604	23870
840.742	24045
840.879	23764
841.016	23691
841.153	23756
841.29	23863
841.427	23855
841.564	23882
841.701	23760
841.838	23855
841.975	23714
842.112	23642
842.249	23714
842.385	23440
842.522	23836
842.659	23741
842.796	23558
842.933	23646
843.069	23452
843.206	23425
843.343	23623
843.479	23570
843.616	23531
843.752	23493
843.889	23227
844.025	23452
844.162	23220
844.298	23360
844.435	23269
844.571	23174
844.708	23155
844.844	23467
844.98	23425
845.117	23436
845.253	23246
845.389	23269
845.525	23223
845.661	23246
845.798	22942
845.934	23006
846.07	22976
846.206	23056
846.342	23086
846.478	23067
846.614	22820
846.75	22733
846.886	22603
847.022	22782
847.158	22683
847.294	22774
847.429	22733
847.565	22656
847.701	22961
847.837	22569
847.972	22440
848.108	22554
848.244	22512
848.379	22363
848.515	22303
848.65	22409
848.786	22303
848.921	22341
849.057	22398
849.192	22417
849.328	22295
849.463	22268
849.598	22230
849.734	22154
849.869	22055
850.004	22025
850.14	22070
850.275	22029
850.41	21975
850.545	22010
850.68	21998
850.815	22154
850.95	22124
851.085	22192
851.22	22162
851.355	22040
851.49	22070
851.625	21949
851.76	21987
851.895	21964
852.03	22040
852.165	21994
852.299	22067
852.434	22093
852.569	22086
852.703	22067
852.838	22074
852.973	22166
853.107	22185
853.242	21827
853.376	21850
853.511	21759
853.645	21762
853.78	21895
853.914	21808
854.048	21808
854.183	22013
854.317	21808
854.451	22021
854.585	21808
854.72	21797
854.854	21823
854.988	21755
855.122	21850
855.256	21663
855.39	21610
855.524	21975
855.658	21724
855.792	21930
855.926	21823
856.06	21812
856.194	21838
856.327	21838
856.461	21770
856.595	21823
856.729	21751
856.862	21926
856.996	21895
857.13	21873
857.263	21854
857.397	21953
857.53	21884
857.664	21861
857.797	21835
857.931	21964
858.064	21895
858.197	21884
858.331	21747
858.464	21770
858.597	21610
858.731	21736
858.864	21743
858.997	21743
859.13	21759
859.263	21827
859.396	21850
859.529	21854
859.662	21717
859.795	21720
859.928	21819
860.061	21827
860.194	22021
860.327	21949
860.46	21865
860.592	21854
860.725	21968
860.858	21983
860.99	21884
861.123	21728
861.256	21747
861.388	21778
861.521	22417
861.653	21622
861.786	21572
861.918	21576
862.05	21717
862.183	21629
862.315	21831
862.447	21899
862.58	21774
862.712	21587
862.844	21553
862.976	21629
863.108	21553
863.24	21972
863.372	21351
863.504	21412
863.636	21443
863.768	21553
863.9	21496
864.032	21507
864.164	21420
864.296	21439
864.428	21572
864.559	21549
864.691	21526
864.823	21443
864.954	21477
865.086	21583
865.217	21443
865.349	21412
865.48	21401
865.612	21332
865.743	21572
865.875	21310
866.006	21264
866.137	21412
866.269	21283
866.4	21302
866.531	21317
866.662	21275
866.793	21195
866.924	21317
867.055	21370
867.186	21287
867.317	21237
867.448	21150
867.579	21249
867.71	21173
867.841	21332
867.972	21359
868.103	21332
868.233	21332
868.364	21336
868.495	21302
868.625	21469
868.756	21599
868.886	21431
869.017	21454
869.147	21686
869.278	21538
869.408	21500
869.539	21447
869.669	21618
869.799	21606
869.929	21583
870.06	21625
870.19	21888
870.32	21846
870.45	21884
870.58	21930
870.71	21956
870.84	22067
870.97	21922
871.1	21922
871.23	22097
871.36	22169
871.489	22051
871.619	22135
871.749	22128
871.879	22162
872.008	22295
872.138	22078
872.267	21983
872.397	21888
872.526	21964
872.656	21945
872.785	21991
872.915	22059
873.044	22219
873.173	22166
873.303	22219
873.432	22109
873.561	22268
873.69	22318
873.819	22090
873.948	22291
874.077	22185
874.206	22116
874.335	22147
874.464	22196
874.593	22443
874.722	22344
874.851	22371
874.979	22459
875.108	22375
875.237	22325
875.365	22303
875.494	22322
875.623	22394
875.751	22348
875.88	22295
876.008	22493
876.136	22516
876.265	22797
876.393	22850
876.521	22816
876.65	22759
876.778	22752
876.906	22729
877.034	22679
877.162	22752
877.29	22645
877.418	22733
877.546	22877
877.674	22767
877.802	22721
877.93	22664
878.058	22592
878.185	22618
878.313	22622
878.441	22615
878.568	22554
878.696	22672
878.824	22812
878.951	22801
879.079	22938
879.206	22957
879.333	22908
879.461	22721
879.588	22881
879.715	22824
879.842	22976
879.97	22763
880.097	22599
880.224	22474
880.351	22474
880.478	22516
880.605	22409
880.732	22360
880.859	22706
880.986	22615
881.112	22500
881.239	22371
881.366	22150
881.493	22139
881.619	22147
881.746	22116
881.872	22074
881.999	22051
882.125	22017
882.252	22101
882.378	22032
882.505	22192
882.631	22021
882.757	21762
882.883	21937
883.01	21762
883.136	21686
883.262	21637
883.388	21652
883.514	21819
883.64	21888
883.766	21800
883.892	21610
884.018	21458
884.143	21641
884.269	21865
884.395	21458
884.52	21458
884.646	21507
884.772	21332
884.897	21428
885.023	21443
885.148	21534
885.274	21587
885.399	21428
885.524	21378
885.65	21488
885.775	21466
885.9	21378
886.025	21538
886.15	21466
886.275	21420
886.4	21222
886.525	21367
886.65	21382
886.775	21462
886.9	21538
887.025	21709
887.149	21374
887.274	21233
887.399	21074
887.523	21157
887.648	21081
887.773	21066
887.897	21351
888.021	21344
888.146	21093
888.27	21340
888.395	21382
888.519	21230
888.643	21203
888.767	21188
888.891	21058
889.015	21085
889.139	20986
889.263	20982
889.387	21127
889.511	21188
889.635	21138
889.759	21005
889.883	20941
890.006	21020
890.13	21058
890.254	20864
890.377	20857
890.501	20899
890.624	20617
890.748	20735
890.871	20727
890.995	20568
891.118	20454
891.241	20564
891.364	20587
891.488	20750
891.611	20530
891.734	20499
891.857	20621
891.98	20541
892.103	20632
892.226	20526
892.349	20385
892.471	20317
892.594	20438
892.717	20571
892.839	20427
892.962	20503
893.085	20488
893.207	20423
893.33	20328
893.452	20396
893.575	20476
893.697	20366
893.819	20541
893.941	20526
894.064	20537
894.186	20259
894.308	20400
894.43	20476
894.552	20602
894.674	20530
894.796	20343
894.918	20499
895.04	20370
895.161	20423
895.283	20514
895.405	20389
895.526	20427
895.648	20434
895.769	20442
895.891	20408
896.012	20450
896.134	20583
896.255	20461
896.376	20480
896.498	20518
896.619	20446
896.74	20412
896.861	20518
896.982	20773
897.103	20933
897.224	20800
897.345	20689
897.466	20716
897.587	20629
897.708	20853
897.828	20750
897.949	20670
898.07	20484
898.19	20568
898.311	20739
898.431	20583
898.552	20686
898.672	20769
898.792	20705
898.913	20705
899.033	20419
899.153	20465
899.273	20244
899.393	20313
899.513	20400
899.633	20381
899.753	20267
899.873	20374
899.993	20389
900.113	20313
900.232	20393
900.352	20248
900.472	20142
900.591	20199
900.711	20180
900.83	20122
900.95	20259
901.069	20374
901.189	20054
901.308	19860
901.427	19753
901.546	19750
901.665	19845
901.784	19837
901.904	19632
902.023	19651
902.141	19327
902.26	19289
902.379	19453
902.498	19274
902.617	19179
902.735	19346
902.854	19312
902.973	19114
903.091	18924
903.21	18852
903.328	19004
903.446	18878
903.565	18635
903.683	18749
903.801	18635
903.919	18540
904.038	18616
904.156	18528
904.274	18551
904.392	18448
904.51	18448
904.627	18334
904.745	18578
904.863	18498
904.981	18292
905.098	18228
905.216	18095
905.334	18064
905.451	18216
905.569	18068
905.686	18152
905.803	18125
905.921	17939
906.038	17965
906.155	17878
906.272	17813
906.389	17657
906.506	17657
906.623	17707
906.74	17577
906.857	17634
906.974	17562
907.091	17733
907.208	17737
907.324	17619
907.441	17486
907.557	17372
907.674	17455
907.79	17307
907.907	17353
908.023	17406
908.139	17364
908.256	17391
908.372	17303
908.488	17288
908.604	17124
908.72	17022
908.836	17102
908.952	16980
909.068	17067
909.184	17185
909.3	17048
909.415	17041
909.531	17075
909.647	16877
909.762	16748
909.878	16713
909.993	16805
910.108	16759
910.224	16683
910.339	16694
910.454	16710
910.57	16512
910.685	16626
910.8	16733
910.915	16702
911.03	16538
911.145	16394
911.259	16238
911.374	16363
911.489	16257
911.604	16143
911.718	15937
911.833	16143
911.947	15983
912.062	16071
912.176	16101
912.291	16120
912.405	16067
912.519	16215
912.633	16291
912.748	16166
912.862	16044
912.976	15873
913.09	15781
913.204	15831
913.318	15899
913.431	15979
913.545	15953
913.659	15991
913.772	15732
913.886	15781
914	15652
914.113	15720
914.226	15766
914.34	15720
914.453	15584
914.566	15637
914.68	15595
914.793	15667
914.906	15287
915.019	15252
915.132	15222
915.245	15283
915.358	15355
915.47	15264
915.583	15348
915.696	15230
915.809	15401
915.921	15443
916.034	15192
916.146	15275
916.259	15188
916.371	15317
916.483	15203
916.595	15070
916.708	15017
916.82	15081
916.932	15157
917.044	15127
917.156	14986
917.268	14998
917.38	15070
917.491	14982
917.603	14785
917.715	14944
917.826	15047
917.938	15001
918.049	14746
918.161	14845
918.272	14982
918.384	14967
918.495	14914
918.606	14750
918.717	14731
918.828	14682
918.939	14617
919.05	14571
919.161	14621
919.272	14499
919.383	14522
919.494	14648
919.604	14845
919.715	14625
919.826	14598
919.936	14545
920.047	14727
920.157	14674
920.267	14876
920.378	14659
920.488	14594
920.598	14830
920.708	14948
920.818	14777
920.928	14648
921.038	14998
921.148	14883
921.258	14621
921.368	14461
921.477	14503
921.587	14301
921.697	14275
921.806	14244
921.916	14282
922.025	14065
922.134	13970
922.244	13928
922.353	14035
922.462	13887
922.571	13811
922.68	13693
922.789	13628
922.898	13567
923.007	13521
923.116	13609
923.224	13586
923.333	13533
923.442	13457
923.55	13460
923.659	13468
923.767	13575
923.876	13400
923.984	13434
924.092	13331
924.201	13377
924.309	13362
924.417	13308
924.525	13419
924.633	13335
924.741	14020
924.849	13122
924.956	13247
925.064	13168
925.172	12973
925.279	13042
925.387	13012
925.494	13000
925.602	13202
925.709	13080
925.816	12916
925.924	13038
926.031	13099
926.138	13000
926.245	13023
926.352	12932
926.459	12996
926.566	13072
926.673	12840
926.779	12726
926.886	12779
926.993	12692
927.099	12536
927.206	12589
927.312	12521
927.419	12715
927.525	12582
927.631	12559
927.737	12464
927.843	12509
927.95	12372
928.056	12372
928.162	12369
928.267	12437
928.373	13050
928.479	12498
928.585	12365
928.69	12380
928.796	12429
928.901	12273
929.007	12110
929.112	12235
929.218	12186
929.323	12167
929.428	12083
929.533	12213
929.638	12102
929.743	12087
929.848	12106
929.953	12144
930.058	11942
930.163	11889
930.267	11836
930.372	12003
930.477	11843
930.581	11988
930.685	11893
930.79	11684
930.894	11726
930.998	11707
931.103	11779
931.207	11482
931.311	11467
931.415	11326
931.519	11113
931.623	10995
