Data from test_V78500241_2323.txt Node
Date: Fri Mar 25 15:57:53 CST 2022
User: usil
Spectrometer: V785-0024
Trigger mode: 0
Integration Time (sec): 4.000000E-1
Scans to average: 1
Nonlinearity correction enabled: false
Boxcar width: 0
Storing dark spectrum: false
XAxis mode: Wavelengths
Number of Pixels in Spectrum: 1024
>>>>>Begin Spectral Data<<<<<
801.071	28831
801.214	28812
801.356	28607
801.499	28569
801.641	28561
801.783	28348
801.926	28481
802.068	28577
802.211	28451
802.353	28424
802.496	28265
802.638	28265
802.78	28048
802.923	28097
803.065	27998
803.208	28150
803.35	28185
803.492	28261
803.635	28360
803.777	28162
803.919	28440
804.061	28755
804.204	28424
804.346	28455
804.488	28287
804.63	28398
804.773	28409
804.915	28470
805.057	28546
805.199	28478
805.341	28459
805.483	28592
805.626	28523
805.768	28485
805.91	28588
806.052	28546
806.194	28535
806.336	28721
806.478	28474
806.62	28615
806.762	28752
806.904	28835
807.046	29212
807.188	29052
807.33	29105
807.472	29041
807.614	28915
807.756	28904
807.898	28900
808.04	28911
808.182	28877
808.324	28927
808.465	28911
808.607	29052
808.749	29250
808.891	29360
809.033	29440
809.174	29284
809.316	29307
809.458	29220
809.6	29208
809.741	29345
809.883	29349
810.025	29604
810.166	29623
810.308	29551
810.45	29478
810.591	29604
810.733	29322
810.875	29379
811.016	29383
811.158	29227
811.299	29490
811.441	29501
811.582	29535
811.724	29299
811.865	29402
812.007	29311
812.148	29235
812.29	29284
812.431	29551
812.573	29817
812.714	29862
812.855	29866
812.997	29824
813.138	30144
813.279	29824
813.421	29965
813.562	29882
813.703	29562
813.845	29452
813.986	29292
814.127	29124
814.268	29022
814.41	29117
814.551	29060
814.692	29193
814.833	28900
814.974	28991
815.115	29041
815.256	28953
815.397	28843
815.539	28991
815.68	28786
815.821	28691
815.962	28839
816.103	28828
816.244	28755
816.385	28774
816.526	28584
816.666	28504
816.807	28371
816.948	28284
817.089	28451
817.23	28432
817.371	28432
817.512	28493
817.653	28268
817.793	28303
817.934	28291
818.075	28401
818.216	28447
818.356	28211
818.497	28135
818.638	28188
818.778	28097
818.919	28226
819.06	28253
819.2	28185
819.341	28318
819.481	28196
819.622	28478
819.762	28618
819.903	28698
820.043	28550
820.184	28451
820.324	28455
820.465	28470
820.605	28645
820.746	28459
820.886	28382
821.026	28360
821.167	28443
821.307	28630
821.447	28436
821.588	28284
821.728	28265
821.868	28025
822.008	27838
822.149	27831
822.289	27789
822.429	27629
822.569	27580
822.709	27439
822.849	27306
822.99	27310
823.13	27344
823.27	27275
823.41	27294
823.55	27096
823.69	27116
823.83	27123
823.97	27184
824.11	27062
824.25	26979
824.389	27043
824.529	27081
824.669	26986
824.809	27150
824.949	27017
825.089	27062
825.228	26990
825.368	26735
825.508	26765
825.648	26830
825.787	26777
825.927	26944
826.067	26918
826.206	26815
826.346	26944
826.485	26887
826.625	26895
826.765	26998
826.904	27013
827.044	26606
827.183	26648
827.323	26579
827.462	26712
827.601	26552
827.741	26590
827.88	26552
828.02	26404
828.159	26473
828.298	26587
828.437	26575
828.577	26427
828.716	26583
828.855	26374
828.994	26263
829.134	26423
829.273	26275
829.412	26240
829.551	26168
829.69	26275
829.829	26320
829.968	26183
830.107	26210
830.246	26305
830.385	26119
830.524	26221
830.663	26020
830.802	25890
830.941	25890
831.08	25814
831.219	25894
831.357	26031
831.496	25986
831.635	25890
831.774	25818
831.913	25753
832.051	25647
832.19	25658
832.329	25514
832.467	25620
832.606	25586
832.744	25571
832.883	25460
833.022	25495
833.16	25552
833.299	25731
833.437	25548
833.576	25628
833.714	25750
833.852	25712
833.991	25624
834.129	25723
834.267	25635
834.406	25624
834.544	25681
834.682	25742
834.821	25613
834.959	25719
835.097	25529
835.235	25689
835.373	25601
835.511	25567
835.65	25514
835.788	25479
835.926	25430
836.064	25194
836.202	25282
836.34	25479
836.478	25594
836.615	25346
836.753	25434
836.891	25521
837.029	25445
837.167	25346
837.305	25381
837.443	25362
837.58	25327
837.718	25400
837.856	25282
837.993	25282
838.131	25282
838.269	25160
838.406	25228
838.544	25179
838.681	24905
838.819	24878
838.956	24677
839.094	24871
839.231	24760
839.369	24943
839.506	25095
839.643	24920
839.781	24795
839.918	24665
840.055	24631
840.193	24681
840.33	24669
840.467	24616
840.604	24734
840.742	24985
840.879	24608
841.016	24559
841.153	24528
841.29	24738
841.427	24730
841.564	24791
841.701	24597
841.838	24570
841.975	24471
842.112	24525
842.249	24426
842.385	24342
842.522	24604
842.659	24422
842.796	24414
842.933	24304
843.069	24289
843.206	24353
843.343	24445
843.479	24441
843.616	24270
843.752	24140
843.889	24159
844.025	24254
844.162	24186
844.298	24194
844.435	24129
844.571	24205
844.708	24235
844.844	24388
844.98	24361
845.117	24254
845.253	24102
845.389	24114
845.525	23977
845.661	24049
845.798	23832
845.934	23851
846.07	23920
846.206	23874
846.342	24057
846.478	23977
846.614	23665
846.75	23570
846.886	23634
847.022	23657
847.158	23672
847.294	23619
847.429	23767
847.565	23668
847.701	23775
847.837	23429
847.972	23421
848.108	23341
848.244	23516
848.379	23193
848.515	23151
848.65	23193
848.786	23109
848.921	23109
849.057	23387
849.192	23322
849.328	23231
849.463	23109
849.598	23052
849.734	23083
849.869	23083
850.004	23025
850.14	22999
850.275	22972
850.41	22858
850.545	23010
850.68	22930
850.815	22953
850.95	23022
851.085	23178
851.22	22930
851.355	23025
851.49	22938
851.625	22949
851.76	23022
851.895	22793
852.03	22889
852.165	22843
852.299	22877
852.434	23071
852.569	23041
852.703	23044
852.838	23018
852.973	23022
853.107	23140
853.242	23010
853.376	22763
853.511	22634
853.645	22778
853.78	22991
853.914	22816
854.048	22698
854.183	22930
854.317	22869
854.451	22900
854.585	22866
854.72	22729
854.854	22854
854.988	22816
855.122	22801
855.256	22649
855.39	22733
855.524	22869
855.658	22725
855.792	22919
855.926	22831
856.06	22904
856.194	22896
856.327	22786
856.461	22706
856.595	22675
856.729	22793
856.862	22831
856.996	22656
857.13	22748
857.263	22805
857.397	22839
857.53	22717
857.664	22786
857.797	22831
857.931	22991
858.064	22786
858.197	22862
858.331	22908
858.464	22611
858.597	22733
858.731	22767
858.864	22767
858.997	22653
859.13	22812
859.263	22782
859.396	22721
859.529	22824
859.662	22687
859.795	22767
859.928	22854
860.061	22877
860.194	23071
860.327	22858
860.46	22816
860.592	22904
860.725	22942
860.858	22987
860.99	22771
861.123	22733
861.256	22752
861.388	22702
861.521	23493
861.653	22649
861.786	22519
861.918	22645
862.05	22630
862.183	22721
862.315	22767
862.447	22790
862.58	22771
862.712	22421
862.844	22440
862.976	22615
863.108	22668
863.24	22942
863.372	22386
863.504	22519
863.636	22626
863.768	22497
863.9	22497
864.032	22344
864.164	22447
864.296	22519
864.428	22641
864.559	22565
864.691	22466
864.823	22523
864.954	22379
865.086	22466
865.217	22341
865.349	22291
865.48	22436
865.612	22234
865.743	22481
865.875	22394
866.006	22344
866.137	22394
866.269	22352
866.4	22375
866.531	22413
866.662	22230
866.793	22280
866.924	22257
867.055	22367
867.186	22276
867.317	22276
867.448	22120
867.579	22234
867.71	22257
867.841	22223
867.972	22363
868.103	22246
868.233	22325
868.364	22253
868.495	22451
868.625	22577
868.756	22660
868.886	22440
869.017	22557
869.147	22733
869.278	22611
869.408	22466
869.539	22546
869.669	22645
869.799	22516
869.929	22729
870.06	22531
870.19	22774
870.32	22691
870.45	22900
870.58	23010
870.71	22991
870.84	22953
870.97	22965
871.1	23052
871.23	23022
871.36	22999
871.489	23037
871.619	23006
871.749	23147
871.879	23102
872.008	23265
872.138	23140
872.267	23162
872.397	23121
872.526	22866
872.656	22919
872.785	23037
872.915	23220
873.044	23216
873.173	23197
873.303	23159
873.432	23193
873.561	23250
873.69	23174
873.819	23227
873.948	23140
874.077	23071
874.206	23094
874.335	23113
874.464	23147
874.593	23353
874.722	23303
874.851	23258
874.979	23235
875.108	23440
875.237	23246
875.365	23235
875.494	23406
875.623	23520
875.751	23406
875.88	23334
876.008	23452
876.136	23528
876.265	23695
876.393	23973
876.521	23783
876.65	23824
876.778	23760
876.906	23627
877.034	23710
877.162	23627
877.29	23558
877.418	23630
877.546	23729
877.674	23726
877.802	23684
877.93	23699
878.058	23619
878.185	23596
878.313	23615
878.441	23615
878.568	23627
878.696	23600
878.824	23649
878.951	23760
879.079	23874
879.206	23923
879.333	23821
879.461	23703
879.588	23866
879.715	23923
879.842	23885
879.97	23726
880.097	23566
880.224	23547
880.351	23558
880.478	23535
880.605	23520
880.732	23353
880.859	23581
880.986	23395
881.112	23429
881.239	23307
881.366	23254
881.493	23132
881.619	23109
881.746	23094
881.872	23090
881.999	23029
882.125	22972
882.252	23086
882.378	23064
882.505	23227
882.631	22919
882.757	22847
882.883	22847
883.01	22717
883.136	22675
883.262	22504
883.388	22588
883.514	22649
883.64	22672
883.766	22550
883.892	22527
884.018	22497
884.143	22637
884.269	22763
884.395	22386
884.52	22306
884.646	22329
884.772	22352
884.897	22253
885.023	22360
885.148	22417
885.274	22447
885.399	22497
885.524	22246
885.65	22459
885.775	22356
885.9	22299
886.025	22390
886.15	22352
886.275	22211
886.4	22154
886.525	22352
886.65	22158
886.775	22329
886.9	22405
887.025	22550
887.149	22386
887.274	22139
887.399	22154
887.523	22154
887.648	22150
887.773	21983
887.897	22246
888.021	22192
888.146	22021
888.27	22173
888.395	22128
888.519	22150
888.643	22154
888.767	22120
888.891	21888
889.015	22044
889.139	21987
889.263	21770
889.387	21979
889.511	22036
889.635	22044
889.759	22006
889.883	21907
890.006	21842
890.13	22055
890.254	21751
890.377	21831
890.501	21728
890.624	21572
890.748	21633
890.871	21469
890.995	21443
891.118	21431
891.241	21408
891.364	21492
891.488	21492
891.611	21336
891.734	21439
891.857	21496
891.98	21420
892.103	21599
892.226	21408
892.349	21272
892.471	21279
892.594	21329
892.717	21393
892.839	21401
892.962	21363
893.085	21386
893.207	21302
893.33	21157
893.452	21264
893.575	21310
893.697	21233
893.819	21408
893.941	21614
894.064	21431
894.186	21283
894.308	21176
894.43	21462
894.552	21382
894.674	21279
894.796	21169
894.918	21237
895.04	21321
895.161	21359
895.283	21450
895.405	21283
895.526	21226
895.648	21237
895.769	21310
895.891	21348
896.012	21370
896.134	21317
896.255	21283
896.376	21222
896.498	21279
896.619	21268
896.74	21386
896.861	21367
896.982	21625
897.103	21751
897.224	21564
897.345	21507
897.466	21389
897.587	21435
897.708	21671
897.828	21595
897.949	21405
898.07	21321
898.19	21363
898.311	21576
898.431	21412
898.552	21435
898.672	21625
898.792	21485
898.913	21488
899.033	21382
899.153	21260
899.273	21055
899.393	21214
899.513	21207
899.633	21298
899.753	21146
899.873	21176
899.993	21272
900.113	21268
900.232	21241
900.352	21108
900.472	21112
900.591	20880
900.711	21055
900.83	20906
900.95	20952
901.069	21039
901.189	20842
901.308	20674
901.427	20545
901.546	20545
901.665	20541
901.784	20636
901.904	20488
902.023	20286
902.141	20157
902.26	20069
902.379	20164
902.498	20035
902.617	19898
902.735	20012
902.854	19986
902.973	20016
903.091	19670
903.21	19742
903.328	19719
903.446	19651
903.565	19464
903.683	19491
903.801	19373
903.919	19365
904.038	19483
904.156	19411
904.274	19350
904.392	19251
904.51	19194
904.627	19202
904.745	19228
904.863	19331
904.981	19088
905.098	18787
905.216	18840
905.334	19042
905.451	18966
905.569	18863
905.686	19004
905.803	18890
905.921	18642
906.038	18787
906.155	18768
906.272	18639
906.389	18642
906.506	18429
906.623	18490
906.74	18486
906.857	18338
906.974	18376
907.091	18502
907.208	18525
907.324	18429
907.441	18403
907.557	18163
907.674	18171
907.79	18110
907.907	18129
908.023	18102
908.139	18182
908.256	18083
908.372	18011
908.488	17969
908.604	18019
908.72	17847
908.836	17939
908.952	17783
909.068	17855
909.184	17889
909.3	17878
909.415	17798
909.531	17843
909.647	17589
909.762	17649
909.878	17600
909.993	17558
910.108	17543
910.224	17398
910.339	17596
910.454	17406
910.57	17406
910.685	17204
910.8	17459
910.915	17452
911.03	17387
911.145	17181
911.259	17151
911.374	17128
911.489	17109
911.604	17056
911.718	16938
911.833	16835
911.947	16793
912.062	16649
912.176	16908
912.291	16816
912.405	16691
912.519	17022
912.633	17014
912.748	16858
912.862	16831
912.976	16786
913.09	16615
913.204	16717
913.318	16774
913.431	16736
913.545	16767
913.659	16831
913.772	16634
913.886	16470
914	16413
914.113	16485
914.226	16729
914.34	16523
914.453	16341
914.566	16485
914.68	16409
914.793	16341
914.906	16124
915.019	15960
915.132	15937
915.245	16051
915.358	16025
915.47	16036
915.583	16040
915.696	16025
915.809	16013
915.921	16139
916.034	15998
916.146	15865
916.259	15949
916.371	15945
916.483	15975
916.595	15827
916.708	15899
916.82	15903
916.932	15842
917.044	15876
917.156	15770
917.268	15656
917.38	15660
917.491	15671
917.603	15660
917.715	15797
917.826	15648
917.938	15523
918.049	15450
918.161	15519
918.272	15789
918.384	15698
918.495	15656
918.606	15450
918.717	15351
918.828	15412
918.939	15367
919.05	15310
919.161	15439
919.272	15203
919.383	15245
919.494	15393
919.604	15610
919.715	15405
919.826	15249
919.936	15279
920.047	15344
920.157	15359
920.267	15656
920.378	15336
920.488	15321
920.598	15488
920.708	15584
920.818	15450
920.928	15469
921.038	15606
921.148	15595
921.258	15245
921.368	15138
921.477	15100
921.587	15066
921.697	15032
921.806	15047
921.916	14921
922.025	14811
922.134	14697
922.244	14674
922.353	14617
922.462	14533
922.571	14556
922.68	14370
922.789	14358
922.898	14317
923.007	14259
923.116	14385
923.224	14427
923.333	14317
923.442	14267
923.55	14237
923.659	14172
923.767	14199
923.876	14039
923.984	14115
924.092	14043
924.201	14024
924.309	14024
924.417	13997
924.525	13951
924.633	14008
924.741	14815
924.849	13822
924.956	13925
925.064	13811
925.172	13616
925.279	13727
925.387	13807
925.494	13761
925.602	13799
925.709	13746
925.816	13578
925.924	13597
926.031	13715
926.138	13571
926.245	13628
926.352	13548
926.459	13685
926.566	13681
926.673	13502
926.779	13400
926.886	13464
926.993	13274
927.099	13259
927.206	13259
927.312	13244
927.419	13289
927.525	13270
927.631	13297
927.737	13110
927.843	13084
927.95	12913
928.056	13015
928.162	13061
928.267	13061
928.373	13662
928.479	13190
928.585	12867
928.69	13046
928.796	13042
928.901	12905
929.007	12700
929.112	12905
929.218	12913
929.323	12856
929.428	12738
929.533	12848
929.638	12711
929.743	12715
929.848	12711
929.953	12700
930.058	12498
930.163	12509
930.267	12486
930.372	12547
930.477	12308
930.581	12479
930.685	12475
930.79	12330
930.894	12380
930.998	12273
931.103	12334
931.207	11980
931.311	11965
931.415	11847
931.519	11726
931.623	11722
