Data from test_V78500241_991.txt Node
Date: Fri Mar 25 15:48:39 CST 2022
User: usil
Spectrometer: V785-0024
Trigger mode: 0
Integration Time (sec): 4.000000E-1
Scans to average: 1
Nonlinearity correction enabled: false
Boxcar width: 0
Storing dark spectrum: false
XAxis mode: Wavelengths
Number of Pixels in Spectrum: 1024
>>>>>Begin Spectral Data<<<<<
801.071	28246
801.214	28272
801.356	28021
801.499	27994
801.641	27876
801.783	27838
801.926	27960
802.068	27747
802.211	27698
802.353	27625
802.496	27481
802.638	27466
802.78	27435
802.923	27538
803.065	27401
803.208	27397
803.35	27496
803.492	27694
803.635	27644
803.777	27629
803.919	27705
804.061	28032
804.204	27774
804.346	27762
804.488	27610
804.63	27694
804.773	27591
804.915	27762
805.057	27747
805.199	27705
805.341	27778
805.483	27903
805.626	27846
805.768	27914
805.91	27743
806.052	27800
806.194	27869
806.336	27972
806.478	27930
806.62	27876
806.762	28025
806.904	28150
807.046	28440
807.188	28246
807.33	28325
807.472	28394
807.614	28268
807.756	28333
807.898	28139
808.04	28074
808.182	28215
808.324	28261
808.465	28253
808.607	28295
808.749	28489
808.891	28637
809.033	28694
809.174	28561
809.316	28500
809.458	28542
809.6	28531
809.741	28459
809.883	28713
810.025	28896
810.166	28736
810.308	28771
810.45	28736
810.591	28736
810.733	28816
810.875	28363
811.016	28318
811.158	28272
811.299	28607
811.441	28767
811.582	28694
811.724	28668
811.865	28683
812.007	28538
812.148	28573
812.29	28672
812.431	28694
812.573	29033
812.714	29094
812.855	29143
812.997	29292
813.138	29387
813.279	29178
813.421	29208
813.562	29136
813.703	28965
813.845	28888
813.986	28535
814.127	28322
814.268	28287
814.41	28481
814.551	28257
814.692	28314
814.833	28188
814.974	28211
815.115	28219
815.256	28135
815.397	28128
815.539	28017
815.68	28147
815.821	28063
815.962	28002
816.103	27987
816.244	27972
816.385	27857
816.526	27934
816.666	27663
816.807	27538
816.948	27675
817.089	27515
817.23	27549
817.371	27530
817.512	27454
817.653	27492
817.793	27492
817.934	27679
818.075	27606
818.216	27606
818.356	27462
818.497	27568
818.638	27348
818.778	27313
818.919	27313
819.06	27294
819.2	27519
819.341	27614
819.481	27450
819.622	27660
819.762	27816
819.903	27922
820.043	27679
820.184	27709
820.324	27736
820.465	27724
820.605	27751
820.746	27759
820.886	27568
821.026	27614
821.167	27553
821.307	27781
821.447	27561
821.588	27477
821.728	27351
821.868	27237
822.008	27036
822.149	26960
822.289	27077
822.429	26796
822.569	26686
822.709	26716
822.849	26708
822.99	26560
823.13	26560
823.27	26609
823.41	26427
823.55	26427
823.69	26294
823.83	26377
823.97	26495
824.11	26157
824.25	26206
824.389	26164
824.529	26252
824.669	26278
824.809	26370
824.949	26286
825.089	26240
825.228	26267
825.368	26073
825.508	25997
825.648	26077
825.787	26259
825.927	26199
826.067	26111
826.206	26092
826.346	26168
826.485	26115
826.625	26005
826.765	26229
826.904	26187
827.044	25883
827.183	25909
827.323	25723
827.462	25849
827.601	25830
827.741	25814
827.88	25871
828.02	25689
828.159	25712
828.298	25845
828.437	25894
828.577	25696
828.716	25902
828.855	25704
828.994	25430
829.134	25556
829.273	25544
829.412	25369
829.551	25445
829.69	25438
829.829	25537
829.968	25628
830.107	25609
830.246	25567
830.385	25525
830.524	25293
830.663	25354
830.802	25110
830.941	25034
831.08	25061
831.219	25183
831.357	25320
831.496	25476
831.635	25164
831.774	24989
831.913	24996
832.051	25031
832.19	24920
832.329	24947
832.467	24878
832.606	24703
832.744	24844
832.883	24760
833.022	24696
833.16	24722
833.299	24943
833.437	24783
833.576	24840
833.714	24882
833.852	24901
833.991	24954
834.129	24996
834.267	24844
834.406	24741
834.544	24814
834.682	24821
834.821	24882
834.959	25091
835.097	24802
835.235	24726
835.373	24741
835.511	24719
835.65	24741
835.788	24707
835.926	24536
836.064	24456
836.202	24498
836.34	24566
836.478	24726
836.615	24658
836.753	24665
836.891	24707
837.029	24681
837.167	24639
837.305	24475
837.443	24471
837.58	24494
837.718	24509
837.856	24582
837.993	24490
838.131	24365
838.269	24365
838.406	24410
838.544	24292
838.681	24152
838.819	24045
838.956	23942
839.094	24018
839.231	24015
839.369	24106
839.506	24292
839.643	24076
839.781	23980
839.918	23977
840.055	23923
840.193	24106
840.33	23878
840.467	23893
840.604	23999
840.742	24102
840.879	23691
841.016	23885
841.153	23691
841.29	23977
841.427	23760
841.564	23984
841.701	23813
841.838	23897
841.975	23756
842.112	23680
842.249	23657
842.385	23634
842.522	23916
842.659	23684
842.796	23547
842.933	23596
843.069	23615
843.206	23531
843.343	23558
843.479	23703
843.616	23691
843.752	23425
843.889	23356
844.025	23436
844.162	23292
844.298	23372
844.435	23356
844.571	23318
844.708	23482
844.844	23455
844.98	23531
845.117	23448
845.253	23318
845.389	23181
845.525	23246
845.661	23208
845.798	23090
845.934	23200
846.07	23098
846.206	23189
846.342	23193
846.478	23029
846.614	22873
846.75	22805
846.886	22828
847.022	22866
847.158	22835
847.294	22809
847.429	22896
847.565	22896
847.701	23086
847.837	22683
847.972	22424
848.108	22637
848.244	22713
848.379	22508
848.515	22356
848.65	22405
848.786	22367
848.921	22409
849.057	22626
849.192	22573
849.328	22497
849.463	22485
849.598	22363
849.734	22402
849.869	22261
850.004	22070
850.14	22181
850.275	22246
850.41	22082
850.545	22097
850.68	22154
850.815	22135
850.95	22101
851.085	22360
851.22	22257
851.355	22234
851.49	22234
851.625	22143
851.76	22128
851.895	22143
852.03	22128
852.165	22169
852.299	22230
852.434	22196
852.569	22268
852.703	22344
852.838	22261
852.973	22375
853.107	22234
853.242	22051
853.376	21964
853.511	22010
853.645	21994
853.78	22166
853.914	22029
854.048	21899
854.183	21888
854.317	22021
854.451	22207
854.585	22082
854.72	22063
854.854	22105
854.988	21930
855.122	22055
855.256	21762
855.39	21998
855.524	22120
855.658	22048
855.792	22154
855.926	22143
856.06	22074
856.194	22173
856.327	21994
856.461	22036
856.595	21941
856.729	21972
856.862	22074
856.996	22021
857.13	22223
857.263	22135
857.397	22055
857.53	21926
857.664	22010
857.797	22219
857.931	22044
858.064	21987
858.197	22063
858.331	21979
858.464	21907
858.597	21895
858.731	21964
858.864	22029
858.997	22010
859.13	22029
859.263	21998
859.396	22166
859.529	22055
859.662	21968
859.795	21972
859.928	22002
860.061	22139
860.194	22192
860.327	21987
860.46	22074
860.592	22105
860.725	22211
860.858	22063
860.99	22032
861.123	21895
861.256	22086
861.388	21907
861.521	22691
861.653	21884
861.786	21804
861.918	21873
862.05	22010
862.183	21911
862.315	22006
862.447	21998
862.58	21934
862.712	21705
862.844	21663
862.976	21759
863.108	21797
863.24	22181
863.372	21583
863.504	21770
863.636	21793
863.768	21656
863.9	21808
864.032	21720
864.164	21679
864.296	21690
864.428	21797
864.559	21675
864.691	21778
864.823	21701
864.954	21698
865.086	21739
865.217	21675
865.349	21580
865.48	21595
865.612	21713
865.743	21778
865.875	21663
866.006	21545
866.137	21652
866.269	21629
866.4	21500
866.531	21511
866.662	21530
866.793	21534
866.924	21686
867.055	21614
867.186	21625
867.317	21473
867.448	21382
867.579	21496
867.71	21412
867.841	21416
867.972	21557
868.103	21561
868.233	21431
868.364	21580
868.495	21667
868.625	21781
868.756	21785
868.886	21739
869.017	21732
869.147	21918
869.278	21785
869.408	21835
869.539	21922
869.669	21953
869.799	21899
869.929	21895
870.06	21907
870.19	22093
870.32	22074
870.45	22109
870.58	22169
870.71	22219
870.84	22295
870.97	22173
871.1	22306
871.23	22337
871.36	22386
871.489	22333
871.619	22322
871.749	22325
871.879	22268
872.008	22577
872.138	22284
872.267	22405
872.397	22249
872.526	22086
872.656	22257
872.785	22181
872.915	22367
873.044	22508
873.173	22451
873.303	22375
873.432	22455
873.561	22356
873.69	22249
873.819	22375
873.948	22516
874.077	22493
874.206	22379
874.335	22371
874.464	22584
874.593	22588
874.722	22546
874.851	22618
874.979	22577
875.108	22656
875.237	22500
875.365	22550
875.494	22557
875.623	22691
875.751	22535
875.88	22637
876.008	22774
876.136	22763
876.265	22946
876.393	23094
876.521	23025
876.65	23029
876.778	22927
876.906	22991
877.034	23003
877.162	23025
877.29	22858
877.418	22991
877.546	22965
877.674	22908
877.802	23052
877.93	22938
878.058	22892
878.185	22854
878.313	22930
878.441	22927
878.568	22767
878.696	22953
878.824	22927
878.951	23048
879.079	23140
879.206	23121
879.333	23147
879.461	22953
879.588	22987
879.715	23056
879.842	23296
879.97	23006
880.097	22828
880.224	22710
880.351	22740
880.478	22710
880.605	22698
880.732	22847
880.859	23022
880.986	22744
881.112	22843
881.239	22603
881.366	22508
881.493	22409
881.619	22265
881.746	22329
881.872	22409
881.999	22272
882.125	22287
882.252	22375
882.378	22223
882.505	22428
882.631	22207
882.757	22059
882.883	22101
883.01	22044
883.136	22044
883.262	21972
883.388	21835
883.514	22044
883.64	22166
883.766	21907
883.892	21865
884.018	21816
884.143	21979
884.269	22044
884.395	21622
884.52	21675
884.646	21637
884.772	21564
884.897	21526
885.023	21690
885.148	21831
885.274	21823
885.399	21732
885.524	21564
885.65	21656
885.775	21667
885.9	21675
886.025	21690
886.15	21618
886.275	21629
886.4	21542
886.525	21682
886.65	21641
886.775	21564
886.9	21739
887.025	21827
887.149	21610
887.274	21564
887.399	21412
887.523	21367
887.648	21424
887.773	21325
887.897	21515
888.021	21393
888.146	21466
888.27	21473
888.395	21397
888.519	21469
888.643	21450
888.767	21469
888.891	21355
889.015	21317
889.139	21329
889.263	21135
889.387	21416
889.511	21469
889.635	21298
889.759	21165
889.883	21116
890.006	21222
890.13	21382
890.254	21165
890.377	21249
890.501	20902
890.624	20861
890.748	20929
890.871	20823
890.995	20765
891.118	20621
891.241	20815
891.364	20785
891.488	20880
891.611	20769
891.734	20769
891.857	20834
891.98	20708
892.103	20724
892.226	20796
892.349	20731
892.471	20560
892.594	20686
892.717	20659
892.839	20716
892.962	20587
893.085	20739
893.207	20746
893.33	20587
893.452	20568
893.575	20777
893.697	20621
893.819	20777
893.941	20735
894.064	20868
894.186	20625
894.308	20670
894.43	20735
894.552	20823
894.674	20701
894.796	20518
894.918	20549
895.04	20590
895.161	20609
895.283	20648
895.405	20568
895.526	20762
895.648	20549
895.769	20659
895.891	20670
896.012	20682
896.134	20750
896.255	20587
896.376	20518
896.498	20724
896.619	20629
896.74	20492
896.861	20762
896.982	20933
897.103	21108
897.224	20864
897.345	20857
897.466	20746
897.587	20845
897.708	20914
897.828	20986
897.949	20830
898.07	20735
898.19	20758
898.311	20956
898.431	20796
898.552	20811
898.672	20815
898.792	20857
898.913	20804
899.033	20823
899.153	20746
899.273	20549
899.393	20651
899.513	20606
899.633	20598
899.753	20476
899.873	20507
899.993	20640
900.113	20602
900.232	20549
900.352	20526
900.472	20495
900.591	20404
900.711	20317
900.83	20320
900.95	20404
901.069	20545
901.189	20324
901.308	20153
901.427	19928
901.546	20016
901.665	20031
901.784	19997
901.904	19841
902.023	19670
902.141	19510
902.26	19575
902.379	19411
902.498	19457
902.617	19430
902.735	19616
902.854	19453
902.973	19400
903.091	19088
903.21	19217
903.328	19175
903.446	19000
903.565	18928
903.683	18935
903.801	18890
903.919	18867
904.038	18924
904.156	18837
904.274	18760
904.392	18673
904.51	18620
904.627	18734
904.745	18688
904.863	18806
904.981	18433
905.098	18285
905.216	18407
905.334	18357
905.451	18350
905.569	18289
905.686	18361
905.803	18399
905.921	18194
906.038	18235
906.155	18140
906.272	18034
906.389	18060
906.506	17851
906.623	17866
906.74	17927
906.857	17764
906.974	17783
907.091	17840
907.208	18019
907.324	17912
907.441	17859
907.557	17570
907.674	17573
907.79	17665
907.907	17596
908.023	17642
908.139	17543
908.256	17547
908.372	17433
908.488	17509
908.604	17277
908.72	17208
908.836	17326
908.952	17318
909.068	17368
909.184	17395
909.3	17265
909.415	17379
909.531	17299
909.647	17083
909.762	17075
909.878	16972
909.993	16968
910.108	16843
910.224	16938
910.339	16938
910.454	16961
910.57	16824
910.685	16729
910.8	17064
910.915	16942
911.03	16862
911.145	16546
911.259	16634
911.374	16611
911.489	16584
911.604	16535
911.718	16249
911.833	16341
911.947	16204
912.062	16177
912.176	16166
912.291	16329
912.405	16265
912.519	16443
912.633	16500
912.748	16299
912.862	16325
912.976	16143
913.09	16078
913.204	16105
913.318	16086
913.431	16303
913.545	16242
913.659	16204
913.772	16135
913.886	16025
914	15926
914.113	16063
914.226	16131
914.34	15930
914.453	15770
914.566	15949
914.68	15808
914.793	15751
914.906	15610
915.019	15542
915.132	15424
915.245	15625
915.358	15610
915.47	15511
915.583	15568
915.696	15580
915.809	15587
915.921	15644
916.034	15580
916.146	15458
916.259	15397
916.371	15500
916.483	15553
916.595	15382
916.708	15408
916.82	15382
916.932	15294
917.044	15260
917.156	15344
917.268	15218
917.38	15222
917.491	15127
917.603	15222
917.715	15154
917.826	15218
917.938	15176
918.049	15104
918.161	15077
918.272	15192
918.384	15249
918.495	15009
918.606	15024
918.717	14925
918.828	14944
918.939	14925
919.05	14880
919.161	14982
919.272	14727
919.383	14849
919.494	15055
919.604	15066
919.715	14895
919.826	14891
919.936	14868
920.047	14963
920.157	14845
920.267	15138
920.378	14975
920.488	14880
920.598	15165
920.708	15222
920.818	15032
920.928	15043
921.038	15218
921.148	15188
921.258	14910
921.368	14590
921.477	14678
921.587	14560
921.697	14461
921.806	14617
921.916	14533
922.025	14278
922.134	14328
922.244	14176
922.353	14237
922.462	14119
922.571	14035
922.68	13883
922.789	13955
922.898	13879
923.007	13871
923.116	13890
923.224	13871
923.333	13849
923.442	13833
923.55	13689
923.659	13780
923.767	13689
923.876	13727
923.984	13769
924.092	13662
924.201	13647
924.309	13552
924.417	13651
924.525	13544
924.633	13540
924.741	14412
924.849	13331
924.956	13460
925.064	13354
925.172	13236
925.279	13278
925.387	13282
925.494	13320
925.602	13438
925.709	13449
925.816	13190
925.924	13198
926.031	13324
926.138	13202
926.245	13270
926.352	13095
926.459	13274
926.566	13301
926.673	13141
926.779	13080
926.886	13065
926.993	12901
927.099	12760
927.206	12776
927.312	12791
927.419	12852
927.525	12863
927.631	12897
927.737	12787
927.843	12757
927.95	12627
928.056	12658
928.162	12760
928.267	12726
928.373	13228
928.479	12776
928.585	12574
928.69	12604
928.796	12688
928.901	12601
929.007	12418
929.112	12555
929.218	12460
929.323	12391
929.428	12445
929.533	12585
929.638	12289
929.743	12395
929.848	12395
929.953	12342
930.058	12292
930.163	12182
930.267	12136
930.372	12152
930.477	12072
930.581	12338
930.685	12209
930.79	11999
930.894	12015
930.998	11908
931.103	12057
931.207	11836
931.311	11668
931.415	11570
931.519	11353
931.623	11364
