Data from test_V78500241_1239.txt Node
Date: Fri Mar 25 15:50:23 CST 2022
User: usil
Spectrometer: V785-0024
Trigger mode: 0
Integration Time (sec): 4.000000E-1
Scans to average: 1
Nonlinearity correction enabled: false
Boxcar width: 0
Storing dark spectrum: false
XAxis mode: Wavelengths
Number of Pixels in Spectrum: 1024
>>>>>Begin Spectral Data<<<<<
801.071	28497
801.214	28489
801.356	28287
801.499	28242
801.641	28070
801.783	28067
801.926	28097
802.068	28109
802.211	28086
802.353	27895
802.496	27846
802.638	27728
802.78	27804
802.923	27538
803.065	27671
803.208	27857
803.35	27831
803.492	27770
803.635	27953
803.777	27838
803.919	27941
804.061	28325
804.204	28044
804.346	27934
804.488	27884
804.63	27968
804.773	27869
804.915	27918
805.057	28128
805.199	27869
805.341	28090
805.483	27949
805.626	28181
805.768	28128
805.91	27994
806.052	28177
806.194	28017
806.336	28322
806.478	28238
806.62	28181
806.762	28417
806.904	28398
807.046	28668
807.188	28557
807.33	28733
807.472	28592
807.614	28538
807.756	28561
807.898	28447
808.04	28276
808.182	28394
808.324	28607
808.465	28596
808.607	28683
808.749	28755
808.891	28911
809.033	29010
809.174	28847
809.316	28820
809.458	28702
809.6	28805
809.741	28900
809.883	29094
810.025	29105
810.166	29273
810.308	29010
810.45	29094
810.591	29079
810.733	28774
810.875	28881
811.016	28862
811.158	28645
811.299	28965
811.441	28805
811.582	28995
811.724	28809
811.865	28618
812.007	28774
812.148	28793
812.29	28801
812.431	28885
812.573	29151
812.714	29341
812.855	29391
812.997	29417
813.138	29661
813.279	29455
813.421	29341
813.562	29231
813.703	29200
813.845	29052
813.986	28843
814.127	28725
814.268	28531
814.41	28653
814.551	28516
814.692	28687
814.833	28485
814.974	28478
815.115	28542
815.256	28512
815.397	28447
815.539	28447
815.68	28371
815.821	28322
815.962	28440
816.103	28390
816.244	28246
816.385	28226
816.526	28101
816.666	27926
816.807	27846
816.948	27991
817.089	28093
817.23	27918
817.371	27842
817.512	27869
817.653	27922
817.793	27774
817.934	27914
818.075	27949
818.216	27968
818.356	28044
818.497	27789
818.638	27572
818.778	27656
818.919	27614
819.06	27709
819.2	27690
819.341	27819
819.481	27949
819.622	28074
819.762	28318
819.903	28150
820.043	27960
820.184	27975
820.324	28032
820.465	28040
820.605	28097
820.746	27937
820.886	27819
821.026	27972
821.167	28048
821.307	28131
821.447	27914
821.588	27720
821.728	27705
821.868	27511
822.008	27382
822.149	27386
822.289	27370
822.429	27195
822.569	26940
822.709	27051
822.849	27005
822.99	26902
823.13	26785
823.27	26720
823.41	26701
823.55	26545
823.69	26800
823.83	26762
823.97	26571
824.11	26453
824.25	26507
824.389	26457
824.529	26556
824.669	26556
824.809	26670
824.949	26625
825.089	26552
825.228	26678
825.368	26320
825.508	26419
825.648	26377
825.787	26465
825.927	26609
826.067	26366
826.206	26434
826.346	26427
826.485	26412
826.625	26320
826.765	26583
826.904	26465
827.044	26172
827.183	26199
827.323	26176
827.462	26183
827.601	26145
827.741	26122
827.88	26206
828.02	26092
828.159	25986
828.298	26119
828.437	26221
828.577	26008
828.716	26210
828.855	26130
828.994	25784
829.134	25871
829.273	25875
829.412	25818
829.551	25643
829.69	25868
829.829	25860
829.968	25928
830.107	25860
830.246	25818
830.385	25772
830.524	25643
830.663	25685
830.802	25495
830.941	25457
831.08	25468
831.219	25491
831.357	25441
831.496	25651
831.635	25365
831.774	25460
831.913	25327
832.051	25236
832.19	25145
832.329	25255
832.467	25027
832.606	25019
832.744	25015
832.883	24973
833.022	25122
833.16	25053
833.299	25145
833.437	25270
833.576	25084
833.714	25160
833.852	25221
833.991	25228
834.129	25145
834.267	25274
834.406	25091
834.544	25145
834.682	25297
834.821	25057
834.959	25255
835.097	25034
835.235	25095
835.373	25129
835.511	25061
835.65	25034
835.788	24909
835.926	24829
836.064	24639
836.202	24791
836.34	24871
836.478	25069
836.615	24852
836.753	25084
836.891	24852
837.029	25012
837.167	24821
837.305	24909
837.443	24787
837.58	24772
837.718	24894
837.856	24867
837.993	24882
838.131	24806
838.269	24631
838.406	24715
838.544	24494
838.681	24357
838.819	24372
838.956	24232
839.094	24190
839.231	24270
839.369	24403
839.506	24582
839.643	24566
839.781	24319
839.918	24152
840.055	24304
840.193	24247
840.33	24186
840.467	24220
840.604	24266
840.742	24460
840.879	24129
841.016	24262
841.153	24136
841.29	24197
841.427	24121
841.564	24152
841.701	24205
841.838	24114
841.975	24034
842.112	23992
842.249	23950
842.385	23840
842.522	24106
842.659	24076
842.796	23821
842.933	23984
843.069	23920
843.206	23935
843.343	23901
843.479	23878
843.616	23958
843.752	23551
843.889	23680
844.025	23718
844.162	23547
844.298	23809
844.435	23585
844.571	23668
844.708	23718
844.844	23817
844.98	23836
845.117	23775
845.253	23665
845.389	23482
845.525	23642
845.661	23417
845.798	23539
845.934	23414
846.07	23376
846.206	23478
846.342	23520
846.478	23452
846.614	23307
846.75	23044
846.886	23044
847.022	23090
847.158	23239
847.294	23235
847.429	23022
847.565	23155
847.701	23379
847.837	22797
847.972	22752
848.108	22976
848.244	23033
848.379	22828
848.515	22729
848.65	22786
848.786	22812
848.921	22729
849.057	22771
849.192	22839
849.328	22706
849.463	22763
849.598	22675
849.734	22626
849.869	22497
850.004	22455
850.14	22504
850.275	22413
850.41	22428
850.545	22493
850.68	22424
850.815	22516
850.95	22504
851.085	22713
851.22	22470
851.355	22504
851.49	22542
851.625	22394
851.76	22474
851.895	22432
852.03	22295
852.165	22481
852.299	22440
852.434	22683
852.569	22546
852.703	22546
852.838	22611
852.973	22584
853.107	22637
853.242	22394
853.376	22280
853.511	22246
853.645	22219
853.78	22413
853.914	22291
854.048	22196
854.183	22215
854.317	22318
854.451	22455
854.585	22322
854.72	22280
854.854	22394
854.988	22226
855.122	22341
855.256	22200
855.39	22219
855.524	22421
855.658	22478
855.792	22280
855.926	22242
856.06	22398
856.194	22363
856.327	22192
856.461	22333
856.595	22223
856.729	22371
856.862	22466
856.996	22379
857.13	22402
857.263	22398
857.397	22428
857.53	22337
857.664	22356
857.797	22257
857.931	22428
858.064	22379
858.197	22322
858.331	22409
858.464	22306
858.597	22272
858.731	22299
858.864	22379
858.997	22246
859.13	22287
859.263	22402
859.396	22287
859.529	22344
859.662	22310
859.795	22238
859.928	22333
860.061	22413
860.194	22455
860.327	22386
860.46	22371
860.592	22428
860.725	22424
860.858	22489
860.99	22310
861.123	22276
861.256	22280
861.388	22284
861.521	23105
861.653	22074
861.786	22131
861.918	22128
862.05	22196
862.183	22116
862.315	22173
862.447	22211
862.58	22204
862.712	22105
862.844	22010
862.976	22131
863.108	22204
863.24	22306
863.372	21983
863.504	22059
863.636	21991
863.768	22055
863.9	22017
864.032	21884
864.164	21972
864.296	21991
864.428	22162
864.559	22067
864.691	22116
864.823	22002
864.954	21899
865.086	22074
865.217	21899
865.349	21865
865.48	21941
865.612	21926
865.743	22120
865.875	21945
866.006	21884
866.137	21884
866.269	21766
866.4	21945
866.531	21873
866.662	21736
866.793	21793
866.924	21892
867.055	21846
867.186	21911
867.317	21812
867.448	21892
867.579	21816
867.71	21732
867.841	21785
867.972	21797
868.103	21804
868.233	21869
868.364	21743
868.495	21949
868.625	22048
868.756	22090
868.886	22010
869.017	22067
869.147	22230
869.278	22204
869.408	22067
869.539	22162
869.669	22086
869.799	22120
869.929	22101
870.06	22253
870.19	22379
870.32	22344
870.45	22310
870.58	22462
870.71	22405
870.84	22656
870.97	22371
871.1	22371
871.23	22462
871.36	22584
871.489	22622
871.619	22672
871.749	22615
871.879	22706
872.008	22774
872.138	22729
872.267	22615
872.397	22382
872.526	22459
872.656	22523
872.785	22451
872.915	22831
873.044	22740
873.173	22653
873.303	22790
873.432	22615
873.561	22786
873.69	22755
873.819	22660
873.948	22744
874.077	22725
874.206	22778
874.335	22622
874.464	22767
874.593	22949
874.722	22812
874.851	22797
874.979	22885
875.108	22965
875.237	22797
875.365	22752
875.494	22854
875.623	22892
875.751	22763
875.88	22911
876.008	22934
876.136	23075
876.265	23204
876.393	23425
876.521	23242
876.65	23307
876.778	23231
876.906	23269
877.034	23170
877.162	23185
877.29	23086
877.418	23220
877.546	23189
877.674	23109
877.802	23277
877.93	23311
878.058	23208
878.185	23128
878.313	23216
878.441	23227
878.568	22953
878.696	23162
878.824	23170
878.951	23204
879.079	23417
879.206	23589
879.333	23471
879.461	23223
879.588	23471
879.715	23318
879.842	23490
879.97	23311
880.097	23155
880.224	23071
880.351	23086
880.478	23083
880.605	22984
880.732	22991
880.859	23322
880.986	23003
881.112	22949
881.239	22968
881.366	22828
881.493	22733
881.619	22634
881.746	22493
881.872	22565
881.999	22706
882.125	22596
882.252	22664
882.378	22584
882.505	22664
882.631	22485
882.757	22360
882.883	22424
883.01	22192
883.136	22196
883.262	22177
883.388	22181
883.514	22367
883.64	22382
883.766	22211
883.892	22120
884.018	22032
884.143	22207
884.269	22379
884.395	22021
884.52	21819
884.646	22025
884.772	21816
884.897	21682
885.023	21949
885.148	22097
885.274	21998
885.399	21979
885.524	21876
885.65	21960
885.775	21854
885.9	21835
886.025	21941
886.15	21934
886.275	21911
886.4	21819
886.525	21781
886.65	21835
886.775	21823
886.9	22002
887.025	22036
887.149	21846
887.274	21728
887.399	21675
887.523	21614
887.648	21698
887.773	21667
887.897	21705
888.021	21679
888.146	21675
888.27	21797
888.395	21747
888.519	21694
888.643	21701
888.767	21766
888.891	21648
889.015	21492
889.139	21591
889.263	21488
889.387	21534
889.511	21637
889.635	21637
889.759	21408
889.883	21473
890.006	21515
890.13	21462
890.254	21439
890.377	21336
890.501	21230
890.624	21135
890.748	21241
890.871	21146
890.995	21077
891.118	20971
891.241	20944
891.364	21066
891.488	21207
891.611	21108
891.734	20986
891.857	20982
891.98	21074
892.103	21074
892.226	21020
892.349	20929
892.471	20956
892.594	20842
892.717	20914
892.839	20941
892.962	20899
893.085	20952
893.207	21043
893.33	20765
893.452	20773
893.575	20941
893.697	20929
893.819	21135
893.941	21043
894.064	21116
894.186	20853
894.308	20868
894.43	20975
894.552	21020
894.674	20861
894.796	20967
894.918	20979
895.04	20819
895.161	20960
895.283	20960
895.405	20853
895.526	20769
895.648	20906
895.769	20845
895.891	20990
896.012	21009
896.134	20986
896.255	20899
896.376	20823
896.498	21017
896.619	20921
896.74	20906
896.861	21024
896.982	21142
897.103	21389
897.224	21230
897.345	21093
897.466	21043
897.587	21123
897.708	21256
897.828	21154
897.949	21013
898.07	20899
898.19	20994
898.311	21154
898.431	21127
898.552	21119
898.672	21161
898.792	21275
898.913	21150
899.033	20982
899.153	20902
899.273	20815
899.393	20937
899.513	20880
899.633	20868
899.753	20990
899.873	20804
899.993	20937
900.113	20716
900.232	20785
900.352	20796
900.472	20667
900.591	20609
900.711	20613
900.83	20571
900.95	20632
901.069	20667
901.189	20503
901.308	20259
901.427	20191
901.546	20221
901.665	20286
901.784	20282
901.904	20005
902.023	20016
902.141	19742
902.26	19750
902.379	19750
902.498	19788
902.617	19727
902.735	19647
902.854	19693
902.973	19635
903.091	19400
903.21	19392
903.328	19392
903.446	19282
903.565	19289
903.683	19107
903.801	19080
903.919	19122
904.038	19145
904.156	18859
904.274	19023
904.392	18867
904.51	18878
904.627	18875
904.745	18924
904.863	18875
904.981	18711
905.098	18620
905.216	18566
905.334	18521
905.451	18597
905.569	18433
905.686	18608
905.803	18635
905.921	18388
906.038	18547
906.155	18437
906.272	18209
906.389	18251
906.506	18152
906.623	18053
906.74	18095
906.857	18011
906.974	18026
907.091	18159
907.208	18190
907.324	18121
907.441	18038
907.557	17866
907.674	17893
907.79	17718
907.907	17786
908.023	17847
908.139	17843
908.256	17866
908.372	17691
908.488	17733
908.604	17573
908.72	17516
908.836	17543
908.952	17585
909.068	17543
909.184	17623
909.3	17387
909.415	17623
909.531	17436
909.647	17326
909.762	17258
909.878	17284
909.993	17254
910.108	17181
910.224	17128
910.339	17204
910.454	17048
910.57	16987
910.685	16957
910.8	17242
910.915	17121
911.03	16896
911.145	16908
911.259	16736
911.374	16744
911.489	16793
911.604	16656
911.718	16561
911.833	16558
911.947	16474
912.062	16409
912.176	16573
912.291	16573
912.405	16497
912.519	16744
912.633	16763
912.748	16561
912.862	16531
912.976	16303
913.09	16291
913.204	16238
913.318	16333
913.431	16451
913.545	16413
913.659	16436
913.772	16238
913.886	16207
914	16166
914.113	16204
914.226	16310
914.34	16242
914.453	16013
914.566	16192
914.68	16063
914.793	16017
914.906	15808
915.019	15804
915.132	15618
915.245	15755
915.358	15743
915.47	15701
915.583	15739
915.696	15732
915.809	15819
915.921	15884
916.034	15709
916.146	15686
916.259	15644
916.371	15720
916.483	15675
916.595	15671
916.708	15469
916.82	15580
916.932	15530
917.044	15420
917.156	15545
917.268	15351
917.38	15374
917.491	15310
917.603	15355
917.715	15401
917.826	15378
917.938	15279
918.049	15233
918.161	15287
918.272	15511
918.384	15405
918.495	15245
918.606	15165
918.717	15024
918.828	15127
918.939	15138
919.05	15043
919.161	15036
919.272	14807
919.383	14998
919.494	15214
919.604	15268
919.715	15108
919.826	15005
919.936	14963
920.047	15184
920.157	14963
920.267	15268
920.378	15157
920.488	14979
920.598	15207
920.708	15249
920.818	15211
920.928	15173
921.038	15359
921.148	15192
921.258	15028
921.368	14937
921.477	14735
921.587	14792
921.697	14575
921.806	14754
921.916	14663
922.025	14492
922.134	14446
922.244	14404
922.353	14526
922.462	14237
922.571	14240
922.68	14046
922.789	14111
922.898	14115
923.007	13913
923.116	14031
923.224	14046
923.333	13974
923.442	13871
923.55	13864
923.659	13947
923.767	13959
923.876	13772
923.984	13909
924.092	13742
924.201	13909
924.309	13734
924.417	13772
924.525	13742
924.633	13685
924.741	14594
924.849	13449
924.956	13590
925.064	13480
925.172	13445
925.279	13445
925.387	13540
925.494	13506
925.602	13514
925.709	13529
925.816	13327
925.924	13487
926.031	13441
926.138	13350
926.245	13335
926.352	13312
926.459	13339
926.566	13381
926.673	13259
926.779	13240
926.886	13171
926.993	13126
927.099	13023
927.206	12947
927.312	12924
927.419	13000
927.525	12939
927.631	12985
927.737	12787
927.843	12795
927.95	12738
928.056	12753
928.162	12795
928.267	12806
928.373	13445
928.479	12897
928.585	12627
928.69	12783
928.796	12757
928.901	12646
929.007	12528
929.112	12639
929.218	12506
929.323	12574
929.428	12494
929.533	12597
929.638	12365
929.743	12483
929.848	12525
929.953	12547
930.058	12388
930.163	12247
930.267	12247
930.372	12365
930.477	12182
930.581	12388
930.685	12304
930.79	12019
930.894	12095
930.998	11977
931.103	12262
931.207	11885
931.311	11748
931.415	11615
931.519	11444
931.623	11505
