Data from test_V78500241_1229.txt Node
Date: Fri Mar 25 15:50:18 CST 2022
User: usil
Spectrometer: V785-0024
Trigger mode: 0
Integration Time (sec): 4.000000E-1
Scans to average: 1
Nonlinearity correction enabled: false
Boxcar width: 0
Storing dark spectrum: false
XAxis mode: Wavelengths
Number of Pixels in Spectrum: 1024
>>>>>Begin Spectral Data<<<<<
801.071	28653
801.214	28535
801.356	28367
801.499	28249
801.641	28124
801.783	28150
801.926	28261
802.068	28185
802.211	28135
802.353	28086
802.496	27949
802.638	27907
802.78	27850
802.923	27846
803.065	27865
803.208	27892
803.35	27991
803.492	28006
803.635	28101
803.777	28055
803.919	28120
804.061	28344
804.204	28177
804.346	28192
804.488	27914
804.63	28162
804.773	28029
804.915	28120
805.057	28230
805.199	28059
805.341	28287
805.483	28211
805.626	28265
805.768	28078
805.91	28333
806.052	28166
806.194	28230
806.336	28611
806.478	28428
806.62	28295
806.762	28390
806.904	28542
807.046	28672
807.188	28786
807.33	28683
807.472	28702
807.614	28664
807.756	28645
807.898	28489
808.04	28634
808.182	28641
808.324	28641
808.465	28702
808.607	28801
808.749	29029
808.891	29273
809.033	29185
809.174	29094
809.316	29056
809.458	28968
809.6	28900
809.741	29143
809.883	29075
810.025	29353
810.166	29311
810.308	29318
810.45	29235
810.591	29307
810.733	28999
810.875	29018
811.016	28984
811.158	28816
811.299	29204
811.441	29140
811.582	29143
811.724	29041
811.865	28873
812.007	29083
812.148	29132
812.29	29014
812.431	29204
812.573	29349
812.714	29398
812.855	29539
812.997	29646
813.138	29718
813.279	29627
813.421	29646
813.562	29577
813.703	29379
813.845	29155
813.986	28999
814.127	28736
814.268	28774
814.41	28683
814.551	28580
814.692	28850
814.833	28668
814.974	28656
815.115	28816
815.256	28512
815.397	28645
815.539	28565
815.68	28470
815.821	28447
815.962	28485
816.103	28573
816.244	28455
816.385	28230
816.526	28318
816.666	28181
816.807	28074
816.948	28093
817.089	28139
817.23	28025
817.371	28002
817.512	28082
817.653	28067
817.793	28013
817.934	27922
818.075	28124
818.216	27876
818.356	28059
818.497	27880
818.638	27736
818.778	27766
818.919	27789
819.06	27759
819.2	27964
819.341	28032
819.481	28021
819.622	28287
819.762	28432
819.903	28299
820.043	28272
820.184	28215
820.324	28200
820.465	28325
820.605	28086
820.746	28097
820.886	28040
821.026	28268
821.167	28188
821.307	28036
821.447	28204
821.588	27831
821.728	27861
821.868	27694
822.008	27549
822.149	27572
822.289	27488
822.429	27283
822.569	27203
822.709	27222
822.849	27135
822.99	27017
823.13	26967
823.27	27066
823.41	26975
823.55	26914
823.69	26899
823.83	26902
823.97	26716
824.11	26613
824.25	26560
824.389	26636
824.529	26712
824.669	26781
824.809	26788
824.949	26705
825.089	26834
825.228	26830
825.368	26678
825.508	26682
825.648	26625
825.787	26590
825.927	26492
826.067	26575
826.206	26602
826.346	26617
826.485	26575
826.625	26461
826.765	26648
826.904	26644
827.044	26351
827.183	26252
827.323	26199
827.462	26366
827.601	26332
827.741	26046
827.88	26210
828.02	26263
828.159	26294
828.298	26389
828.437	26351
828.577	26180
828.716	26427
828.855	26275
828.994	25963
829.134	26016
829.273	26088
829.412	25928
829.551	25963
829.69	25936
829.829	26031
829.968	25978
830.107	25936
830.246	25841
830.385	25765
830.524	25833
830.663	25719
830.802	25647
830.941	25586
831.08	25529
831.219	25757
831.357	25582
831.496	25693
831.635	25609
831.774	25590
831.913	25559
832.051	25194
832.19	25320
832.329	25324
832.467	25343
832.606	25259
832.744	25354
832.883	25183
833.022	25179
833.16	25168
833.299	25164
833.437	25335
833.576	25293
833.714	25236
833.852	25400
833.991	25289
834.129	25362
834.267	25339
834.406	25346
834.544	25251
834.682	25335
834.821	25183
834.959	25495
835.097	25358
835.235	25339
835.373	25247
835.511	25187
835.65	25225
835.788	25198
835.926	24958
836.064	25061
836.202	24951
836.34	25114
836.478	25175
836.615	25053
836.753	25137
836.891	25137
837.029	25091
837.167	24981
837.305	24939
837.443	25110
837.58	24977
837.718	24909
837.856	24920
837.993	24943
838.131	24890
838.269	24829
838.406	24776
838.544	24757
838.681	24601
838.819	24525
838.956	24403
839.094	24445
839.231	24467
839.369	24654
839.506	24795
839.643	24532
839.781	24357
839.918	24285
840.055	24292
840.193	24369
840.33	24353
840.467	24292
840.604	24407
840.742	24612
840.879	24083
841.016	24319
841.153	24114
841.29	24429
841.427	24258
841.564	24346
841.701	24243
841.838	24353
841.975	24171
842.112	24235
842.249	24098
842.385	24178
842.522	24273
842.659	24049
842.796	23965
842.933	24018
843.069	23965
843.206	23939
843.343	24095
843.479	24041
843.616	24076
843.752	23855
843.889	23821
844.025	23965
844.162	23870
844.298	23969
844.435	23878
844.571	23733
844.708	23969
844.844	23965
844.98	23946
845.117	23885
845.253	23676
845.389	23646
845.525	23805
845.661	23653
845.798	23638
845.934	23630
846.07	23554
846.206	23509
846.342	23581
846.478	23516
846.614	23307
846.75	23307
846.886	23265
847.022	23353
847.158	23303
847.294	23345
847.429	23250
847.565	23277
847.701	23592
847.837	22953
847.972	22949
848.108	23014
848.244	22999
848.379	22869
848.515	22885
848.65	22896
848.786	22793
848.921	22881
849.057	22999
849.192	22904
849.328	22949
849.463	22968
849.598	22847
849.734	22873
849.869	22733
850.004	22603
850.14	22729
850.275	22554
850.41	22584
850.545	22607
850.68	22641
850.815	22637
850.95	22611
851.085	22706
851.22	22771
851.355	22653
851.49	22565
851.625	22710
851.76	22653
851.895	22691
852.03	22580
852.165	22603
852.299	22637
852.434	22805
852.569	22748
852.703	22478
852.838	22721
852.973	22752
853.107	22778
853.242	22630
853.376	22428
853.511	22230
853.645	22481
853.78	22535
853.914	22504
854.048	22428
854.183	22409
854.317	22443
854.451	22660
854.585	22542
854.72	22363
854.854	22554
854.988	22318
855.122	22424
855.256	22379
855.39	22337
855.524	22455
855.658	22508
855.792	22489
855.926	22382
856.06	22599
856.194	22500
856.327	22413
856.461	22417
856.595	22318
856.729	22474
856.862	22557
856.996	22371
857.13	22546
857.263	22626
857.397	22596
857.53	22489
857.664	22478
857.797	22516
857.931	22500
858.064	22466
858.197	22596
858.331	22360
858.464	22500
858.597	22325
858.731	22371
858.864	22405
858.997	22462
859.13	22421
859.263	22455
859.396	22649
859.529	22394
859.662	22329
859.795	22337
859.928	22554
860.061	22508
860.194	22721
860.327	22565
860.46	22535
860.592	22497
860.725	22656
860.858	22573
860.99	22470
861.123	22367
861.256	22318
861.388	22443
861.521	23280
861.653	22409
861.786	22246
861.918	22329
862.05	22272
862.183	22348
862.315	22322
862.447	22367
862.58	22447
862.712	22055
862.844	22219
862.976	22215
863.108	22147
863.24	22554
863.372	22093
863.504	22185
863.636	22226
863.768	22207
863.9	22162
864.032	22010
864.164	22162
864.296	22192
864.428	22303
864.559	22223
864.691	22265
864.823	22097
864.954	22048
865.086	22067
865.217	22120
865.349	22032
865.48	22063
865.612	21960
865.743	22105
865.875	21941
866.006	22078
866.137	21956
866.269	22044
866.4	22032
866.531	22036
866.662	22002
866.793	21956
866.924	22036
867.055	22021
867.186	21842
867.317	21964
867.448	21861
867.579	21915
867.71	21846
867.841	21819
867.972	21922
868.103	21945
868.233	21918
868.364	21960
868.495	21941
868.625	22166
868.756	22303
868.886	21998
869.017	22097
869.147	22249
869.278	22390
869.408	22166
869.539	22215
869.669	22299
869.799	22204
869.929	22284
870.06	22238
870.19	22546
870.32	22451
870.45	22607
870.58	22573
870.71	22793
870.84	22721
870.97	22519
871.1	22565
871.23	22767
871.36	22740
871.489	22622
871.619	22809
871.749	22782
871.879	22759
872.008	22881
872.138	22717
872.267	22702
872.397	22675
872.526	22637
872.656	22637
872.785	22497
872.915	22805
873.044	22820
873.173	22790
873.303	22752
873.432	22908
873.561	22831
873.69	22862
873.819	22824
873.948	22877
874.077	22877
874.206	22782
874.335	22797
874.464	22858
874.593	23067
874.722	22938
874.851	23105
874.979	23033
875.108	23064
875.237	22972
875.365	22892
875.494	23006
875.623	23094
875.751	22976
875.88	23098
876.008	23121
876.136	23200
876.265	23296
876.393	23474
876.521	23459
876.65	23433
876.778	23387
876.906	23280
877.034	23220
877.162	23330
877.29	23334
877.418	23326
877.546	23341
877.674	23360
877.802	23326
877.93	23364
878.058	23204
878.185	23208
878.313	23284
878.441	23307
878.568	23170
878.696	23318
878.824	23421
878.951	23455
879.079	23478
879.206	23554
879.333	23425
879.461	23345
879.588	23429
879.715	23501
879.842	23680
879.97	23440
880.097	23376
880.224	23208
880.351	23261
880.478	23235
880.605	23124
880.732	23212
880.859	23391
880.986	23044
881.112	23254
881.239	23025
881.366	23044
881.493	22900
881.619	22706
881.746	22717
881.872	22698
881.999	22645
882.125	22694
882.252	22721
882.378	22668
882.505	22767
882.631	22527
882.757	22405
882.883	22508
883.01	22379
883.136	22287
883.262	22211
883.388	22131
883.514	22360
883.64	22390
883.766	22333
883.892	22261
884.018	22223
884.143	22333
884.269	22329
884.395	22055
884.52	22051
884.646	22032
884.772	21949
884.897	21926
885.023	22173
885.148	22207
885.274	22105
885.399	22158
885.524	22021
885.65	22154
885.775	22097
885.9	22040
886.025	22177
886.15	22207
886.275	21987
886.4	21907
886.525	21945
886.65	21823
886.775	21941
886.9	22131
887.025	22303
887.149	21972
887.274	21831
887.399	21774
887.523	21671
887.648	21705
887.773	21720
887.897	21854
888.021	21812
888.146	21724
888.27	21949
888.395	21918
888.519	21895
888.643	21812
888.767	21888
888.891	21652
889.015	21660
889.139	21679
889.263	21549
889.387	21576
889.511	21762
889.635	21728
889.759	21561
889.883	21591
890.006	21572
890.13	21709
890.254	21572
890.377	21530
890.501	21332
890.624	21249
890.748	21428
890.871	21264
890.995	21165
891.118	21032
891.241	21230
891.364	21203
891.488	21199
891.611	21161
891.734	21199
891.857	21264
891.98	21070
892.103	21275
892.226	21123
892.349	21024
892.471	20902
892.594	21001
892.717	21005
892.839	21036
892.962	21100
893.085	21161
893.207	20918
893.33	20906
893.452	20956
893.575	21093
893.697	20998
893.819	21154
893.941	21195
894.064	21108
894.186	20861
894.308	20921
894.43	21100
894.552	21131
894.674	21093
894.796	20906
894.918	20960
895.04	20918
895.161	20902
895.283	21119
895.405	20895
895.526	21085
895.648	21020
895.769	20990
895.891	20944
896.012	20998
896.134	20963
896.255	20971
896.376	20933
896.498	20933
896.619	20910
896.74	21157
896.861	21116
896.982	21302
897.103	21435
897.224	21264
897.345	21283
897.466	21138
897.587	21226
897.708	21313
897.828	21424
897.949	21066
898.07	21249
898.19	21066
898.311	21291
898.431	21131
898.552	21169
898.672	21340
898.792	21237
898.913	21359
899.033	21207
899.153	21039
899.273	20910
899.393	20887
899.513	21093
899.633	20990
899.753	20883
899.873	20800
899.993	21024
900.113	20845
900.232	20944
900.352	20868
900.472	20838
900.591	20678
900.711	20705
900.83	20689
900.95	20804
901.069	20804
901.189	20473
901.308	20446
901.427	20301
901.546	20218
901.665	20282
901.784	20351
901.904	20206
902.023	19944
902.141	19849
902.26	19757
902.379	19978
902.498	19746
902.617	19772
902.735	19788
902.854	19875
902.973	19624
903.091	19403
903.21	19430
903.328	19384
903.446	19312
903.565	19236
903.683	19312
903.801	19118
903.919	19114
904.038	19156
904.156	19088
904.274	19114
904.392	18943
904.51	18928
904.627	18977
904.745	19057
904.863	19057
904.981	18719
905.098	18620
905.216	18673
905.334	18661
905.451	18551
905.569	18673
905.686	18715
905.803	18620
905.921	18452
906.038	18589
906.155	18452
906.272	18350
906.389	18365
906.506	18163
906.623	18201
906.74	18159
906.857	18110
906.974	18003
907.091	18167
907.208	18289
907.324	18304
907.441	18019
907.557	17954
907.674	17954
907.79	17916
907.907	17828
908.023	17828
908.139	17904
908.256	17847
908.372	17912
908.488	17680
908.604	17699
908.72	17421
908.836	17547
908.952	17566
909.068	17646
909.184	17752
909.3	17646
909.415	17630
909.531	17611
909.647	17474
909.762	17364
909.878	17372
909.993	17360
910.108	17349
910.224	17189
910.339	17220
910.454	17071
910.57	17075
910.685	17045
910.8	17242
910.915	17132
911.03	17029
911.145	16942
911.259	16927
911.374	16885
911.489	16877
911.604	16805
911.718	16618
911.833	16588
911.947	16634
912.062	16481
912.176	16618
912.291	16664
912.405	16607
912.519	16828
912.633	16786
912.748	16683
912.862	16493
912.976	16584
913.09	16322
913.204	16432
913.318	16424
913.431	16527
913.545	16527
913.659	16542
913.772	16409
913.886	16310
914	16306
914.113	16325
914.226	16272
914.34	16299
914.453	16109
914.566	16265
914.68	16071
914.793	16067
914.906	15857
915.019	15865
915.132	15770
915.245	15850
915.358	15861
915.47	15869
915.583	15778
915.696	15880
915.809	15823
915.921	15816
916.034	15770
916.146	15599
916.259	15641
916.371	15751
916.483	15633
916.595	15663
916.708	15690
916.82	15625
916.932	15610
917.044	15492
917.156	15500
917.268	15485
917.38	15469
917.491	15500
917.603	15496
917.715	15530
917.826	15492
917.938	15450
918.049	15428
918.161	15435
918.272	15488
918.384	15435
918.495	15431
918.606	15184
918.717	15127
918.828	15291
918.939	15150
919.05	15097
919.161	15070
919.272	15009
919.383	15112
919.494	15211
919.604	15351
919.715	15195
919.826	15024
919.936	15055
920.047	15237
920.157	15112
920.267	15302
920.378	15203
920.488	15089
920.598	15287
920.708	15386
920.818	15306
920.928	15272
921.038	15386
921.148	15378
921.258	14975
921.368	14937
921.477	14906
921.587	14880
921.697	14792
921.806	14887
921.916	14663
922.025	14514
922.134	14526
922.244	14549
922.353	14568
922.462	14408
922.571	14256
922.68	14096
922.789	14138
922.898	14103
923.007	14157
923.116	14157
923.224	14062
923.333	14001
923.442	13940
923.55	13944
923.659	13864
923.767	14050
923.876	13837
923.984	13986
924.092	13890
924.201	13830
924.309	13917
924.417	13795
924.525	13780
924.633	13757
924.741	14541
924.849	13571
924.956	13784
925.064	13533
925.172	13441
925.279	13491
925.387	13582
925.494	13499
925.602	13636
925.709	13472
925.816	13441
925.924	13495
926.031	13529
926.138	13457
926.245	13464
926.352	13426
926.459	13441
926.566	13457
926.673	13441
926.779	13247
926.886	13202
926.993	13149
927.099	13053
927.206	13019
927.312	13053
927.419	13065
927.525	13008
927.631	12989
927.737	12924
927.843	12848
927.95	12791
928.056	12829
928.162	12886
928.267	12825
928.373	13548
928.479	12909
928.585	12711
928.69	12871
928.796	12821
928.901	12722
929.007	12532
929.112	12700
929.218	12639
929.323	12681
929.428	12528
929.533	12650
929.638	12551
929.743	12509
929.848	12475
929.953	12536
930.058	12437
930.163	12277
930.267	12311
930.372	12517
930.477	12178
930.581	12369
930.685	12273
930.79	12136
930.894	12175
930.998	12140
931.103	12163
931.207	11897
931.311	11786
931.415	11566
931.519	11532
931.623	11558
