Data from test_V78500241_1697.txt Node
Date: Fri Mar 25 15:53:33 CST 2022
User: usil
Spectrometer: V785-0024
Trigger mode: 0
Integration Time (sec): 4.000000E-1
Scans to average: 1
Nonlinearity correction enabled: false
Boxcar width: 0
Storing dark spectrum: false
XAxis mode: Wavelengths
Number of Pixels in Spectrum: 1024
>>>>>Begin Spectral Data<<<<<
801.071	28196
801.214	28097
801.356	27956
801.499	27762
801.641	27652
801.783	27709
801.926	27606
802.068	27660
802.211	27679
802.353	27599
802.496	27378
802.638	27355
802.78	27230
802.923	27336
803.065	27154
803.208	27173
803.35	27218
803.492	27420
803.635	27542
803.777	27218
803.919	27492
804.061	27850
804.204	27447
804.346	27401
804.488	27473
804.63	27530
804.773	27466
804.915	27530
805.057	27580
805.199	27580
805.341	27572
805.483	27736
805.626	27682
805.768	27526
805.91	27663
806.052	27728
806.194	27652
806.336	27876
806.478	27599
806.62	27504
806.762	27854
806.904	27918
807.046	28150
807.188	28112
807.33	28112
807.472	27968
807.614	28059
807.756	28048
807.898	27937
808.04	27873
808.182	27926
808.324	27998
808.465	27968
808.607	28078
808.749	28246
808.891	28462
809.033	28584
809.174	28352
809.316	28246
809.458	28234
809.6	28124
809.741	28363
809.883	28500
810.025	28637
810.166	28538
810.308	28622
810.45	28424
810.591	28580
810.733	28249
810.875	28226
811.016	28284
811.158	28093
811.299	28379
811.441	28481
811.582	28504
811.724	28249
811.865	28128
812.007	28299
812.148	28261
812.29	28322
812.431	28398
812.573	28550
812.714	28611
812.855	28744
812.997	28904
813.138	29056
813.279	28953
813.421	28786
813.562	28957
813.703	28710
813.845	28577
813.986	28169
814.127	28086
814.268	28025
814.41	28044
814.551	27888
814.692	28040
814.833	27846
814.974	27937
815.115	27994
815.256	27869
815.397	27888
815.539	27869
815.68	27713
815.821	27808
815.962	27717
816.103	27705
816.244	27641
816.385	27515
816.526	27606
816.666	27344
816.807	27173
816.948	27405
817.089	27275
817.23	27348
817.371	27180
817.512	27252
817.653	27291
817.793	27192
817.934	27214
818.075	27458
818.216	27321
818.356	27245
818.497	27108
818.638	27112
818.778	27013
818.919	26986
819.06	27039
819.2	27245
819.341	27207
819.481	27176
819.622	27329
819.762	27641
819.903	27507
820.043	27477
820.184	27332
820.324	27336
820.465	27348
820.605	27443
820.746	27252
820.886	27378
821.026	27466
821.167	27241
821.307	27397
821.447	27233
821.588	27275
821.728	27104
821.868	26960
822.008	26758
822.149	26735
822.289	26712
822.429	26522
822.569	26438
822.709	26465
822.849	26282
822.99	26320
823.13	26187
823.27	26092
823.41	26069
823.55	25898
823.69	26122
823.83	26081
823.97	26107
824.11	25830
824.25	25860
824.389	25769
824.529	25951
824.669	25856
824.809	26069
824.949	25966
825.089	25959
825.228	25944
825.368	25772
825.508	25734
825.648	25715
825.787	25811
825.927	25719
826.067	25719
826.206	25772
826.346	25864
826.485	25784
826.625	25795
826.765	25742
826.904	25811
827.044	25457
827.183	25472
827.323	25407
827.462	25457
827.601	25407
827.741	25521
827.88	25563
828.02	25559
828.159	25419
828.298	25472
828.437	25453
828.577	25407
828.716	25449
828.855	25274
828.994	25301
829.134	25152
829.273	25217
829.412	25084
829.551	25118
829.69	25099
829.829	25175
829.968	25217
830.107	25209
830.246	25270
830.385	25160
830.524	25072
830.663	24970
830.802	24867
830.941	24760
831.08	24791
831.219	24779
831.357	24833
831.496	24821
831.635	24700
831.774	24700
831.913	24665
832.051	24585
832.19	24563
832.329	24574
832.467	24509
832.606	24315
832.744	24346
832.883	24483
833.022	24330
833.16	24319
833.299	24486
833.437	24426
833.576	24597
833.714	24483
833.852	24563
833.991	24445
834.129	24437
834.267	24589
834.406	24426
834.544	24555
834.682	24410
834.821	24498
834.959	24608
835.097	24452
835.235	24566
835.373	24441
835.511	24464
835.65	24422
835.788	24266
835.926	24243
836.064	24159
836.202	24057
836.34	24357
836.478	24308
836.615	24296
836.753	24391
836.891	24285
837.029	24270
837.167	24243
837.305	24308
837.443	24178
837.58	24167
837.718	24190
837.856	24243
837.993	24171
838.131	24083
838.269	23969
838.406	24098
838.544	24060
838.681	23866
838.819	23821
838.956	23668
839.094	23756
839.231	23707
839.369	23775
839.506	24076
839.643	23901
839.781	23649
839.918	23493
840.055	23600
840.193	23649
840.33	23547
840.467	23497
840.604	23577
840.742	23718
840.879	23478
841.016	23577
841.153	23356
841.29	23665
841.427	23531
841.564	23592
841.701	23634
841.838	23497
841.975	23566
842.112	23417
842.249	23349
842.385	23292
842.522	23528
842.659	23307
842.796	23277
842.933	23269
843.069	23235
843.206	23212
843.343	23459
843.479	23273
843.616	23250
843.752	23098
843.889	23197
844.025	23121
844.162	23033
844.298	23067
844.435	23014
844.571	23140
844.708	23018
844.844	23113
844.98	23147
845.117	23223
845.253	23083
845.389	22999
845.525	22942
845.661	22930
845.798	22774
845.934	22858
846.07	22839
846.206	22862
846.342	22786
846.478	22729
846.614	22527
846.75	22504
846.886	22622
847.022	22447
847.158	22577
847.294	22554
847.429	22630
847.565	22561
847.701	22713
847.837	22257
847.972	22196
848.108	22367
848.244	22230
848.379	22253
848.515	22101
848.65	22090
848.786	22074
848.921	22101
849.057	22230
849.192	22280
849.328	22173
849.463	22082
849.598	22143
849.734	21846
849.869	21915
850.004	21899
850.14	21812
850.275	21918
850.41	21808
850.545	21842
850.68	21934
850.815	21854
850.95	21975
851.085	22059
851.22	22078
851.355	21930
851.49	21827
851.625	21793
851.76	21895
851.895	21759
852.03	21739
852.165	21789
852.299	21732
852.434	21880
852.569	21899
852.703	21949
852.838	21926
852.973	22105
853.107	21949
853.242	21934
853.376	21728
853.511	21641
853.645	21732
853.78	21789
853.914	21766
854.048	21694
854.183	21637
854.317	21759
854.451	21953
854.585	21705
854.72	21713
854.854	21880
854.988	21576
855.122	21713
855.256	21644
855.39	21690
855.524	21743
855.658	21751
855.792	21705
855.926	21793
856.06	21633
856.194	21785
856.327	21816
856.461	21667
856.595	21736
856.729	21660
856.862	21717
856.996	21819
857.13	21728
857.263	21732
857.397	21964
857.53	21625
857.664	21747
857.797	21717
857.931	21759
858.064	21781
858.197	21770
858.331	21644
858.464	21572
858.597	21622
858.731	21648
858.864	21637
858.997	21553
859.13	21770
859.263	21682
859.396	21667
859.529	21618
859.662	21709
859.795	21644
859.928	21618
860.061	21755
860.194	21960
860.327	21717
860.46	21686
860.592	21823
860.725	21926
860.858	21804
860.99	21671
861.123	21648
861.256	21572
861.388	21690
861.521	22424
861.653	21663
861.786	21488
861.918	21526
862.05	21553
862.183	21454
862.315	21743
862.447	21743
862.58	21641
862.712	21523
862.844	21408
862.976	21428
863.108	21408
863.24	21964
863.372	21458
863.504	21386
863.636	21416
863.768	21405
863.9	21355
864.032	21336
864.164	21378
864.296	21542
864.428	21473
864.559	21397
864.691	21580
864.823	21450
864.954	21428
865.086	21329
865.217	21306
865.349	21260
865.48	21336
865.612	21325
865.743	21542
865.875	21180
866.006	21359
866.137	21306
866.269	21325
866.4	21287
866.531	21287
866.662	21180
866.793	21306
866.924	21230
867.055	21332
867.186	21138
867.317	21161
867.448	21169
867.579	21096
867.71	21108
867.841	21154
867.972	21298
868.103	21237
868.233	21279
868.364	21317
868.495	21340
868.625	21428
868.756	21580
868.886	21317
869.017	21412
869.147	21663
869.278	21507
869.408	21439
869.539	21614
869.669	21500
869.799	21534
869.929	21595
870.06	21660
870.19	21732
870.32	21812
870.45	21789
870.58	21819
870.71	22059
870.84	22017
870.97	21808
871.1	21755
871.23	21953
871.36	22067
871.489	22017
871.619	21922
871.749	22036
871.879	22051
872.008	22147
872.138	22082
872.267	22006
872.397	21930
872.526	21934
872.656	21949
872.785	21873
872.915	22059
873.044	22249
873.173	22044
873.303	22185
873.432	22238
873.561	22192
873.69	22139
873.819	22067
873.948	22181
874.077	22124
874.206	22074
874.335	22078
874.464	22131
874.593	22413
874.722	22291
874.851	22390
874.979	22284
875.108	22265
875.237	22253
875.365	22166
875.494	22360
875.623	22287
875.751	22196
875.88	22219
876.008	22413
876.136	22485
876.265	22729
876.393	22831
876.521	22797
876.65	22869
876.778	22622
876.906	22588
877.034	22660
877.162	22771
877.29	22618
877.418	22649
877.546	22733
877.674	22763
877.802	22668
877.93	22710
878.058	22615
878.185	22542
878.313	22592
878.441	22637
878.568	22443
878.696	22569
878.824	22656
878.951	22683
879.079	22858
879.206	22942
879.333	22881
879.461	22725
879.588	22824
879.715	22744
879.842	22991
879.97	22820
880.097	22459
880.224	22516
880.351	22546
880.478	22565
880.605	22500
880.732	22611
880.859	22653
880.986	22584
881.112	22577
881.239	22325
881.366	22246
881.493	22196
881.619	21945
881.746	22029
881.872	22192
881.999	21991
882.125	21987
882.252	22181
882.378	21956
882.505	22017
882.631	21812
882.757	21717
882.883	21819
883.01	21679
883.136	21774
883.262	21698
883.388	21572
883.514	21709
883.64	21701
883.766	21622
883.892	21412
884.018	21561
884.143	21633
884.269	21747
884.395	21450
884.52	21317
884.646	21523
884.772	21332
884.897	21241
885.023	21382
885.148	21530
885.274	21622
885.399	21473
885.524	21252
885.65	21431
885.775	21370
885.9	21321
886.025	21515
886.15	21382
886.275	21412
886.4	21336
886.525	21351
886.65	21226
886.775	21226
886.9	21473
887.025	21583
887.149	21329
887.274	21188
887.399	21146
887.523	21207
887.648	21119
887.773	20998
887.897	21123
888.021	21256
888.146	21131
888.27	21260
888.395	21298
888.519	21180
888.643	21074
888.767	21218
888.891	21032
889.015	21074
889.139	21020
889.263	20967
889.387	21036
889.511	21096
889.635	21173
889.759	20895
889.883	20994
890.006	20990
890.13	20933
890.254	20834
890.377	20781
890.501	20663
890.624	20754
890.748	20743
890.871	20629
890.995	20590
891.118	20480
891.241	20594
891.364	20495
891.488	20621
891.611	20549
891.734	20511
891.857	20625
891.98	20537
892.103	20556
892.226	20457
892.349	20393
892.471	20358
892.594	20423
892.717	20480
892.839	20400
892.962	20396
893.085	20431
893.207	20408
893.33	20339
893.452	20355
893.575	20385
893.697	20419
893.819	20640
893.941	20549
894.064	20545
894.186	20358
894.308	20256
894.43	20431
894.552	20511
894.674	20434
894.796	20320
894.918	20374
895.04	20351
895.161	20431
895.283	20362
895.405	20301
895.526	20423
895.648	20389
895.769	20358
895.891	20438
896.012	20495
896.134	20381
896.255	20465
896.376	20370
896.498	20423
896.619	20446
896.74	20507
896.861	20469
896.982	20705
897.103	20853
897.224	20811
897.345	20606
897.466	20590
897.587	20571
897.708	20724
897.828	20617
897.949	20446
898.07	20415
898.19	20461
898.311	20625
898.431	20488
898.552	20678
898.672	20556
898.792	20701
898.913	20564
899.033	20446
899.153	20374
899.273	20298
899.393	20351
899.513	20404
899.633	20324
899.753	20423
899.873	20298
899.993	20320
900.113	20278
900.232	20271
900.352	20324
900.472	20084
900.591	20119
900.711	20199
900.83	20100
900.95	20180
901.069	20256
901.189	20100
901.308	19944
901.427	19791
901.546	19769
901.665	19780
901.784	19753
901.904	19689
902.023	19552
902.141	19362
902.26	19038
902.379	19240
902.498	19137
902.617	19217
902.735	19206
902.854	19183
902.973	19194
903.091	18871
903.21	18829
903.328	18856
903.446	18829
903.565	18783
903.683	18620
903.801	18593
903.919	18604
904.038	18631
904.156	18414
904.274	18547
904.392	18525
904.51	18327
904.627	18407
904.745	18479
904.863	18483
904.981	18319
905.098	18159
905.216	18064
905.334	18190
905.451	18266
905.569	18152
905.686	18197
905.803	18285
905.921	17901
906.038	17988
906.155	17939
906.272	17824
906.389	17794
906.506	17619
906.623	17718
906.74	17665
906.857	17592
906.974	17490
907.091	17649
907.208	17824
907.324	17680
907.441	17539
907.557	17421
907.674	17406
907.79	17292
907.907	17296
908.023	17273
908.139	17372
908.256	17296
908.372	17147
908.488	17269
908.604	17132
908.72	17143
908.836	17010
908.952	17071
909.068	17170
909.184	17170
909.3	17109
909.415	17117
909.531	17105
909.647	16831
909.762	16892
909.878	16771
909.993	16824
910.108	16713
910.224	16717
910.339	16733
910.454	16660
910.57	16653
910.685	16641
910.8	16797
910.915	16626
911.03	16630
911.145	16443
911.259	16428
911.374	16382
911.489	16272
911.604	16238
911.718	16188
911.833	16265
911.947	16086
912.062	15972
912.176	16181
912.291	16166
912.405	16143
912.519	16325
912.633	16234
912.748	16204
912.862	16097
912.976	16006
913.09	15831
913.204	15838
913.318	15979
913.431	16021
913.545	16048
913.659	16051
913.772	15880
913.886	15770
914	15743
914.113	15823
914.226	15797
914.34	15720
914.453	15652
914.566	15747
914.68	15610
914.793	15599
914.906	15519
915.019	15325
915.132	15226
915.245	15340
915.358	15275
915.47	15389
915.583	15298
915.696	15359
915.809	15447
915.921	15500
916.034	15195
916.146	15188
916.259	15169
916.371	15302
916.483	15252
916.595	15116
916.708	15119
916.82	15214
916.932	15089
917.044	15116
917.156	15013
917.268	15036
917.38	15062
917.491	14994
917.603	14998
917.715	15070
917.826	15097
917.938	14967
918.049	14895
918.161	14807
918.272	15039
918.384	15058
918.495	14967
918.606	14777
918.717	14716
918.828	14724
918.939	14758
919.05	14636
919.161	14689
919.272	14530
919.383	14598
919.494	14788
919.604	14990
919.715	14746
919.826	14514
919.936	14686
920.047	14682
920.157	14727
920.267	14891
920.378	14746
920.488	14617
920.598	14792
920.708	14982
920.818	14937
920.928	14796
921.038	14948
921.148	14948
921.258	14560
921.368	14495
921.477	14465
921.587	14377
921.697	14244
921.806	14366
921.916	14362
922.025	14103
922.134	13986
922.244	14054
922.353	14119
922.462	13970
922.571	13883
922.68	13742
922.789	13674
922.898	13677
923.007	13731
923.116	13693
923.224	13609
923.333	13734
923.442	13506
923.55	13594
923.659	13521
923.767	13582
923.876	13472
923.984	13533
924.092	13445
924.201	13518
924.309	13495
924.417	13384
924.525	13438
924.633	13392
924.741	14123
924.849	13175
924.956	13263
925.064	13206
925.172	13126
925.279	13114
925.387	13175
925.494	13122
925.602	13289
925.709	13149
925.816	13015
925.924	13065
926.031	13251
926.138	12966
926.245	13126
926.352	12939
926.459	13110
926.566	13122
926.673	13019
926.779	12840
926.886	12825
926.993	12650
927.099	12711
927.206	12677
927.312	12604
927.419	12681
927.525	12741
927.631	12684
927.737	12574
927.843	12559
927.95	12433
928.056	12479
928.162	12528
928.267	12540
928.373	13221
928.479	12593
928.585	12311
928.69	12357
928.796	12467
928.901	12304
929.007	12258
929.112	12350
929.218	12304
929.323	12220
929.428	12209
929.533	12395
929.638	12171
929.743	12155
929.848	12216
929.953	12159
930.058	12167
930.163	11984
930.267	11874
930.372	12079
930.477	11798
930.581	12106
930.685	11855
930.79	11790
930.894	11878
930.998	11737
931.103	11939
931.207	11589
931.311	11474
931.415	11402
931.519	11220
931.623	11143
