Data from test_V78500241_1843.txt Node
Date: Fri Mar 25 15:54:34 CST 2022
User: usil
Spectrometer: V785-0024
Trigger mode: 0
Integration Time (sec): 4.000000E-1
Scans to average: 1
Nonlinearity correction enabled: false
Boxcar width: 0
Storing dark spectrum: false
XAxis mode: Wavelengths
Number of Pixels in Spectrum: 1024
>>>>>Begin Spectral Data<<<<<
801.071	28428
801.214	28405
801.356	28105
801.499	28154
801.641	28086
801.783	27907
801.926	28150
802.068	27998
802.211	27857
802.353	27827
802.496	27622
802.638	27614
802.78	27667
802.923	27694
803.065	27526
803.208	27515
803.35	27698
803.492	27812
803.635	27880
803.777	27747
803.919	27960
804.061	28124
804.204	27842
804.346	27823
804.488	27682
804.63	27854
804.773	27797
804.915	27994
805.057	28090
805.199	28029
805.341	27983
805.483	27941
805.626	28048
805.768	27953
805.91	28048
806.052	28010
806.194	27876
806.336	28116
806.478	28032
806.62	28006
806.762	28128
806.904	28398
807.046	28531
807.188	28474
807.33	28432
807.472	28504
807.614	28440
807.756	28531
807.898	28272
808.04	28310
808.182	28409
808.324	28333
808.465	28527
808.607	28615
808.749	28603
808.891	28721
809.033	28900
809.174	28793
809.316	28771
809.458	28637
809.6	28706
809.741	28782
809.883	28828
810.025	28938
810.166	29132
810.308	29037
810.45	28965
810.591	28835
810.733	28713
810.875	28596
811.016	28630
811.158	28706
811.299	28752
811.441	28942
811.582	28687
811.724	28797
811.865	28557
812.007	28592
812.148	28729
812.29	28771
812.431	28949
812.573	29018
812.714	29094
812.855	29181
812.997	29455
813.138	29436
813.279	29417
813.421	29280
813.562	29071
813.703	28953
813.845	28866
813.986	28725
814.127	28531
814.268	28314
814.41	28417
814.551	28272
814.692	28360
814.833	28284
814.974	28314
815.115	28318
815.256	28230
815.397	28230
815.539	28242
815.68	28196
815.821	27991
815.962	28337
816.103	28131
816.244	28166
816.385	27987
816.526	27945
816.666	27930
816.807	27701
816.948	27728
817.089	27728
817.23	27629
817.371	27846
817.512	27728
817.653	27686
817.793	27675
817.934	27690
818.075	27671
818.216	27698
818.356	27701
818.497	27625
818.638	27488
818.778	27397
818.919	27523
819.06	27481
819.2	27492
819.341	27568
819.481	27625
819.622	27865
819.762	27918
819.903	27880
820.043	27918
820.184	27808
820.324	27759
820.465	27739
820.605	27892
820.746	27778
820.886	27511
821.026	27720
821.167	27732
821.307	27918
821.447	27728
821.588	27622
821.728	27492
821.868	27458
822.008	27241
822.149	27165
822.289	27123
822.429	26986
822.569	26971
822.709	26921
822.849	26629
822.99	26697
823.13	26727
823.27	26530
823.41	26518
823.55	26366
823.69	26503
823.83	26476
823.97	26408
824.11	26336
824.25	26431
824.389	26294
824.529	26298
824.669	26389
824.809	26412
824.949	26442
825.089	26442
825.228	26275
825.368	26218
825.508	26309
825.648	26187
825.787	26202
825.927	26271
826.067	26168
826.206	26267
826.346	26225
826.485	26149
826.625	26248
826.765	26221
826.904	26252
827.044	26031
827.183	25921
827.323	25906
827.462	25936
827.601	25887
827.741	25879
827.88	26020
828.02	25616
828.159	25837
828.298	25925
828.437	26039
828.577	25791
828.716	25852
828.855	25894
828.994	25601
829.134	25624
829.273	25731
829.412	25582
829.551	25571
829.69	25658
829.829	25491
829.968	25601
830.107	25727
830.246	25628
830.385	25548
830.524	25525
830.663	25525
830.802	25293
830.941	25175
831.08	25175
831.219	25217
831.357	25198
831.496	25384
831.635	25263
831.774	25095
831.913	25050
832.051	25061
832.19	25015
832.329	25099
832.467	24966
832.606	24928
832.744	24890
832.883	24871
833.022	24795
833.16	24757
833.299	24772
833.437	24913
833.576	24966
833.714	25080
833.852	24909
833.991	24989
834.129	25031
834.267	24916
834.406	24924
834.544	24954
834.682	24867
834.821	24905
834.959	25114
835.097	24856
835.235	24977
835.373	24905
835.511	24795
835.65	24825
835.788	24852
835.926	24741
836.064	24540
836.202	24639
836.34	24817
836.478	24787
836.615	24703
836.753	24833
836.891	24764
837.029	24802
837.167	24722
837.305	24703
837.443	24593
837.58	24597
837.718	24669
837.856	24631
837.993	24494
838.131	24604
838.269	24376
838.406	24414
838.544	24410
838.681	24117
838.819	24098
838.956	24163
839.094	23901
839.231	24129
839.369	24174
839.506	24460
839.643	24228
839.781	23988
839.918	23874
840.055	24091
840.193	23988
840.33	23878
840.467	24095
840.604	23954
840.742	24334
840.879	23931
841.016	23836
841.153	23923
841.29	24091
841.427	23882
841.564	24121
841.701	23904
841.838	23950
841.975	23843
842.112	23961
842.249	23710
842.385	23836
842.522	23893
842.659	23691
842.796	23691
842.933	23710
843.069	23619
843.206	23592
843.343	23767
843.479	23745
843.616	23608
843.752	23429
843.889	23414
844.025	23649
844.162	23467
844.298	23516
844.435	23623
844.571	23562
844.708	23444
844.844	23661
844.98	23668
845.117	23775
845.253	23387
845.389	23303
845.525	23505
845.661	23410
845.798	23197
845.934	23326
846.07	23223
846.206	23220
846.342	23474
846.478	23170
846.614	23037
846.75	22942
846.886	22961
847.022	23029
847.158	23113
847.294	23052
847.429	23029
847.565	22869
847.701	23197
847.837	22706
847.972	22656
848.108	22854
848.244	22721
848.379	22596
848.515	22687
848.65	22535
848.786	22516
848.921	22573
849.057	22653
849.192	22744
849.328	22618
849.463	22584
849.598	22542
849.734	22474
849.869	22462
850.004	22348
850.14	22352
850.275	22314
850.41	22318
850.545	22246
850.68	22344
850.815	22314
850.95	22265
851.085	22542
851.22	22561
851.355	22344
851.49	22379
851.625	22360
851.76	22318
851.895	22196
852.03	22147
852.165	22363
852.299	22478
852.434	22379
852.569	22276
852.703	22303
852.838	22447
852.973	22451
853.107	22424
853.242	22276
853.376	22192
853.511	22101
853.645	22173
853.78	22143
853.914	22234
854.048	22013
854.183	22044
854.317	22287
854.451	22249
854.585	22268
854.72	22177
854.854	22310
854.988	22086
855.122	22265
855.256	22021
855.39	22090
855.524	22192
855.658	22188
855.792	22029
855.926	22192
856.06	22219
856.194	22295
856.327	22147
856.461	22135
856.595	22063
856.729	22109
856.862	22173
856.996	22048
857.13	22086
857.263	22360
857.397	22287
857.53	22124
857.664	22150
857.797	22268
857.931	22287
858.064	22265
858.197	22284
858.331	22150
858.464	22010
858.597	22025
858.731	22067
858.864	22150
858.997	22040
859.13	22211
859.263	22150
859.396	22124
859.529	22158
859.662	22139
859.795	22074
859.928	22116
860.061	22219
860.194	22409
860.327	22257
860.46	22120
860.592	22344
860.725	22230
860.858	22200
860.99	22234
861.123	22135
861.256	22169
861.388	22105
861.521	22771
861.653	21972
861.786	21873
861.918	21915
862.05	22063
862.183	22036
862.315	22120
862.447	22044
862.58	22036
862.712	21892
862.844	21876
862.976	21945
863.108	21873
863.24	22356
863.372	21686
863.504	21850
863.636	21876
863.768	21850
863.9	21907
864.032	21774
864.164	21888
864.296	21945
864.428	21835
864.559	21892
864.691	21930
864.823	21835
864.954	21922
865.086	21975
865.217	21865
865.349	21690
865.48	21663
865.612	21709
865.743	21930
865.875	21873
866.006	21679
866.137	21789
866.269	21648
866.4	21667
866.531	21652
866.662	21618
866.793	21507
866.924	21774
867.055	21686
867.186	21698
867.317	21568
867.448	21591
867.579	21660
867.71	21595
867.841	21542
867.972	21759
868.103	21660
868.233	21591
868.364	21618
868.495	21732
868.625	21899
868.756	22101
868.886	21888
869.017	21808
869.147	22025
869.278	21987
869.408	21979
869.539	21831
869.669	22048
869.799	22029
869.929	21953
870.06	22162
870.19	22249
870.32	22253
870.45	22200
870.58	22329
870.71	22478
870.84	22337
870.97	22398
871.1	22394
871.23	22451
871.36	22386
871.489	22371
871.619	22459
871.749	22508
871.879	22588
872.008	22588
872.138	22497
872.267	22398
872.397	22352
872.526	22329
872.656	22379
872.785	22375
872.915	22668
873.044	22580
873.173	22554
873.303	22717
873.432	22542
873.561	22675
873.69	22432
873.819	22508
873.948	22550
874.077	22489
874.206	22466
874.335	22481
874.464	22679
874.593	22675
874.722	22706
874.851	22801
874.979	22782
875.108	22812
875.237	22672
875.365	22599
875.494	22713
875.623	22790
875.751	22828
875.88	22911
876.008	22824
876.136	22949
876.265	23166
876.393	23181
876.521	23242
876.65	23174
876.778	23155
876.906	23052
877.034	23003
877.162	23083
877.29	22980
877.418	23071
877.546	23102
877.674	23105
877.802	23086
877.93	23056
878.058	23094
878.185	23037
878.313	23022
878.441	23113
878.568	22873
878.696	23052
878.824	23174
878.951	23151
879.079	23162
879.206	23558
879.333	23216
879.461	23090
879.588	23155
879.715	23174
879.842	23414
879.97	23246
880.097	22949
880.224	22923
880.351	22904
880.478	23018
880.605	22873
880.732	22877
880.859	23124
880.986	22900
881.112	22923
881.239	22843
881.366	22660
881.493	22565
881.619	22535
881.746	22554
881.872	22542
881.999	22447
882.125	22348
882.252	22516
882.378	22363
882.505	22546
882.631	22257
882.757	22154
882.883	22101
883.01	22246
883.136	22109
883.262	22059
883.388	22051
883.514	22333
883.64	22162
883.766	22051
883.892	21991
884.018	21968
884.143	22025
884.269	22150
884.395	21781
884.52	21766
884.646	21827
884.772	21736
884.897	21694
885.023	21751
885.148	21915
885.274	21941
885.399	21888
885.524	21861
885.65	21819
885.775	21838
885.9	21713
886.025	21975
886.15	21800
886.275	21781
886.4	21667
886.525	21690
886.65	21774
886.775	21717
886.9	21953
887.025	21987
887.149	21686
887.274	21496
887.399	21549
887.523	21606
887.648	21580
887.773	21568
887.897	21610
888.021	21435
888.146	21481
888.27	21534
888.395	21667
888.519	21580
888.643	21530
888.767	21576
888.891	21469
889.015	21431
889.139	21473
889.263	21367
889.387	21317
889.511	21530
889.635	21397
889.759	21275
889.883	21378
890.006	21447
890.13	21420
890.254	21287
890.377	21207
890.501	21142
890.624	21058
890.748	21081
890.871	20952
890.995	20838
891.118	20727
891.241	20921
891.364	20914
891.488	21100
891.611	20807
891.734	20826
891.857	20982
891.98	20921
892.103	20971
892.226	20872
892.349	20674
892.471	20625
892.594	20769
892.717	20727
892.839	20697
892.962	20842
893.085	20918
893.207	20743
893.33	20769
893.452	20621
893.575	20834
893.697	20663
893.819	20982
893.941	20986
894.064	20933
894.186	20724
894.308	20792
894.43	20952
894.552	20857
894.674	20864
894.796	20682
894.918	20754
895.04	20648
895.161	20792
895.283	20815
895.405	20785
895.526	20807
895.648	20727
895.769	20788
895.891	20842
896.012	20830
896.134	20868
896.255	20750
896.376	20781
896.498	20743
896.619	20899
896.74	20792
896.861	20868
896.982	21055
897.103	21241
897.224	21036
897.345	20857
897.466	20876
897.587	20994
897.708	21062
897.828	21104
897.949	20982
898.07	20864
898.19	20914
898.311	21013
898.431	21028
898.552	21017
898.672	21127
898.792	21108
898.913	20979
899.033	20830
899.153	20689
899.273	20651
899.393	20705
899.513	20773
899.633	20807
899.753	20804
899.873	20708
899.993	20796
900.113	20598
900.232	20765
900.352	20514
900.472	20389
900.591	20396
900.711	20526
900.83	20495
900.95	20648
901.069	20655
901.189	20366
901.308	20157
901.427	19970
901.546	19974
901.665	20020
901.784	19921
901.904	19944
902.023	19784
902.141	19700
902.26	19620
902.379	19674
902.498	19537
902.617	19438
902.735	19567
902.854	19525
902.973	19457
903.091	19293
903.21	19247
903.328	19187
903.446	19164
903.565	19118
903.683	18943
903.801	18890
903.919	18973
904.038	18951
904.156	18825
904.274	18798
904.392	18833
904.51	18833
904.627	18753
904.745	18856
904.863	18863
904.981	18525
905.098	18521
905.216	18372
905.334	18490
905.451	18441
905.569	18399
905.686	18467
905.803	18467
905.921	18277
906.038	18300
906.155	18216
906.272	18209
906.389	18152
906.506	18019
906.623	18011
906.74	17961
906.857	17878
906.974	17798
907.091	17980
907.208	17980
907.324	17958
907.441	17927
907.557	17684
907.674	17783
907.79	17634
907.907	17684
908.023	17733
908.139	17790
908.256	17642
908.372	17604
908.488	17493
908.604	17440
908.72	17391
908.836	17440
908.952	17391
909.068	17482
909.184	17429
909.3	17372
909.415	17433
909.531	17364
909.647	17083
909.762	17071
909.878	17109
909.993	17033
910.108	16946
910.224	17075
910.339	17098
910.454	16923
910.57	16919
910.685	16869
910.8	17174
910.915	17094
911.03	16908
911.145	16729
911.259	16683
911.374	16698
911.489	16592
911.604	16649
911.718	16386
911.833	16478
911.947	16314
912.062	16253
912.176	16531
912.291	16561
912.405	16436
912.519	16584
912.633	16611
912.748	16470
912.862	16333
912.976	16226
913.09	16090
913.204	16177
913.318	16185
913.431	16314
913.545	16303
913.659	16363
913.772	16131
913.886	16063
914	16040
914.113	16166
914.226	16261
914.34	16086
914.453	15945
914.566	16025
914.68	15915
914.793	15873
914.906	15686
915.019	15599
915.132	15545
915.245	15553
915.358	15652
915.47	15625
915.583	15595
915.696	15656
915.809	15705
915.921	15857
916.034	15641
916.146	15526
916.259	15424
916.371	15603
916.483	15648
916.595	15568
916.708	15580
916.82	15416
916.932	15450
917.044	15393
917.156	15473
917.268	15340
917.38	15355
917.491	15218
917.603	15291
917.715	15428
917.826	15294
917.938	15154
918.049	15169
918.161	15237
918.272	15317
918.384	15393
918.495	15173
918.606	15085
918.717	15047
918.828	15058
918.939	15131
919.05	15070
919.161	15077
919.272	14777
919.383	14800
919.494	15138
919.604	15169
919.715	15039
919.826	14925
919.936	15005
920.047	15017
920.157	15036
920.267	15192
920.378	15062
920.488	14933
920.598	15142
920.708	15306
920.818	15032
920.928	15138
921.038	15310
921.148	15245
921.258	14899
921.368	14830
921.477	14777
921.587	14621
921.697	14594
921.806	14651
921.916	14598
922.025	14332
922.134	14370
922.244	14336
922.353	14404
922.462	14320
922.571	14187
922.68	14016
922.789	13951
922.898	13997
923.007	13864
923.116	14039
923.224	14008
923.333	13940
923.442	13784
923.55	13852
923.659	13826
923.767	13841
923.876	13788
923.984	13708
924.092	13822
924.201	13746
924.309	13712
924.417	13689
924.525	13620
924.633	13666
924.741	14431
924.849	13594
924.956	13620
925.064	13403
925.172	13285
925.279	13441
925.387	13403
925.494	13430
925.602	13476
925.709	13514
925.816	13198
925.924	13225
926.031	13381
926.138	13244
926.245	13377
926.352	13217
926.459	13350
926.566	13384
926.673	13346
926.779	13099
926.886	13084
926.993	12970
927.099	12993
927.206	12890
927.312	12844
927.419	12996
927.525	12916
927.631	12920
927.737	12886
927.843	12810
927.95	12719
928.056	12741
928.162	12783
928.267	12871
928.373	13419
928.479	12779
928.585	12593
928.69	12700
928.796	12639
928.901	12635
929.007	12426
929.112	12574
929.218	12521
929.323	12494
929.428	12456
929.533	12589
929.638	12445
929.743	12433
929.848	12433
929.953	12407
930.058	12350
930.163	12148
930.267	12117
930.372	12304
930.477	12091
930.581	12281
930.685	12159
930.79	12007
930.894	12049
930.998	12015
931.103	12194
931.207	11790
931.311	11646
931.415	11634
931.519	11478
931.623	11349
