Data from test_V78500241_1536.txt Node
Date: Fri Mar 25 15:52:26 CST 2022
User: usil
Spectrometer: V785-0024
Trigger mode: 0
Integration Time (sec): 4.000000E-1
Scans to average: 1
Nonlinearity correction enabled: false
Boxcar width: 0
Storing dark spectrum: false
XAxis mode: Wavelengths
Number of Pixels in Spectrum: 1024
>>>>>Begin Spectral Data<<<<<
801.071	28325
801.214	28303
801.356	27899
801.499	28021
801.641	27937
801.783	27850
801.926	27812
802.068	27861
802.211	27698
802.353	27679
802.496	27572
802.638	27534
802.78	27336
802.923	27363
803.065	27519
803.208	27443
803.35	27473
803.492	27591
803.635	27618
803.777	27534
803.919	27660
804.061	28067
804.204	27759
804.346	27739
804.488	27572
804.63	27739
804.773	27675
804.915	27884
805.057	27854
805.199	27679
805.341	27964
805.483	27835
805.626	27842
805.768	27720
805.91	27732
806.052	27861
806.194	27793
806.336	27949
806.478	27960
806.62	27941
806.762	28074
806.904	28204
807.046	28409
807.188	28424
807.33	28284
807.472	28360
807.614	28234
807.756	28360
807.898	28257
808.04	28162
808.182	28166
808.324	28215
808.465	28139
808.607	28409
808.749	28645
808.891	28592
809.033	28698
809.174	28599
809.316	28592
809.458	28497
809.6	28554
809.741	28634
809.883	28478
810.025	28850
810.166	28755
810.308	28786
810.45	28778
810.591	28858
810.733	28508
810.875	28462
811.016	28447
811.158	28436
811.299	28607
811.441	28778
811.582	28717
811.724	28531
811.865	28538
812.007	28603
812.148	28485
812.29	28801
812.431	28752
812.573	29025
812.714	28949
812.855	29006
812.997	29147
813.138	29273
813.279	29197
813.421	28915
813.562	28934
813.703	28843
813.845	28858
813.986	28360
814.127	28352
814.268	28192
814.41	28329
814.551	28219
814.692	28226
814.833	28166
814.974	28211
815.115	28154
815.256	28067
815.397	28109
815.539	28120
815.68	28090
815.821	27914
815.962	28070
816.103	27949
816.244	27781
816.385	27804
816.526	27736
816.666	27652
816.807	27431
816.948	27652
817.089	27618
817.23	27485
817.371	27500
817.512	27557
817.653	27477
817.793	27542
817.934	27580
818.075	27519
818.216	27705
818.356	27629
818.497	27405
818.638	27306
818.778	27348
818.919	27329
819.06	27256
819.2	27439
819.341	27606
819.481	27542
819.622	27713
819.762	27838
819.903	27838
820.043	27652
820.184	27854
820.324	27644
820.465	27644
820.605	27686
820.746	27705
820.886	27336
821.026	27530
821.167	27652
821.307	27694
821.447	27530
821.588	27458
821.728	27332
821.868	27131
822.008	27218
822.149	27127
822.289	26929
822.429	26762
822.569	26708
822.709	26785
822.849	26689
822.99	26423
823.13	26537
823.27	26431
823.41	26396
823.55	26324
823.69	26461
823.83	26328
823.97	26347
824.11	26237
824.25	26111
824.389	26115
824.529	26271
824.669	26275
824.809	26476
824.949	26237
825.089	26278
825.228	26313
825.368	26043
825.508	25993
825.648	26145
825.787	26119
825.927	26119
826.067	26039
826.206	26111
826.346	26214
826.485	26039
826.625	26149
826.765	26058
826.904	26046
827.044	25757
827.183	25753
827.323	25757
827.462	25837
827.601	25860
827.741	25712
827.88	25795
828.02	25677
828.159	25734
828.298	25826
828.437	25868
828.577	25799
828.716	25959
828.855	25632
828.994	25430
829.134	25460
829.273	25540
829.412	25445
829.551	25483
829.69	25419
829.829	25396
829.968	25552
830.107	25506
830.246	25613
830.385	25460
830.524	25422
830.663	25327
830.802	25122
830.941	25057
831.08	24973
831.219	25156
831.357	25152
831.496	25415
831.635	25118
831.774	24966
831.913	25023
832.051	24924
832.19	24779
832.329	24810
832.467	24787
832.606	24616
832.744	24696
832.883	24760
833.022	24673
833.16	24783
833.299	24787
833.437	24688
833.576	24867
833.714	24730
833.852	24932
833.991	24840
834.129	24814
834.267	24928
834.406	24859
834.544	24894
834.682	24829
834.821	24753
834.959	24951
835.097	24734
835.235	24932
835.373	24787
835.511	24654
835.65	24582
835.788	24646
835.926	24665
836.064	24475
836.202	24505
836.34	24570
836.478	24749
836.615	24551
836.753	24642
836.891	24764
837.029	24707
837.167	24585
837.305	24467
837.443	24479
837.58	24505
837.718	24555
837.856	24623
837.993	24399
838.131	24635
838.269	24350
838.406	24467
838.544	24201
838.681	24239
838.819	24018
838.956	23935
839.094	23840
839.231	24079
839.369	24018
839.506	24220
839.643	24262
839.781	23904
839.918	23821
840.055	23973
840.193	23973
840.33	23950
840.467	23821
840.604	23965
840.742	24072
840.879	23790
841.016	23786
841.153	23680
841.29	23885
841.427	23817
841.564	23992
841.701	23764
841.838	23760
841.975	23748
842.112	23775
842.249	23634
842.385	23653
842.522	23802
842.659	23642
842.796	23516
842.933	23653
843.069	23596
843.206	23589
843.343	23653
843.479	23463
843.616	23554
843.752	23463
843.889	23444
844.025	23467
844.162	23360
844.298	23349
844.435	23303
844.571	23395
844.708	23387
844.844	23524
844.98	23531
845.117	23486
845.253	23296
845.389	23242
845.525	23193
845.661	23200
845.798	23094
845.934	23117
846.07	23090
846.206	23132
846.342	23151
846.478	23006
846.614	22953
846.75	22820
846.886	22797
847.022	22866
847.158	22892
847.294	22774
847.429	22923
847.565	22790
847.701	23083
847.837	22535
847.972	22443
848.108	22630
848.244	22580
848.379	22531
848.515	22474
848.65	22379
848.786	22474
848.921	22421
849.057	22542
849.192	22531
849.328	22512
849.463	22325
849.598	22379
849.734	22352
849.869	22322
850.004	22226
850.14	22112
850.275	22181
850.41	22158
850.545	22109
850.68	22082
850.815	22215
850.95	22143
851.085	22344
851.22	22246
851.355	22226
851.49	22295
851.625	22162
851.76	22162
851.895	22150
852.03	21994
852.165	22173
852.299	22249
852.434	22246
852.569	22120
852.703	22188
852.838	22249
852.973	22272
853.107	22329
853.242	22082
853.376	22105
853.511	21816
853.645	22002
853.78	22150
853.914	22036
854.048	22055
854.183	21972
854.317	22070
854.451	22147
854.585	22090
854.72	22059
854.854	22067
854.988	21838
855.122	22013
855.256	21876
855.39	21975
855.524	22082
855.658	22112
855.792	22090
855.926	22116
856.06	22059
856.194	22147
856.327	22048
856.461	21861
856.595	21979
856.729	21945
856.862	22162
856.996	22017
857.13	22040
857.263	21991
857.397	22067
857.53	21956
857.664	21934
857.797	22002
857.931	22109
858.064	22086
858.197	22116
858.331	22055
858.464	21956
858.597	21892
858.731	21956
858.864	21998
858.997	21915
859.13	21941
859.263	22017
859.396	22086
859.529	21968
859.662	21926
859.795	22021
859.928	22040
860.061	22006
860.194	22188
860.327	22093
860.46	22055
860.592	22265
860.725	22166
860.858	22055
860.99	22116
861.123	21945
861.256	22002
861.388	21857
861.521	22481
861.653	21941
861.786	21850
861.918	21922
862.05	21930
862.183	21994
862.315	21972
862.447	22025
862.58	21941
862.712	21747
862.844	21580
862.976	21709
863.108	21762
863.24	22181
863.372	21652
863.504	21800
863.636	21633
863.768	21667
863.9	21736
864.032	21610
864.164	21736
864.296	21797
864.428	21762
864.559	21812
864.691	21857
864.823	21743
864.954	21724
865.086	21743
865.217	21625
865.349	21542
865.48	21629
865.612	21660
865.743	21819
865.875	21614
866.006	21637
866.137	21496
866.269	21641
866.4	21572
866.531	21603
866.662	21488
866.793	21591
866.924	21538
867.055	21591
867.186	21622
867.317	21389
867.448	21462
867.579	21481
867.71	21572
867.841	21481
867.972	21561
868.103	21488
868.233	21473
868.364	21530
868.495	21682
868.625	21762
868.756	21728
868.886	21747
869.017	21747
869.147	21816
869.278	21747
869.408	21854
869.539	21717
869.669	21800
869.799	21899
869.929	21838
870.06	21846
870.19	22059
870.32	22128
870.45	22021
870.58	22261
870.71	22234
870.84	22280
870.97	22090
871.1	22147
871.23	22246
871.36	22379
871.489	22200
871.619	22440
871.749	22451
871.879	22325
872.008	22653
872.138	22386
872.267	22440
872.397	22306
872.526	22219
872.656	22295
872.785	22067
872.915	22402
873.044	22455
873.173	22333
873.303	22375
873.432	22379
873.561	22577
873.69	22341
873.819	22523
873.948	22371
874.077	22489
874.206	22382
874.335	22402
874.464	22390
874.593	22653
874.722	22611
874.851	22618
874.979	22664
875.108	22577
875.237	22607
875.365	22424
875.494	22615
875.623	22694
875.751	22554
875.88	22519
876.008	22790
876.136	22778
876.265	22984
876.393	23052
876.521	23147
876.65	23029
876.778	23052
876.906	23056
877.034	22957
877.162	22957
877.29	22900
877.418	22949
877.546	22828
877.674	22847
877.802	22889
877.93	22839
878.058	22911
878.185	22797
878.313	22900
878.441	22911
878.568	22839
878.696	22896
878.824	22995
878.951	22938
879.079	23128
879.206	23159
879.333	23193
879.461	22923
879.588	22999
879.715	23132
879.842	23235
879.97	23124
880.097	22740
880.224	22672
880.351	22854
880.478	22691
880.605	22717
880.732	22687
880.859	22953
880.986	22660
881.112	22752
881.239	22615
881.366	22668
881.493	22455
881.619	22352
881.746	22363
881.872	22325
881.999	22322
882.125	22154
882.252	22344
882.378	22207
882.505	22310
882.631	22211
882.757	22059
882.883	21994
883.01	22101
883.136	22029
883.262	21873
883.388	21892
883.514	21975
883.64	22055
883.766	21975
883.892	21816
884.018	21846
884.143	21918
884.269	22090
884.395	21705
884.52	21637
884.646	21701
884.772	21667
884.897	21549
885.023	21671
885.148	21793
885.274	21698
885.399	21857
885.524	21553
885.65	21724
885.775	21553
885.9	21641
886.025	21766
886.15	21747
886.275	21595
886.4	21454
886.525	21614
886.65	21561
886.775	21492
886.9	21641
887.025	21926
887.149	21511
887.274	21557
887.399	21428
887.523	21500
887.648	21389
887.773	21321
887.897	21469
888.021	21462
888.146	21287
888.27	21549
888.395	21458
888.519	21507
888.643	21466
888.767	21435
888.891	21367
889.015	21207
889.139	21150
889.263	21176
889.387	21302
889.511	21496
889.635	21291
889.759	21188
889.883	21055
890.006	21192
890.13	21306
890.254	21161
890.377	21001
890.501	20910
890.624	20998
890.748	21001
890.871	20754
890.995	20712
891.118	20617
891.241	20758
891.364	20724
891.488	20925
891.611	20842
891.734	20788
891.857	20792
891.98	20674
892.103	20705
892.226	20701
892.349	20697
892.471	20598
892.594	20689
892.717	20720
892.839	20568
892.962	20648
893.085	20773
893.207	20674
893.33	20533
893.452	20526
893.575	20781
893.697	20651
893.819	20815
893.941	20823
894.064	20800
894.186	20674
894.308	20621
894.43	20651
894.552	20781
894.674	20716
894.796	20644
894.918	20716
895.04	20568
895.161	20838
895.283	20663
895.405	20613
895.526	20716
895.648	20648
895.769	20613
895.891	20697
896.012	20777
896.134	20686
896.255	20781
896.376	20602
896.498	20724
896.619	20735
896.74	20522
896.861	20621
896.982	20982
897.103	21066
897.224	20834
897.345	20929
897.466	20823
897.587	20990
897.708	20872
897.828	20899
897.949	20883
898.07	20648
898.19	20804
898.311	20883
898.431	20887
898.552	20891
898.672	20876
898.792	20853
898.913	20769
899.033	20705
899.153	20621
899.273	20644
899.393	20587
899.513	20556
899.633	20613
899.753	20629
899.873	20492
899.993	20609
900.113	20571
900.232	20518
900.352	20560
900.472	20374
900.591	20320
900.711	20465
900.83	20271
900.95	20514
901.069	20450
901.189	20256
901.308	20035
901.427	20016
901.546	19913
901.665	19928
901.784	19913
901.904	19875
902.023	19772
902.141	19510
902.26	19449
902.379	19590
902.498	19502
902.617	19400
902.735	19533
902.854	19396
902.973	19312
903.091	19118
903.21	19053
903.328	19114
903.446	19084
903.565	18924
903.683	18996
903.801	18840
903.919	18932
904.038	18852
904.156	18669
904.274	18856
904.392	18677
904.51	18646
904.627	18532
904.745	18661
904.863	18745
904.981	18498
905.098	18372
905.216	18350
905.334	18361
905.451	18448
905.569	18353
905.686	18369
905.803	18266
905.921	18083
906.038	18213
906.155	18171
906.272	18003
906.389	18003
906.506	17935
906.623	17969
906.74	17752
906.857	17726
906.974	17813
907.091	17946
907.208	17969
907.324	17882
907.441	17733
907.557	17657
907.674	17577
907.79	17516
907.907	17520
908.023	17589
908.139	17566
908.256	17474
908.372	17478
908.488	17398
908.604	17284
908.72	17364
908.836	17383
908.952	17220
909.068	17326
909.184	17406
909.3	17398
909.415	17360
909.531	17242
909.647	17045
909.762	16949
909.878	16934
909.993	17113
910.108	16972
910.224	17018
910.339	17033
910.454	16904
910.57	16767
910.685	16713
910.8	16923
910.915	16957
911.03	16752
911.145	16634
911.259	16580
911.374	16626
911.489	16550
911.604	16405
911.718	16367
911.833	16382
911.947	16287
912.062	16139
912.176	16318
912.291	16367
912.405	16371
912.519	16538
912.633	16493
912.748	16360
912.862	16173
912.976	16261
913.09	16055
913.204	16101
913.318	16147
913.431	16291
913.545	16211
913.659	16352
913.772	16059
913.886	15964
914	15884
914.113	16105
914.226	16059
914.34	15880
914.453	15876
914.566	15998
914.68	15778
914.793	15778
914.906	15568
915.019	15519
915.132	15408
915.245	15557
915.358	15530
915.47	15595
915.583	15526
915.696	15564
915.809	15641
915.921	15698
916.034	15439
916.146	15523
916.259	15473
916.371	15488
916.483	15424
916.595	15355
916.708	15386
916.82	15351
916.932	15344
917.044	15264
917.156	15321
917.268	15146
917.38	15199
917.491	15150
917.603	15062
917.715	15199
917.826	15233
917.938	15199
918.049	14910
918.161	15043
918.272	15279
918.384	15237
918.495	15077
918.606	14868
918.717	14952
918.828	14902
918.939	14986
919.05	14746
919.161	14921
919.272	14697
919.383	14819
919.494	14868
919.604	15074
919.715	14956
919.826	14811
919.936	14925
920.047	14891
920.157	14868
920.267	15017
920.378	14811
920.488	14830
920.598	15039
920.708	15222
920.818	14937
920.928	14963
921.038	15108
921.148	14990
921.258	14811
921.368	14811
921.477	14518
921.587	14602
921.697	14499
921.806	14644
921.916	14488
922.025	14381
922.134	14240
922.244	14248
922.353	14309
922.462	14244
922.571	14157
922.68	13959
922.789	13906
922.898	13936
923.007	13780
923.116	13944
923.224	13712
923.333	13906
923.442	13822
923.55	13632
923.659	13814
923.767	13894
923.876	13662
923.984	13704
924.092	13586
924.201	13613
924.309	13628
924.417	13620
924.525	13586
924.633	13533
924.741	14469
924.849	13308
924.956	13525
925.064	13282
925.172	13247
925.279	13240
925.387	13293
925.494	13297
925.602	13343
925.709	13240
925.816	13118
925.924	13304
926.031	13236
926.138	13255
926.245	13289
926.352	13179
926.459	13202
926.566	13232
926.673	13099
926.779	13027
926.886	13023
926.993	12932
927.099	12825
927.206	12757
927.312	12768
927.419	12787
927.525	12806
927.631	12890
927.737	12760
927.843	12654
927.95	12544
928.056	12555
928.162	12616
928.267	12764
928.373	13244
928.479	12734
928.585	12494
928.69	12601
928.796	12620
928.901	12448
929.007	12369
929.112	12570
929.218	12483
929.323	12441
929.428	12365
929.533	12494
929.638	12296
929.743	12304
929.848	12311
929.953	12334
930.058	12262
930.163	11999
930.267	12121
930.372	12216
930.477	11973
930.581	12213
930.685	12057
930.79	11996
930.894	11950
930.998	11942
931.103	12019
931.207	11585
931.311	11566
931.415	11486
931.519	11201
931.623	11303
