Data from test_V78500241_3260.txt Node
Date: Fri Mar 25 16:04:23 CST 2022
User: usil
Spectrometer: V785-0024
Trigger mode: 0
Integration Time (sec): 4.000000E-1
Scans to average: 1
Nonlinearity correction enabled: false
Boxcar width: 0
Storing dark spectrum: false
XAxis mode: Wavelengths
Number of Pixels in Spectrum: 1024
>>>>>Begin Spectral Data<<<<<
801.071	28763
801.214	28691
801.356	28489
801.499	28489
801.641	28223
801.783	28348
801.926	28512
802.068	28432
802.211	28143
802.353	28223
802.496	28158
802.638	28013
802.78	28025
802.923	27972
803.065	27949
803.208	27888
803.35	28013
803.492	28181
803.635	28344
803.777	28257
803.919	28284
804.061	28637
804.204	28386
804.346	28131
804.488	28109
804.63	28352
804.773	28196
804.915	28398
805.057	28413
805.199	28390
805.341	28424
805.483	28451
805.626	28417
805.768	28333
805.91	28489
806.052	28519
806.194	28409
806.336	28630
806.478	28436
806.62	28432
806.762	28630
806.904	28733
807.046	28938
807.188	28877
807.33	28900
807.472	28881
807.614	28763
807.756	28892
807.898	28828
808.04	28694
808.182	28683
808.324	28839
808.465	28831
808.607	29140
808.749	29086
808.891	29136
809.033	29220
809.174	29189
809.316	29204
809.458	29193
809.6	29079
809.741	29246
809.883	29189
810.025	29429
810.166	29459
810.308	29520
810.45	29212
810.591	29421
810.733	29197
810.875	29056
811.016	29025
811.158	29075
811.299	29227
811.441	29318
811.582	29341
811.724	29216
811.865	29041
812.007	29220
812.148	29265
812.29	29273
812.431	29284
812.573	29512
812.714	29554
812.855	29771
812.997	29748
813.138	29942
813.279	29866
813.421	29737
813.562	29661
813.703	29383
813.845	29353
813.986	29204
814.127	28911
814.268	28862
814.41	28847
814.551	28923
814.692	28946
814.833	28786
814.974	28858
815.115	28946
815.256	28782
815.397	28850
815.539	28744
815.68	28634
815.821	28554
815.962	28755
816.103	28729
816.244	28561
816.385	28478
816.526	28466
816.666	28287
816.807	28188
816.948	28246
817.089	28272
817.23	28169
817.371	28226
817.512	28154
817.653	28204
817.793	28242
817.934	28181
818.075	28162
818.216	28196
818.356	28246
818.497	28173
818.638	28006
818.778	28021
818.919	28021
819.06	27991
819.2	28109
819.341	28299
819.481	28124
819.622	28398
819.762	28717
819.903	28382
820.043	28405
820.184	28405
820.324	28337
820.465	28352
820.605	28352
820.746	28394
820.886	28074
821.026	28295
821.167	28238
821.307	28303
821.447	28162
821.588	28150
821.728	28002
821.868	27876
822.008	27838
822.149	27701
822.289	27701
822.429	27500
822.569	27397
822.709	27412
822.849	27294
822.99	27268
823.13	27131
823.27	27123
823.41	27066
823.55	26940
823.69	27138
823.83	27173
823.97	26971
824.11	26861
824.25	26830
824.389	26823
824.529	26838
824.669	26902
824.809	26899
824.949	26872
825.089	27001
825.228	26891
825.368	26644
825.508	26670
825.648	26724
825.787	26796
825.927	26952
826.067	26674
826.206	26777
826.346	26887
826.485	26644
826.625	26781
826.765	26940
826.904	26754
827.044	26537
827.183	26507
827.323	26427
827.462	26541
827.601	26602
827.741	26651
827.88	26469
828.02	26480
828.159	26473
828.298	26396
828.437	26575
828.577	26438
828.716	26579
828.855	26362
828.994	26199
829.134	26138
829.273	26195
829.412	26043
829.551	25959
829.69	26138
829.829	26081
829.968	26210
830.107	26248
830.246	26126
830.385	26077
830.524	26218
830.663	25868
830.802	25875
830.941	25799
831.08	25704
831.219	25753
831.357	25890
831.496	25947
831.635	25833
831.774	25704
831.913	25746
832.051	25655
832.19	25567
832.329	25563
832.467	25499
832.606	25373
832.744	25392
832.883	25392
833.022	25411
833.16	25396
833.299	25635
833.437	25479
833.576	25502
833.714	25419
833.852	25597
833.991	25578
834.129	25609
834.267	25578
834.406	25457
834.544	25499
834.682	25460
834.821	25529
834.959	25738
835.097	25502
835.235	25502
835.373	25510
835.511	25537
835.65	25148
835.788	25327
835.926	25270
836.064	25023
836.202	25133
836.34	25335
836.478	25358
836.615	25247
836.753	25301
836.891	25381
837.029	25327
837.167	25247
837.305	25206
837.443	25190
837.58	25110
837.718	25133
837.856	25122
837.993	25126
838.131	25148
838.269	24962
838.406	25057
838.544	24947
838.681	24776
838.819	24791
838.956	24631
839.094	24585
839.231	24608
839.369	24806
839.506	24996
839.643	24787
839.781	24616
839.918	24498
840.055	24578
840.193	24646
840.33	24407
840.467	24426
840.604	24677
840.742	24734
840.879	24254
841.016	24517
841.153	24353
841.29	24582
841.427	24490
841.564	24490
841.701	24445
841.838	24426
841.975	24456
842.112	24513
842.249	24216
842.385	24395
842.522	24517
842.659	24399
842.796	24194
842.933	24247
843.069	24262
843.206	24235
843.343	24437
843.479	24281
843.616	24372
843.752	24041
843.889	24079
844.025	24159
844.162	24011
844.298	24057
844.435	24072
844.571	24057
844.708	24083
844.844	24182
844.98	24041
845.117	24220
845.253	23942
845.389	23832
845.525	23859
845.661	23920
845.798	23802
845.934	23813
846.07	23729
846.206	23813
846.342	23927
846.478	23779
846.614	23638
846.75	23455
846.886	23417
847.022	23528
847.158	23630
847.294	23429
847.429	23474
847.565	23520
847.701	23687
847.837	23159
847.972	23136
848.108	23296
848.244	23250
848.379	23178
848.515	23003
848.65	23048
848.786	23109
848.921	23056
849.057	23181
849.192	23239
849.328	23208
849.463	23098
849.598	22984
849.734	22995
849.869	23022
850.004	22904
850.14	22999
850.275	22923
850.41	22755
850.545	22847
850.68	22908
850.815	22976
850.95	22915
851.085	23010
851.22	22972
851.355	22850
851.49	22923
851.625	22881
851.76	22740
851.895	22721
852.03	22683
852.165	22828
852.299	22786
852.434	22965
852.569	22919
852.703	22790
852.838	22896
852.973	23033
853.107	22946
853.242	22797
853.376	22675
853.511	22573
853.645	22660
853.78	22763
853.914	22748
854.048	22577
854.183	22687
854.317	22744
854.451	22885
854.585	22577
854.72	22656
854.854	22774
854.988	22740
855.122	22694
855.256	22565
855.39	22687
855.524	22767
855.658	22660
855.792	22721
855.926	22630
856.06	22668
856.194	22710
856.327	22698
856.461	22546
856.595	22721
856.729	22584
856.862	22866
856.996	22717
857.13	22744
857.263	22744
857.397	22740
857.53	22653
857.664	22778
857.797	22706
857.931	22820
858.064	22721
858.197	22740
858.331	22546
858.464	22713
858.597	22485
858.731	22603
858.864	22622
858.997	22634
859.13	22634
859.263	22805
859.396	22820
859.529	22577
859.662	22626
859.795	22599
859.928	22626
860.061	22793
860.194	22930
860.327	22767
860.46	22790
860.592	22847
860.725	22824
860.858	22877
860.99	22668
861.123	22584
861.256	22588
861.388	22694
861.521	23200
861.653	22599
861.786	22485
861.918	22577
862.05	22516
862.183	22538
862.315	22634
862.447	22660
862.58	22744
862.712	22356
862.844	22280
862.976	22584
863.108	22504
863.24	22683
863.372	22405
863.504	22333
863.636	22325
863.768	22424
863.9	22402
864.032	22379
864.164	22379
864.296	22348
864.428	22538
864.559	22451
864.691	22421
864.823	22424
864.954	22272
865.086	22291
865.217	22284
865.349	22204
865.48	22314
865.612	22337
865.743	22394
865.875	22226
866.006	22303
866.137	22177
866.269	22299
866.4	22246
866.531	22363
866.662	22116
866.793	22246
866.924	22196
867.055	22196
867.186	22185
867.317	22234
867.448	22128
867.579	22120
867.71	22150
867.841	22169
867.972	22211
868.103	22158
868.233	22192
868.364	22169
868.495	22367
868.625	22417
868.756	22516
868.886	22375
869.017	22478
869.147	22596
869.278	22588
869.408	22531
869.539	22538
869.669	22603
869.799	22550
869.929	22592
870.06	22546
870.19	22713
870.32	22694
870.45	22835
870.58	22790
870.71	22767
870.84	22919
870.97	22881
871.1	22828
871.23	23102
871.36	23056
871.489	22946
871.619	22942
871.749	23094
871.879	22942
872.008	23113
872.138	22999
872.267	23010
872.397	22839
872.526	22854
872.656	22930
872.785	22850
872.915	23037
873.044	23041
873.173	23105
873.303	23117
873.432	23067
873.561	23155
873.69	22984
873.819	23075
873.948	23185
874.077	23014
874.206	22949
874.335	22896
874.464	23109
874.593	23292
874.722	23193
874.851	23197
874.979	23128
875.108	23311
875.237	23185
875.365	23140
875.494	23273
875.623	23349
875.751	23261
875.88	23337
876.008	23387
876.136	23512
876.265	23680
876.393	23680
876.521	23722
876.65	23779
876.778	23600
876.906	23585
877.034	23543
877.162	23649
877.29	23627
877.418	23596
877.546	23558
877.674	23615
877.802	23608
877.93	23638
878.058	23505
878.185	23448
878.313	23535
878.441	23501
878.568	23490
878.696	23376
878.824	23684
878.951	23668
879.079	23786
879.206	23817
879.333	23775
879.461	23577
879.588	23809
879.715	23691
879.842	23927
879.97	23729
880.097	23368
880.224	23478
880.351	23531
880.478	23376
880.605	23315
880.732	23372
880.859	23608
880.986	23417
881.112	23474
881.239	23242
881.366	23220
881.493	23113
881.619	22980
881.746	23022
881.872	22991
881.999	22839
882.125	22942
882.252	22930
882.378	22968
882.505	23022
882.631	22736
882.757	22618
882.883	22797
883.01	22702
883.136	22630
883.262	22485
883.388	22519
883.514	22744
883.64	22713
883.766	22565
883.892	22356
884.018	22459
884.143	22588
884.269	22599
884.395	22390
884.52	22188
884.646	22318
884.772	22337
884.897	22162
885.023	22257
885.148	22303
885.274	22398
885.399	22394
885.524	22421
885.65	22257
885.775	22329
885.9	22249
886.025	22322
886.15	22265
886.275	22169
886.4	22131
886.525	22185
886.65	22215
886.775	22173
886.9	22440
887.025	22413
887.149	22261
887.274	21991
887.399	21972
887.523	22105
887.648	21941
887.773	21876
887.897	22150
888.021	22040
888.146	21987
888.27	22063
888.395	21972
888.519	22147
888.643	22063
888.767	22074
888.891	21934
889.015	21876
889.139	21842
889.263	21732
889.387	21835
889.511	22025
889.635	21991
889.759	21873
889.883	21762
890.006	21682
890.13	21987
890.254	21747
890.377	21709
890.501	21553
890.624	21534
890.748	21583
890.871	21477
890.995	21374
891.118	21321
891.241	21485
891.364	21443
891.488	21519
891.611	21393
891.734	21283
891.857	21439
891.98	21313
892.103	21313
892.226	21336
892.349	21184
892.471	21173
892.594	21329
892.717	21275
892.839	21127
892.962	21287
893.085	21283
893.207	21184
893.33	21256
893.452	21127
893.575	21294
893.697	21138
893.819	21420
893.941	21477
894.064	21249
894.186	21207
894.308	21154
894.43	21310
894.552	21329
894.674	21397
894.796	21214
894.918	21055
895.04	21123
895.161	21351
895.283	21367
895.405	21123
895.526	21218
895.648	21287
895.769	21252
895.891	21157
896.012	21283
896.134	21214
896.255	21195
896.376	21241
896.498	21199
896.619	21298
896.74	21283
896.861	21294
896.982	21496
897.103	21705
897.224	21511
897.345	21416
897.466	21344
897.587	21496
897.708	21462
897.828	21447
897.949	21443
898.07	21260
898.19	21469
898.311	21355
898.431	21355
898.552	21367
898.672	21420
898.792	21389
898.913	21500
899.033	21237
899.153	21211
899.273	21199
899.393	21188
899.513	21192
899.633	21112
899.753	21218
899.873	21089
899.993	21127
900.113	21100
900.232	21085
900.352	20960
900.472	20872
900.591	20823
900.711	20941
900.83	20861
900.95	21062
901.069	20990
901.189	20796
901.308	20590
901.427	20457
901.546	20511
901.665	20484
901.784	20442
901.904	20374
902.023	20256
902.141	20012
902.26	20073
902.379	20119
902.498	20039
902.617	19833
902.735	20020
902.854	19936
902.973	19906
903.091	19708
903.21	19601
903.328	19655
903.446	19563
903.565	19426
903.683	19339
903.801	19274
903.919	19362
904.038	19381
904.156	19206
904.274	19339
904.392	19160
904.51	19247
904.627	19129
904.745	19179
904.863	19171
904.981	18973
905.098	18787
905.216	18848
905.334	18821
905.451	18901
905.569	18844
905.686	18954
905.803	18787
905.921	18783
906.038	18829
906.155	18658
906.272	18688
906.389	18517
906.506	18384
906.623	18407
906.74	18437
906.857	18292
906.974	18209
907.091	18365
907.208	18460
907.324	18350
907.441	18140
907.557	18114
907.674	18110
907.79	18125
907.907	18053
908.023	17999
908.139	18190
908.256	18041
908.372	17931
908.488	17923
908.604	17866
908.72	17786
908.836	17920
908.952	17783
909.068	17817
909.184	17889
909.3	17821
909.415	17767
909.531	17722
909.647	17589
909.762	17482
909.878	17349
909.993	17482
910.108	17486
910.224	17395
910.339	17490
910.454	17406
910.57	17269
910.685	17227
910.8	17493
910.915	17398
911.03	17250
911.145	17220
911.259	16999
911.374	17124
911.489	17128
911.604	16953
911.718	16839
911.833	16877
911.947	16721
912.062	16577
912.176	16816
912.291	16812
912.405	16717
912.519	16949
912.633	17018
912.748	16923
912.862	16881
912.976	16672
913.09	16481
913.204	16561
913.318	16713
913.431	16641
913.545	16733
913.659	16763
913.772	16660
913.886	16615
914	16367
914.113	16485
914.226	16523
914.34	16421
914.453	16280
914.566	16371
914.68	16246
914.793	16226
914.906	16036
915.019	16082
915.132	15964
915.245	15937
915.358	15960
915.47	16074
915.583	15915
915.696	15884
915.809	16010
915.921	16128
916.034	15850
916.146	15922
916.259	15835
916.371	16010
916.483	15911
916.595	15774
916.708	15861
916.82	15869
916.932	15899
917.044	15641
917.156	15675
917.268	15568
917.38	15663
917.491	15515
917.603	15492
917.715	15701
917.826	15606
917.938	15599
918.049	15447
918.161	15618
918.272	15606
918.384	15557
918.495	15526
918.606	15363
918.717	15317
918.828	15367
918.939	15412
919.05	15222
919.161	15431
919.272	15176
919.383	15146
919.494	15252
919.604	15481
919.715	15340
919.826	15218
919.936	15264
920.047	15405
920.157	15329
920.267	15450
920.378	15272
920.488	15317
920.598	15481
920.708	15538
920.818	15340
920.928	15355
921.038	15622
921.148	15511
921.258	15184
921.368	15161
921.477	14990
921.587	14982
921.697	14910
921.806	14990
921.916	14804
922.025	14724
922.134	14632
922.244	14545
922.353	14693
922.462	14583
922.571	14461
922.68	14336
922.789	14172
922.898	14358
923.007	14221
923.116	14256
923.224	14145
923.333	14229
923.442	14134
923.55	14039
923.659	14142
923.767	14229
923.876	14065
923.984	14065
924.092	14005
924.201	13986
924.309	14020
924.417	13970
924.525	13913
924.633	13970
924.741	14750
924.849	13685
924.956	13860
925.064	13696
925.172	13548
925.279	13765
925.387	13799
925.494	13662
925.602	13841
925.709	13677
925.816	13582
925.924	13628
926.031	13620
926.138	13537
926.245	13666
926.352	13430
926.459	13674
926.566	13616
926.673	13384
926.779	13343
926.886	13396
926.993	13156
927.099	13274
927.206	13050
927.312	13206
927.419	13202
927.525	13171
927.631	13225
927.737	13099
927.843	13061
927.95	12985
928.056	13038
928.162	13072
928.267	13038
928.373	13533
928.479	13133
928.585	12844
928.69	12977
928.796	13019
928.901	12837
929.007	12684
929.112	12829
929.218	12779
929.323	12711
929.428	12715
929.533	12852
929.638	12715
929.743	12635
929.848	12612
929.953	12631
930.058	12502
930.163	12327
930.267	12479
930.372	12460
930.477	12365
930.581	12528
930.685	12334
930.79	12258
930.894	12300
930.998	12182
931.103	12353
931.207	11980
931.311	11973
931.415	11878
931.519	11695
931.623	11585
