Data from test_V78500241_2961.txt Node
Date: Fri Mar 25 16:02:18 CST 2022
User: usil
Spectrometer: V785-0024
Trigger mode: 0
Integration Time (sec): 4.000000E-1
Scans to average: 1
Nonlinearity correction enabled: false
Boxcar width: 0
Storing dark spectrum: false
XAxis mode: Wavelengths
Number of Pixels in Spectrum: 1024
>>>>>Begin Spectral Data<<<<<
801.071	28873
801.214	28854
801.356	28653
801.499	28588
801.641	28672
801.783	28284
801.926	28569
802.068	28500
802.211	28527
802.353	28310
802.496	28177
802.638	28223
802.78	28166
802.923	28196
803.065	28272
803.208	28063
803.35	28223
803.492	28314
803.635	28462
803.777	28363
803.919	28424
804.061	28774
804.204	28660
804.346	28409
804.488	28481
804.63	28504
804.773	28348
804.915	28531
805.057	28516
805.199	28535
805.341	28470
805.483	28512
805.626	28512
805.768	28478
805.91	28561
806.052	28653
806.194	28428
806.336	28752
806.478	28641
806.62	28706
806.762	28744
806.904	28961
807.046	29014
807.188	29098
807.33	29079
807.472	29258
807.614	29033
807.756	29067
807.898	28976
808.04	28839
808.182	28892
808.324	28972
808.465	29064
808.607	29189
808.749	29368
808.891	29368
809.033	29402
809.174	29292
809.316	29368
809.458	29288
809.6	29239
809.741	29318
809.883	29444
810.025	29562
810.166	29535
810.308	29566
810.45	29558
810.591	29577
810.733	29311
810.875	29345
811.016	29273
811.158	29360
811.299	29353
811.441	29600
811.582	29547
811.724	29345
811.865	29307
812.007	29398
812.148	29345
812.29	29486
812.431	29589
812.573	29695
812.714	29729
812.855	29771
812.997	29923
813.138	30060
813.279	29878
813.421	29954
813.562	29840
813.703	29623
813.845	29634
813.986	29193
814.127	29022
814.268	29033
814.41	29079
814.551	28892
814.692	28976
814.833	29003
814.974	28972
815.115	29037
815.256	28927
815.397	28946
815.539	29037
815.68	28835
815.821	28782
815.962	28953
816.103	28873
816.244	28797
816.385	28599
816.526	28725
816.666	28436
816.807	28436
816.948	28356
817.089	28421
817.23	28428
817.371	28242
817.512	28242
817.653	28207
817.793	28325
817.934	28310
818.075	28363
818.216	28379
818.356	28246
818.497	28341
818.638	28051
818.778	27998
818.919	28143
819.06	28234
819.2	28318
819.341	28409
819.481	28367
819.622	28523
819.762	28809
819.903	28641
820.043	28656
820.184	28577
820.324	28516
820.465	28493
820.605	28443
820.746	28489
820.886	28535
821.026	28580
821.167	28577
821.307	28440
821.447	28428
821.588	28356
821.728	28093
821.868	28112
822.008	27991
822.149	27816
822.289	27736
822.429	27641
822.569	27545
822.709	27595
822.849	27424
822.99	27412
823.13	27268
823.27	27310
823.41	27188
823.55	27119
823.69	27180
823.83	27211
823.97	27146
824.11	26910
824.25	26910
824.389	27203
824.529	27036
824.669	27036
824.809	27302
824.949	27017
825.089	27192
825.228	27077
825.368	26880
825.508	26849
825.648	26845
825.787	27077
825.927	27138
826.067	26895
826.206	26849
826.346	26921
826.485	26944
826.625	26853
826.765	26998
826.904	26975
827.044	26826
827.183	26743
827.323	26720
827.462	26746
827.601	26674
827.741	26697
827.88	26625
828.02	26507
828.159	26522
828.298	26507
828.437	26568
828.577	26571
828.716	26579
828.855	26648
828.994	26427
829.134	26370
829.273	26423
829.412	26233
829.551	26206
829.69	26320
829.829	26385
829.968	26431
830.107	26381
830.246	26336
830.385	26263
830.524	26218
830.663	26065
830.802	26039
830.941	25902
831.08	25951
831.219	25951
831.357	26081
831.496	26119
831.635	25913
831.774	25955
831.913	25811
832.051	25742
832.19	25712
832.329	25674
832.467	25643
832.606	25460
832.744	25575
832.883	25708
833.022	25510
833.16	25632
833.299	25559
833.437	25666
833.576	25662
833.714	25559
833.852	25601
833.991	25704
834.129	25719
834.267	25620
834.406	25677
834.544	25757
834.682	25655
834.821	25514
834.959	25887
835.097	25540
835.235	25620
835.373	25670
835.511	25613
835.65	25594
835.788	25434
835.926	25453
836.064	25240
836.202	25343
836.34	25441
836.478	25552
836.615	25339
836.753	25544
836.891	25529
837.029	25445
837.167	25438
837.305	25453
837.443	25354
837.58	25312
837.718	25441
837.856	25537
837.993	25270
838.131	25183
838.269	25202
838.406	25278
838.544	25099
838.681	24928
838.819	24928
838.956	24814
839.094	24867
839.231	24863
839.369	24875
839.506	25168
839.643	24935
839.781	24814
839.918	24791
840.055	24692
840.193	24700
840.33	24604
840.467	24673
840.604	24772
840.742	24871
840.879	24661
841.016	24593
841.153	24528
841.29	24753
841.427	24597
841.564	24814
841.701	24623
841.838	24661
841.975	24513
842.112	24601
842.249	24517
842.385	24319
842.522	24715
842.659	24456
842.796	24525
842.933	24490
843.069	24437
843.206	24429
843.343	24479
843.479	24574
843.616	24365
843.752	24205
843.889	24216
844.025	24285
844.162	24232
844.298	24315
844.435	24144
844.571	24254
844.708	24190
844.844	24388
844.98	24467
845.117	24243
845.253	24136
845.389	24117
845.525	24053
845.661	24049
845.798	23779
845.934	23866
846.07	23847
846.206	24026
846.342	24140
846.478	23870
846.614	23608
846.75	23611
846.886	23554
847.022	23699
847.158	23718
847.294	23760
847.429	23657
847.565	23589
847.701	23828
847.837	23417
847.972	23258
848.108	23535
848.244	23379
848.379	23162
848.515	23121
848.65	23269
848.786	23273
848.921	23250
849.057	23318
849.192	23376
849.328	23284
849.463	23353
849.598	23231
849.734	23197
849.869	23064
850.004	23018
850.14	23071
850.275	22961
850.41	22877
850.545	22942
850.68	22877
850.815	23094
850.95	23044
851.085	23136
851.22	23128
851.355	22949
851.49	22999
851.625	22995
851.76	23018
851.895	22946
852.03	22869
852.165	22911
852.299	22987
852.434	23242
852.569	23056
852.703	22957
852.838	23162
852.973	23121
853.107	23185
853.242	22946
853.376	22972
853.511	22710
853.645	22771
853.78	22961
853.914	22877
854.048	22729
854.183	22759
854.317	22847
854.451	22987
854.585	22812
854.72	22889
854.854	22736
854.988	22820
855.122	22854
855.256	22694
855.39	22778
855.524	22938
855.658	22885
855.792	22835
855.926	22889
856.06	22869
856.194	22946
856.327	22850
856.461	22778
856.595	22782
856.729	22919
856.862	22889
856.996	22961
857.13	22877
857.263	22930
857.397	22991
857.53	22831
857.664	22847
857.797	22812
857.931	22927
858.064	22831
858.197	22843
858.331	22911
858.464	22748
858.597	22698
858.731	22763
858.864	22835
858.997	22839
859.13	22790
859.263	22809
859.396	22892
859.529	22869
859.662	22820
859.795	22820
859.928	22858
860.061	23060
860.194	23079
860.327	22862
860.46	22793
860.592	22946
860.725	23010
860.858	22984
860.99	22717
861.123	22778
861.256	22881
861.388	22843
861.521	23627
861.653	22820
861.786	22752
861.918	22759
862.05	22683
862.183	22793
862.315	22797
862.447	22869
862.58	22691
862.712	22497
862.844	22489
862.976	22660
863.108	22717
863.24	23033
863.372	22478
863.504	22500
863.636	22481
863.768	22630
863.9	22493
864.032	22493
864.164	22451
864.296	22622
864.428	22774
864.559	22611
864.691	22660
864.823	22611
864.954	22531
865.086	22531
865.217	22455
865.349	22379
865.48	22459
865.612	22436
865.743	22653
865.875	22519
866.006	22405
866.137	22405
866.269	22447
866.4	22348
866.531	22421
866.662	22188
866.793	22360
866.924	22398
867.055	22333
867.186	22341
867.317	22287
867.448	22337
867.579	22386
867.71	22306
867.841	22280
867.972	22371
868.103	22421
868.233	22356
868.364	22314
868.495	22360
868.625	22596
868.756	22755
868.886	22413
869.017	22565
869.147	22675
869.278	22755
869.408	22565
869.539	22508
869.669	22740
869.799	22687
869.929	22759
870.06	22710
870.19	22949
870.32	22930
870.45	22984
870.58	23056
870.71	23124
870.84	23083
870.97	23014
871.1	22915
871.23	23067
871.36	23151
871.489	23140
871.619	23086
871.749	23162
871.879	23258
872.008	23231
872.138	23159
872.267	23208
872.397	23083
872.526	22987
872.656	22991
872.785	23124
872.915	23159
873.044	23273
873.173	23208
873.303	23162
873.432	23334
873.561	23478
873.69	23170
873.819	23246
873.948	23356
874.077	23246
874.206	23159
874.335	23269
874.464	23239
874.593	23391
874.722	23356
874.851	23417
874.979	23482
875.108	23395
875.237	23353
875.365	23379
875.494	23307
875.623	23471
875.751	23410
875.88	23425
876.008	23619
876.136	23482
876.265	23977
876.393	24015
876.521	23893
876.65	23927
876.778	23882
876.906	23817
877.034	23722
877.162	23805
877.29	23733
877.418	23866
877.546	23859
877.674	23741
877.802	23714
877.93	23756
878.058	23703
878.185	23691
878.313	23665
878.441	23718
878.568	23516
878.696	23764
878.824	23931
878.951	23790
879.079	23851
879.206	23980
879.333	23984
879.461	23779
879.588	23786
879.715	23866
879.842	23882
879.97	23832
880.097	23646
880.224	23577
880.351	23539
880.478	23657
880.605	23528
880.732	23577
880.859	23840
880.986	23649
881.112	23604
881.239	23421
881.366	23288
881.493	23147
881.619	23128
881.746	23136
881.872	23185
881.999	23086
882.125	23162
882.252	23124
882.378	23117
882.505	23048
882.631	23003
882.757	22790
882.883	22927
883.01	22847
883.136	22752
883.262	22611
883.388	22706
883.514	22744
883.64	22869
883.766	22702
883.892	22561
884.018	22630
884.143	22763
884.269	22691
884.395	22557
884.52	22516
884.646	22394
884.772	22314
884.897	22363
885.023	22413
885.148	22497
885.274	22611
885.399	22512
885.524	22432
885.65	22428
885.775	22382
885.9	22261
886.025	22550
886.15	22504
886.275	22390
886.4	22409
886.525	22291
886.65	22363
886.775	22386
886.9	22485
887.025	22767
887.149	22375
887.274	22200
887.399	22135
887.523	22166
887.648	22124
887.773	22120
887.897	22143
888.021	22112
888.146	22067
888.27	22234
888.395	22257
888.519	22192
888.643	22093
888.767	22295
888.891	22200
889.015	21949
889.139	21945
889.263	21998
889.387	22002
889.511	22257
889.635	22078
889.759	21975
889.883	21922
890.006	21922
890.13	22021
890.254	21861
890.377	21888
890.501	21808
890.624	21690
890.748	21774
890.871	21545
890.995	21542
891.118	21507
891.241	21542
891.364	21580
891.488	21690
891.611	21549
891.734	21587
891.857	21557
891.98	21538
892.103	21606
892.226	21515
892.349	21568
892.471	21329
892.594	21447
892.717	21443
892.839	21332
892.962	21405
893.085	21496
893.207	21561
893.33	21279
893.452	21336
893.575	21428
893.697	21291
893.819	21530
893.941	21637
894.064	21557
894.186	21302
894.308	21416
894.43	21488
894.552	21515
894.674	21401
894.796	21435
894.918	21420
895.04	21256
895.161	21408
895.283	21485
895.405	21317
895.526	21268
895.648	21241
895.769	21481
895.891	21272
896.012	21454
896.134	21435
896.255	21332
896.376	21340
896.498	21313
896.619	21412
896.74	21298
896.861	21355
896.982	21686
897.103	21690
897.224	21629
897.345	21473
897.466	21492
897.587	21526
897.708	21671
897.828	21568
897.949	21530
898.07	21462
898.19	21488
898.311	21713
898.431	21538
898.552	21447
898.672	21743
898.792	21614
898.913	21610
899.033	21329
899.153	21317
899.273	21279
899.393	21218
899.513	21336
899.633	21340
899.753	21283
899.873	21340
899.993	21443
900.113	21252
900.232	21226
900.352	21096
900.472	21017
900.591	21070
900.711	21066
900.83	20956
900.95	21020
901.069	21127
901.189	20853
901.308	20689
901.427	20659
901.546	20613
901.665	20667
901.784	20522
901.904	20450
902.023	20495
902.141	20271
902.26	20115
902.379	20252
902.498	20107
902.617	20039
902.735	20149
902.854	20126
902.973	20073
903.091	19887
903.21	19772
903.328	19750
903.446	19674
903.565	19605
903.683	19430
903.801	19464
903.919	19552
904.038	19582
904.156	19266
904.274	19335
904.392	19274
904.51	19343
904.627	19255
904.745	19343
904.863	19331
904.981	19057
905.098	19019
905.216	19076
905.334	19156
905.451	19080
905.569	18871
905.686	19099
905.803	18943
905.921	18814
906.038	18757
906.155	18871
906.272	18688
906.389	18688
906.506	18563
906.623	18441
906.74	18551
906.857	18429
906.974	18334
907.091	18433
907.208	18688
907.324	18498
907.441	18361
907.557	18239
907.674	18209
907.79	18133
907.907	18292
908.023	18258
908.139	18281
908.256	18171
908.372	18034
908.488	18114
908.604	18003
908.72	17961
908.836	17939
908.952	17885
909.068	18049
909.184	17977
909.3	17897
909.415	17973
909.531	17889
909.647	17703
909.762	17585
909.878	17627
909.993	17604
910.108	17535
910.224	17646
910.339	17638
910.454	17478
910.57	17311
910.685	17341
910.8	17657
910.915	17482
911.03	17459
911.145	17387
911.259	17147
911.374	17170
911.489	17140
911.604	17090
911.718	16976
911.833	17014
911.947	16771
912.062	16843
912.176	16911
912.291	16908
912.405	16892
912.519	17155
912.633	17105
912.748	16946
912.862	16980
912.976	16812
913.09	16691
913.204	16698
913.318	16717
913.431	16900
913.545	16831
913.659	16854
913.772	16771
913.886	16565
914	16417
914.113	16569
914.226	16694
914.34	16535
914.453	16413
914.566	16455
914.68	16478
914.793	16344
914.906	16196
915.019	16124
915.132	16086
915.245	16040
915.358	16071
915.47	16200
915.583	16112
915.696	16078
915.809	16234
915.921	16268
916.034	15998
916.146	16002
916.259	15865
916.371	16048
916.483	15934
916.595	15937
916.708	15915
916.82	15960
916.932	15842
917.044	15930
917.156	15660
917.268	15827
917.38	15804
917.491	15713
917.603	15766
917.715	15709
917.826	15755
917.938	15663
918.049	15538
918.161	15641
918.272	15823
918.384	15724
918.495	15580
918.606	15428
918.717	15416
918.828	15477
918.939	15382
919.05	15348
919.161	15302
919.272	15131
919.383	15302
919.494	15382
919.604	15545
919.715	15397
919.826	15287
919.936	15367
920.047	15488
920.157	15348
920.267	15637
920.378	15401
920.488	15435
920.598	15553
920.708	15736
920.818	15447
920.928	15416
921.038	15686
921.148	15557
921.258	15412
921.368	15302
921.477	15119
921.587	15039
921.697	14979
921.806	15138
921.916	14952
922.025	14800
922.134	14792
922.244	14640
922.353	14777
922.462	14629
922.571	14644
922.68	14385
922.789	14377
922.898	14423
923.007	14313
923.116	14488
923.224	14324
923.333	14305
923.442	14267
923.55	14225
923.659	14210
923.767	14278
923.876	14199
923.984	14157
924.092	14081
924.201	14126
924.309	14092
924.417	14069
924.525	14024
924.633	14043
924.741	14800
924.849	13830
924.956	13986
925.064	13765
925.172	13636
925.279	13750
925.387	13852
925.494	13674
925.602	13837
925.709	13746
925.816	13666
925.924	13750
926.031	13818
926.138	13632
926.245	13723
926.352	13582
926.459	13757
926.566	13677
926.673	13582
926.779	13525
926.886	13514
926.993	13453
927.099	13320
927.206	13266
927.312	13228
927.419	13384
927.525	13171
927.631	13346
927.737	13244
927.843	13023
927.95	13110
928.056	13122
928.162	13107
928.267	13187
928.373	13734
928.479	13179
928.585	12913
928.69	12977
928.796	13019
928.901	12947
929.007	12779
929.112	12890
929.218	12981
929.323	12859
929.428	12825
929.533	12844
929.638	12722
929.743	12707
929.848	12783
929.953	12681
930.058	12760
930.163	12578
930.267	12525
930.372	12585
930.477	12452
930.581	12578
930.685	12494
930.79	12327
930.894	12437
930.998	12175
931.103	12490
931.207	12038
931.311	11942
931.415	11946
931.519	11668
931.623	11665
