Data from test_V78500241_3250.txt Node
Date: Fri Mar 25 16:04:18 CST 2022
User: usil
Spectrometer: V785-0024
Trigger mode: 0
Integration Time (sec): 4.000000E-1
Scans to average: 1
Nonlinearity correction enabled: false
Boxcar width: 0
Storing dark spectrum: false
XAxis mode: Wavelengths
Number of Pixels in Spectrum: 1024
>>>>>Begin Spectral Data<<<<<
801.071	28816
801.214	28831
801.356	28550
801.499	28607
801.641	28527
801.783	28489
801.926	28440
802.068	28401
802.211	28519
802.353	28363
802.496	28284
802.638	28116
802.78	28063
802.923	28112
803.065	28181
803.208	28150
803.35	28310
803.492	28314
803.635	28371
803.777	28162
803.919	28424
804.061	28698
804.204	28550
804.346	28462
804.488	28318
804.63	28352
804.773	28409
804.915	28500
805.057	28596
805.199	28455
805.341	28508
805.483	28626
805.626	28618
805.768	28443
805.91	28679
806.052	28687
806.194	28508
806.336	28763
806.478	28637
806.62	28649
806.762	28679
806.904	28862
807.046	29185
807.188	29117
807.33	29079
807.472	29140
807.614	29056
807.756	29124
807.898	28763
808.04	28888
808.182	28991
808.324	28927
808.465	28984
808.607	29128
808.749	29444
808.891	29402
809.033	29322
809.174	29353
809.316	29337
809.458	29296
809.6	29459
809.741	29440
809.883	29478
810.025	29608
810.166	29630
810.308	29691
810.45	29516
810.591	29566
810.733	29353
810.875	29372
811.016	29364
811.158	29296
811.299	29493
811.441	29421
811.582	29402
811.724	29383
811.865	29303
812.007	29254
812.148	29383
812.29	29425
812.431	29471
812.573	29710
812.714	29722
812.855	29687
812.997	29923
813.138	30079
813.279	29939
813.421	29882
813.562	29821
813.703	29589
813.845	29535
813.986	29212
814.127	29128
814.268	28991
814.41	29029
814.551	28919
814.692	29128
814.833	28942
814.974	28919
815.115	29136
815.256	28877
815.397	29041
815.539	28995
815.68	28835
815.821	28702
815.962	28839
816.103	28793
816.244	28828
816.385	28752
816.526	28668
816.666	28333
816.807	28413
816.948	28447
817.089	28299
817.23	28360
817.371	28261
817.512	28352
817.653	28348
817.793	28375
817.934	28352
818.075	28341
818.216	28401
818.356	28337
818.497	28253
818.638	28055
818.778	28158
818.919	28246
819.06	28325
819.2	28325
819.341	28455
819.481	28398
819.622	28660
819.762	28767
819.903	28508
820.043	28466
820.184	28500
820.324	28561
820.465	28531
820.605	28580
820.746	28466
820.886	28246
821.026	28352
821.167	28382
821.307	28489
821.447	28371
821.588	28382
821.728	28139
821.868	28093
822.008	27926
822.149	27774
822.289	27755
822.429	27538
822.569	27405
822.709	27530
822.849	27336
822.99	27344
823.13	27237
823.27	27279
823.41	27214
823.55	27036
823.69	27165
823.83	27294
823.97	27180
824.11	26914
824.25	27096
824.389	26963
824.529	26876
824.669	26967
824.809	27180
824.949	27135
825.089	27051
825.228	27093
825.368	26914
825.508	26895
825.648	26990
825.787	26998
825.927	27001
826.067	26777
826.206	26952
826.346	26838
826.485	26925
826.625	26868
826.765	26948
826.904	26952
827.044	26617
827.183	26651
827.323	26773
827.462	26750
827.601	26727
827.741	26587
827.88	26701
828.02	26602
828.159	26629
828.298	26613
828.437	26731
828.577	26495
828.716	26769
828.855	26530
828.994	26237
829.134	26172
829.273	26393
829.412	26309
829.551	26282
829.69	26362
829.829	26301
829.968	26488
830.107	26252
830.246	26233
830.385	26221
830.524	26206
830.663	26202
830.802	26031
830.941	25928
831.08	25868
831.219	25989
831.357	26073
831.496	26100
831.635	25849
831.774	25822
831.913	25875
832.051	25662
832.19	25811
832.329	25605
832.467	25689
832.606	25578
832.744	25514
832.883	25620
833.022	25521
833.16	25544
833.299	25597
833.437	25712
833.576	25753
833.714	25586
833.852	25689
833.991	25681
834.129	25700
834.267	25753
834.406	25715
834.544	25544
834.682	25731
834.821	25693
834.959	25750
835.097	25635
835.235	25674
835.373	25540
835.511	25693
835.65	25468
835.788	25476
835.926	25438
836.064	25278
836.202	25377
836.34	25499
836.478	25559
836.615	25308
836.753	25335
836.891	25677
837.029	25392
837.167	25362
837.305	25411
837.443	25419
837.58	25285
837.718	25240
837.856	25304
837.993	25350
838.131	25221
838.269	25190
838.406	25297
838.544	25232
838.681	24947
838.819	24878
838.956	24646
839.094	24719
839.231	24863
839.369	24886
839.506	25122
839.643	25057
839.781	24681
839.918	24692
840.055	24696
840.193	24688
840.33	24517
840.467	24741
840.604	24703
840.742	25019
840.879	24620
841.016	24505
841.153	24623
841.29	24688
841.427	24646
841.564	24749
841.701	24726
841.838	24677
841.975	24559
842.112	24551
842.249	24311
842.385	24422
842.522	24642
842.659	24315
842.796	24486
842.933	24376
843.069	24357
843.206	24285
843.343	24452
843.479	24376
843.616	24388
843.752	24300
843.889	24213
844.025	24292
844.162	24057
844.298	24350
844.435	24155
844.571	24167
844.708	24159
844.844	24327
844.98	24365
845.117	24273
845.253	24133
845.389	24041
845.525	24053
845.661	23999
845.798	24007
845.934	24030
846.07	23992
846.206	23950
846.342	23980
846.478	23908
846.614	23767
846.75	23634
846.886	23585
847.022	23703
847.158	23608
847.294	23680
847.429	23687
847.565	23714
847.701	23748
847.837	23368
847.972	23326
848.108	23516
848.244	23433
848.379	23151
848.515	23193
848.65	23143
848.786	23147
848.921	23296
849.057	23364
849.192	23273
849.328	23292
849.463	23143
849.598	23166
849.734	23037
849.869	23208
850.004	22911
850.14	23041
850.275	23064
850.41	22949
850.545	22965
850.68	22911
850.815	22995
850.95	22991
851.085	23124
851.22	23166
851.355	23102
851.49	22995
851.625	23041
851.76	22828
851.895	22923
852.03	22949
852.165	23037
852.299	23067
852.434	23075
852.569	23075
852.703	22908
852.838	23079
852.973	23117
853.107	23033
853.242	22911
853.376	22809
853.511	22691
853.645	22729
853.78	22805
853.914	22786
854.048	22771
854.183	22866
854.317	22774
854.451	22972
854.585	22809
854.72	22771
854.854	22984
854.988	22858
855.122	22942
855.256	22615
855.39	22854
855.524	22816
855.658	22938
855.792	22828
855.926	22908
856.06	22866
856.194	22862
856.327	22706
856.461	22736
856.595	22691
856.729	22843
856.862	22961
856.996	22839
857.13	22934
857.263	23029
857.397	23033
857.53	22843
857.664	22911
857.797	22900
857.931	22999
858.064	22786
858.197	22896
858.331	22854
858.464	22820
858.597	22782
858.731	22793
858.864	22782
858.997	22721
859.13	22824
859.263	22767
859.396	22976
859.529	22801
859.662	22679
859.795	22713
859.928	22675
860.061	22984
860.194	23022
860.327	22854
860.46	22748
860.592	22965
860.725	23067
860.858	22942
860.99	22892
861.123	22729
861.256	22755
861.388	22847
861.521	23562
861.653	22736
861.786	22649
861.918	22691
862.05	22702
862.183	22740
862.315	22763
862.447	22748
862.58	22835
862.712	22516
862.844	22462
862.976	22466
863.108	22565
863.24	22908
863.372	22519
863.504	22478
863.636	22443
863.768	22542
863.9	22451
864.032	22421
864.164	22478
864.296	22573
864.428	22561
864.559	22573
864.691	22531
864.823	22413
864.954	22523
865.086	22512
865.217	22470
865.349	22379
865.48	22375
865.612	22375
865.743	22481
865.875	22379
866.006	22432
866.137	22371
866.269	22261
866.4	22280
866.531	22344
866.662	22128
866.793	22287
866.924	22322
867.055	22436
867.186	22265
867.317	22303
867.448	22238
867.579	22253
867.71	22207
867.841	22070
867.972	22272
868.103	22253
868.233	22344
868.364	22356
868.495	22413
868.625	22512
868.756	22649
868.886	22527
869.017	22443
869.147	22649
869.278	22569
869.408	22656
869.539	22615
869.669	22656
869.799	22554
869.929	22664
870.06	22630
870.19	22812
870.32	22915
870.45	22866
870.58	22889
870.71	22968
870.84	23006
870.97	22771
871.1	22968
871.23	23136
871.36	23121
871.489	23140
871.619	23166
871.749	23246
871.879	23143
872.008	23220
872.138	23166
872.267	23124
872.397	23052
872.526	22900
872.656	22972
872.785	23067
872.915	23227
873.044	23345
873.173	23094
873.303	23292
873.432	23250
873.561	23181
873.69	23178
873.819	23197
873.948	23181
874.077	23140
874.206	23113
874.335	23128
874.464	23280
874.593	23440
874.722	23436
874.851	23414
874.979	23433
875.108	23414
875.237	23376
875.365	23223
875.494	23265
875.623	23493
875.751	23204
875.88	23452
876.008	23436
876.136	23501
876.265	23840
876.393	23923
876.521	23779
876.65	23847
876.778	23748
876.906	23786
877.034	23764
877.162	23805
877.29	23668
877.418	23566
877.546	23748
877.674	23733
877.802	23901
877.93	23642
878.058	23729
878.185	23467
878.313	23695
878.441	23653
878.568	23547
878.696	23809
878.824	23653
878.951	23828
879.079	23843
879.206	23950
879.333	23889
879.461	23608
879.588	23859
879.715	23859
879.842	23908
879.97	23863
880.097	23448
880.224	23589
880.351	23596
880.478	23615
880.605	23520
880.732	23558
880.859	23726
880.986	23398
881.112	23577
881.239	23436
881.366	23292
881.493	23132
881.619	23159
881.746	23086
881.872	23216
881.999	23014
882.125	23056
882.252	23067
882.378	23056
882.505	23155
882.631	22835
882.757	22847
882.883	22873
883.01	22691
883.136	22755
883.262	22679
883.388	22474
883.514	22752
883.64	22752
883.766	22653
883.892	22645
884.018	22584
884.143	22862
884.269	22740
884.395	22462
884.52	22413
884.646	22443
884.772	22246
884.897	22268
885.023	22386
885.148	22531
885.274	22577
885.399	22523
885.524	22371
885.65	22379
885.775	22379
885.9	22348
886.025	22630
886.15	22443
886.275	22432
886.4	22386
886.525	22443
886.65	22268
886.775	22405
886.9	22538
887.025	22729
887.149	22344
887.274	22143
887.399	22055
887.523	22200
887.648	22128
887.773	22169
887.897	22276
888.021	22150
888.146	22154
888.27	22135
888.395	22120
888.519	22280
888.643	22211
888.767	22086
888.891	22002
889.015	21998
889.139	22082
889.263	21907
889.387	22082
889.511	22219
889.635	22185
889.759	21888
889.883	21888
890.006	21934
890.13	22017
890.254	21884
890.377	21937
890.501	21671
890.624	21709
890.748	21755
890.871	21595
890.995	21492
891.118	21435
891.241	21439
891.364	21382
891.488	21671
891.611	21545
891.734	21534
891.857	21408
891.98	21447
892.103	21606
892.226	21667
892.349	21340
892.471	21176
892.594	21332
892.717	21363
892.839	21397
892.962	21443
893.085	21450
893.207	21256
893.33	21351
893.452	21264
893.575	21435
893.697	21424
893.819	21633
893.941	21557
894.064	21526
894.186	21298
894.308	21218
894.43	21370
894.552	21447
894.674	21477
894.796	21203
894.918	21298
895.04	21332
895.161	21393
895.283	21443
895.405	21306
895.526	21313
895.648	21226
895.769	21355
895.891	21424
896.012	21420
896.134	21306
896.255	21332
896.376	21412
896.498	21268
896.619	21424
896.74	21408
896.861	21386
896.982	21739
897.103	21739
897.224	21644
897.345	21561
897.466	21428
897.587	21583
897.708	21701
897.828	21580
897.949	21504
898.07	21268
898.19	21504
898.311	21686
898.431	21329
898.552	21496
898.672	21553
898.792	21458
898.913	21667
899.033	21443
899.153	21214
899.273	21226
899.393	21275
899.513	21313
899.633	21329
899.753	21298
899.873	21157
899.993	21245
900.113	21313
900.232	21230
900.352	21169
900.472	21055
900.591	20960
900.711	21017
900.83	20899
900.95	21119
901.069	21055
901.189	20914
901.308	20556
901.427	20629
901.546	20590
901.665	20514
901.784	20663
901.904	20556
902.023	20415
902.141	20073
902.26	20210
902.379	20122
902.498	20126
902.617	20180
902.735	20172
902.854	20134
902.973	19951
903.091	19643
903.21	19666
903.328	19772
903.446	19624
903.565	19483
903.683	19540
903.801	19533
903.919	19544
904.038	19540
904.156	19320
904.274	19343
904.392	19320
904.51	19301
904.627	19377
904.745	19289
904.863	19282
904.981	19114
905.098	18977
905.216	18989
905.334	18958
905.451	19122
905.569	19050
905.686	18954
905.803	19008
905.921	18642
906.038	18867
906.155	18810
906.272	18734
906.389	18646
906.506	18460
906.623	18551
906.74	18407
906.857	18330
906.974	18365
907.091	18506
907.208	18612
907.324	18475
907.441	18414
907.557	18228
907.674	18171
907.79	18083
907.907	18239
908.023	18213
908.139	18232
908.256	18163
908.372	18190
908.488	18091
908.604	17977
908.72	17908
908.836	17958
908.952	17745
909.068	17988
909.184	18102
909.3	17927
909.415	17927
909.531	17798
909.647	17710
909.762	17497
909.878	17532
909.993	17638
910.108	17672
910.224	17592
910.339	17600
910.454	17417
910.57	17497
910.685	17265
910.8	17604
910.915	17516
911.03	17280
911.145	17189
911.259	17208
911.374	17197
911.489	17132
911.604	17098
911.718	16824
911.833	16942
911.947	16809
912.062	16748
912.176	16972
912.291	16987
912.405	16866
912.519	17178
912.633	17121
912.748	16949
912.862	16866
912.976	16710
913.09	16618
913.204	16809
913.318	16698
913.431	16820
913.545	16752
913.659	16812
913.772	16698
913.886	16455
914	16531
914.113	16565
914.226	16577
914.34	16538
914.453	16451
914.566	16550
914.68	16409
914.793	16333
914.906	16238
915.019	16048
915.132	15998
915.245	16143
915.358	16071
915.47	16105
915.583	16112
915.696	16029
915.809	16185
915.921	16131
916.034	16093
916.146	16029
916.259	15937
916.371	16021
916.483	16032
916.595	15880
916.708	15937
916.82	15972
916.932	15812
917.044	15880
917.156	15857
917.268	15743
917.38	15747
917.491	15747
917.603	15690
917.715	15800
917.826	15922
917.938	15793
918.049	15473
918.161	15584
918.272	15709
918.384	15823
918.495	15656
918.606	15485
918.717	15469
918.828	15405
918.939	15447
919.05	15306
919.161	15389
919.272	15260
919.383	15230
919.494	15443
919.604	15473
919.715	15321
919.826	15279
919.936	15340
920.047	15420
920.157	15458
920.267	15469
920.378	15481
920.488	15252
920.598	15519
920.708	15629
920.818	15477
920.928	15584
921.038	15629
921.148	15610
921.258	15336
921.368	15283
921.477	15116
921.587	15089
921.697	15036
921.806	15047
921.916	14937
922.025	14781
922.134	14629
922.244	14716
922.353	14777
922.462	14583
922.571	14568
922.68	14377
922.789	14351
922.898	14332
923.007	14309
923.116	14393
923.224	14355
923.333	14336
923.442	14218
923.55	14180
923.659	14248
923.767	14317
923.876	14103
923.984	14191
924.092	14043
924.201	14126
924.309	14123
924.417	14016
924.525	14016
924.633	14024
924.741	14655
924.849	13776
924.956	14020
925.064	13807
925.172	13750
925.279	13761
925.387	13738
925.494	13708
925.602	13890
925.709	13772
925.816	13639
925.924	13616
926.031	13681
926.138	13620
926.245	13708
926.352	13540
926.459	13681
926.566	13719
926.673	13506
926.779	13449
926.886	13464
926.993	13206
927.099	13327
927.206	13244
927.312	13179
927.419	13312
927.525	13331
927.631	13297
927.737	13152
927.843	13244
927.95	13012
928.056	13103
928.162	13141
928.267	13133
928.373	13727
928.479	13103
928.585	12958
928.69	13012
928.796	13042
928.901	12985
929.007	12791
929.112	12894
929.218	12916
929.323	12844
929.428	12798
929.533	12806
929.638	12589
929.743	12684
929.848	12745
929.953	12707
930.058	12684
930.163	12410
930.267	12494
930.372	12608
930.477	12391
930.581	12589
930.685	12532
930.79	12395
930.894	12289
930.998	12296
931.103	12486
931.207	12060
931.311	11988
931.415	11950
931.519	11741
931.623	11695
