Data from test_V78500241_1859.txt Node
Date: Fri Mar 25 15:54:40 CST 2022
User: usil
Spectrometer: V785-0024
Trigger mode: 0
Integration Time (sec): 4.000000E-1
Scans to average: 1
Nonlinearity correction enabled: false
Boxcar width: 0
Storing dark spectrum: false
XAxis mode: Wavelengths
Number of Pixels in Spectrum: 1024
>>>>>Begin Spectral Data<<<<<
801.071	28436
801.214	28497
801.356	28173
801.499	28177
801.641	28078
801.783	28067
801.926	28048
802.068	28169
802.211	27964
802.353	27876
802.496	27793
802.638	27667
802.78	27610
802.923	27637
803.065	27549
803.208	27648
803.35	27751
803.492	27884
803.635	27892
803.777	27747
803.919	27953
804.061	28322
804.204	28139
804.346	27979
804.488	27781
804.63	27949
804.773	27857
804.915	28078
805.057	28131
805.199	27987
805.341	28059
805.483	28181
805.626	28055
805.768	27926
805.91	27972
806.052	28086
806.194	27945
806.336	28158
806.478	28188
806.62	28192
806.762	28337
806.904	28257
807.046	28634
807.188	28478
807.33	28500
807.472	28577
807.614	28363
807.756	28493
807.898	28443
808.04	28382
808.182	28394
808.324	28470
808.465	28466
808.607	28675
808.749	28687
808.891	28923
809.033	29018
809.174	28839
809.316	28694
809.458	28702
809.6	28694
809.741	28824
809.883	28908
810.025	28942
810.166	28961
810.308	28984
810.45	29018
810.591	28938
810.733	28592
810.875	28736
811.016	28565
811.158	28653
811.299	28767
811.441	28850
811.582	28946
811.724	28596
811.865	28797
812.007	28660
812.148	28828
812.29	28968
812.431	28976
812.573	29056
812.714	29159
812.855	29250
812.997	29395
813.138	29604
813.279	29337
813.421	29261
813.562	29239
813.703	29162
813.845	28904
813.986	28733
814.127	28516
814.268	28440
814.41	28481
814.551	28325
814.692	28527
814.833	28325
814.974	28291
815.115	28542
815.256	28344
815.397	28303
815.539	28249
815.68	28249
815.821	28200
815.962	28257
816.103	28413
816.244	28204
816.385	27956
816.526	28048
816.666	27785
816.807	27865
816.948	27903
817.089	27975
817.23	27816
817.371	27774
817.512	27724
817.653	27732
817.793	27838
817.934	27762
818.075	27717
818.216	27800
818.356	27656
818.497	27751
818.638	27431
818.778	27454
818.919	27538
819.06	27656
819.2	27572
819.341	27816
819.481	27690
819.622	28032
819.762	27987
819.903	27941
820.043	27884
820.184	27972
820.324	27903
820.465	27854
820.605	27873
820.746	28036
820.886	27751
821.026	27823
821.167	27808
821.307	27884
821.447	27800
821.588	27705
821.728	27515
821.868	27370
822.008	27252
822.149	27256
822.289	27207
822.429	27024
822.569	26937
822.709	26845
822.849	26777
822.99	26826
823.13	26731
823.27	26727
823.41	26526
823.55	26522
823.69	26495
823.83	26579
823.97	26412
824.11	26415
824.25	26275
824.389	26305
824.529	26495
824.669	26480
824.809	26560
824.949	26514
825.089	26377
825.228	26488
825.368	26221
825.508	26225
825.648	26389
825.787	26267
825.927	26202
826.067	26248
826.206	26286
826.346	26248
826.485	26480
826.625	26210
826.765	26431
826.904	26267
827.044	25974
827.183	26001
827.323	25966
827.462	26149
827.601	26005
827.741	26046
827.88	25997
828.02	25925
828.159	25970
828.298	26012
828.437	26027
828.577	25879
828.716	26065
828.855	25951
828.994	25727
829.134	25643
829.273	25765
829.412	25700
829.551	25609
829.69	25571
829.829	25632
829.968	25753
830.107	25887
830.246	25700
830.385	25689
830.524	25563
830.663	25419
830.802	25308
830.941	25202
831.08	25145
831.219	25449
831.357	25396
831.496	25468
831.635	25251
831.774	25255
831.913	25160
832.051	25133
832.19	24992
832.329	25160
832.467	24947
832.606	24970
832.744	24928
832.883	24932
833.022	24886
833.16	25057
833.299	24989
833.437	24871
833.576	25038
833.714	24992
833.852	25126
833.991	25034
834.129	25057
834.267	25038
834.406	25027
834.544	25084
834.682	25034
834.821	24875
834.959	25114
835.097	25091
835.235	25171
835.373	25042
835.511	24920
835.65	24928
835.788	24867
835.926	24810
836.064	24585
836.202	24635
836.34	24996
836.478	24954
836.615	24871
836.753	24711
836.891	25004
837.029	24791
837.167	24924
837.305	24760
837.443	24681
837.58	24703
837.718	24749
837.856	24650
837.993	24593
838.131	24566
838.269	24578
838.406	24585
838.544	24448
838.681	24407
838.819	24315
838.956	24129
839.094	24148
839.231	24178
839.369	24327
839.506	24544
839.643	24365
839.781	24178
839.918	24152
840.055	24174
840.193	24091
840.33	24015
840.467	24068
840.604	24076
840.742	24216
840.879	23969
841.016	23950
841.153	23927
841.29	24106
841.427	24133
841.564	24083
841.701	24034
841.838	23984
841.975	23961
842.112	23931
842.249	23874
842.385	23756
842.522	23988
842.659	23832
842.796	23737
842.933	23847
843.069	23703
843.206	23729
843.343	23859
843.479	23828
843.616	23779
843.752	23543
843.889	23471
844.025	23684
844.162	23672
844.298	23581
844.435	23615
844.571	23459
844.708	23562
844.844	23661
844.98	23646
845.117	23596
845.253	23463
845.389	23288
845.525	23436
845.661	23353
845.798	23292
845.934	23395
846.07	23292
846.206	23265
846.342	23417
846.478	23246
846.614	23010
846.75	22866
846.886	23102
847.022	23113
847.158	23143
847.294	23003
847.429	23060
847.565	22984
847.701	23265
847.837	22889
847.972	22797
848.108	22961
848.244	22786
848.379	22820
848.515	22554
848.65	22615
848.786	22672
848.921	22725
849.057	22626
849.192	22656
849.328	22759
849.463	22710
849.598	22550
849.734	22546
849.869	22436
850.004	22322
850.14	22436
850.275	22325
850.41	22287
850.545	22238
850.68	22284
850.815	22386
850.95	22443
851.085	22649
851.22	22489
851.355	22405
851.49	22523
851.625	22310
851.76	22356
851.895	22299
852.03	22204
852.165	22379
852.299	22447
852.434	22470
852.569	22489
852.703	22341
852.838	22363
852.973	22470
853.107	22481
853.242	22306
853.376	22215
853.511	22112
853.645	22226
853.78	22325
853.914	22219
854.048	22109
854.183	22128
854.317	22234
854.451	22474
854.585	22196
854.72	22192
854.854	22223
854.988	22112
855.122	22147
855.256	22051
855.39	22223
855.524	22234
855.658	22306
855.792	22253
855.926	22139
856.06	22204
856.194	22284
856.327	22246
856.461	22181
856.595	22109
856.729	22192
856.862	22257
856.996	22261
857.13	22162
857.263	22325
857.397	22257
857.53	22143
857.664	22261
857.797	22291
857.931	22352
858.064	22128
858.197	22169
858.331	22128
858.464	22074
858.597	22086
858.731	22135
858.864	22219
858.997	22204
859.13	22223
859.263	22143
859.396	22402
859.529	22120
859.662	22181
859.795	22162
859.928	22284
860.061	22303
860.194	22390
860.327	22398
860.46	22249
860.592	22348
860.725	22318
860.858	22322
860.99	22348
861.123	22162
861.256	22169
861.388	22246
861.521	23075
861.653	22036
861.786	22063
861.918	21991
862.05	22109
862.183	22109
862.315	22135
862.447	22025
862.58	22181
862.712	21903
862.844	21945
862.976	21926
863.108	21937
863.24	22371
863.372	21831
863.504	21854
863.636	21869
863.768	21907
863.9	21915
864.032	21827
864.164	21918
864.296	21842
864.428	22029
864.559	21972
864.691	21922
864.823	21979
864.954	21884
865.086	21937
865.217	21846
865.349	21644
865.48	21778
865.612	21842
865.743	21869
865.875	21774
866.006	21797
866.137	21732
866.269	21736
866.4	21751
866.531	21705
866.662	21572
866.793	21671
866.924	21804
867.055	21713
867.186	21698
867.317	21690
867.448	21580
867.579	21663
867.71	21644
867.841	21660
867.972	21633
868.103	21610
868.233	21739
868.364	21766
868.495	21762
868.625	21930
868.756	21987
868.886	21884
869.017	21975
869.147	22017
869.278	21911
869.408	22017
869.539	22044
869.669	22135
869.799	22021
869.929	22139
870.06	22010
870.19	22242
870.32	22219
870.45	22284
870.58	22329
870.71	22516
870.84	22504
870.97	22280
871.1	22466
871.23	22512
871.36	22519
871.489	22470
871.619	22398
871.749	22519
871.879	22668
872.008	22717
872.138	22516
872.267	22584
872.397	22333
872.526	22402
872.656	22386
872.785	22432
872.915	22584
873.044	22592
873.173	22615
873.303	22675
873.432	22580
873.561	22725
873.69	22538
873.819	22672
873.948	22713
874.077	22565
874.206	22649
874.335	22588
874.464	22660
874.593	22923
874.722	22618
874.851	22744
874.979	22706
875.108	22805
875.237	22691
875.365	22622
875.494	22679
875.623	22839
875.751	22679
875.88	22828
876.008	22949
876.136	22908
876.265	23128
876.393	23273
876.521	23299
876.65	23242
876.778	23185
876.906	23052
877.034	22942
877.162	23113
877.29	23048
877.418	23197
877.546	23162
877.674	23105
877.802	23105
877.93	23094
878.058	23052
878.185	22972
878.313	23029
878.441	23113
878.568	23052
878.696	22999
878.824	23083
878.951	23254
879.079	23265
879.206	23440
879.333	23414
879.461	23117
879.588	23269
879.715	23292
879.842	23292
879.97	23151
880.097	22930
880.224	22934
880.351	22923
880.478	22904
880.605	22793
880.732	22866
880.859	23174
880.986	22904
881.112	22972
881.239	22881
881.366	22653
881.493	22580
881.619	22626
881.746	22626
881.872	22588
881.999	22481
882.125	22436
882.252	22421
882.378	22428
882.505	22649
882.631	22344
882.757	22325
882.883	22348
883.01	22204
883.136	22265
883.262	22051
883.388	22055
883.514	22211
883.64	22207
883.766	22078
883.892	21899
884.018	21895
884.143	22124
884.269	22158
884.395	21918
884.52	21819
884.646	21793
884.772	21819
884.897	21679
885.023	21827
885.148	21915
885.274	21991
885.399	21884
885.524	21892
885.65	21850
885.775	21903
885.9	21812
886.025	21964
886.15	21907
886.275	21739
886.4	21690
886.525	21751
886.65	21690
886.775	21686
886.9	21873
887.025	22010
887.149	21778
887.274	21568
887.399	21622
887.523	21545
887.648	21431
887.773	21428
887.897	21641
888.021	21599
888.146	21389
888.27	21663
888.395	21751
888.519	21488
888.643	21622
888.767	21534
888.891	21496
889.015	21412
889.139	21439
889.263	21325
889.387	21534
889.511	21644
889.635	21542
889.759	21321
889.883	21351
890.006	21359
890.13	21359
890.254	21359
890.377	21279
890.501	21173
890.624	21055
890.748	21218
890.871	20963
890.995	20834
891.118	20998
891.241	20929
891.364	20986
891.488	21096
891.611	21043
891.734	20948
891.857	20857
891.98	21024
892.103	20948
892.226	20902
892.349	20918
892.471	20731
892.594	20887
892.717	20743
892.839	20849
892.962	20910
893.085	20921
893.207	20792
893.33	20724
893.452	20693
893.575	20956
893.697	20887
893.819	21055
893.941	20979
894.064	21001
894.186	20773
894.308	20746
894.43	20857
894.552	21020
894.674	20956
894.796	20613
894.918	20834
895.04	20842
895.161	20933
895.283	20811
895.405	20682
895.526	20857
895.648	20724
895.769	20823
895.891	20933
896.012	20861
896.134	20830
896.255	20769
896.376	20918
896.498	20765
896.619	20815
896.74	20750
896.861	20682
896.982	21077
897.103	21332
897.224	21020
897.345	21009
897.466	21039
897.587	21001
897.708	21138
897.828	21127
897.949	20880
898.07	20845
898.19	20963
898.311	21051
898.431	21070
898.552	20944
898.672	21013
898.792	20979
898.913	20929
899.033	20834
899.153	20895
899.273	20716
899.393	20720
899.513	20785
899.633	20792
899.753	20674
899.873	20750
899.993	20830
900.113	20689
900.232	20705
900.352	20606
900.472	20522
900.591	20526
900.711	20537
900.83	20415
900.95	20552
901.069	20632
901.189	20415
901.308	20126
901.427	20187
901.546	20164
901.665	20058
901.784	20183
901.904	19993
902.023	19894
902.141	19696
902.26	19647
902.379	19723
902.498	19635
902.617	19556
902.735	19632
902.854	19586
902.973	19567
903.091	19304
903.21	19278
903.328	19312
903.446	19072
903.565	19057
903.683	19053
903.801	18909
903.919	18871
904.038	18867
904.156	18798
904.274	18840
904.392	18886
904.51	18764
904.627	18787
904.745	18833
904.863	18913
904.981	18665
905.098	18593
905.216	18498
905.334	18547
905.451	18490
905.569	18437
905.686	18547
905.803	18479
905.921	18323
906.038	18372
906.155	18235
906.272	18072
906.389	18300
906.506	18026
906.623	18087
906.74	17958
906.857	17855
906.974	17912
907.091	18049
907.208	18049
907.324	18053
907.441	17832
907.557	17756
907.674	17710
907.79	17676
907.907	17733
908.023	17668
908.139	17608
908.256	17657
908.372	17760
908.488	17611
908.604	17433
908.72	17330
908.836	17417
908.952	17433
909.068	17532
909.184	17562
909.3	17474
909.415	17478
909.531	17417
909.647	17204
909.762	17197
909.878	17121
909.993	17155
910.108	17143
910.224	17197
910.339	17041
910.454	16976
910.57	16892
910.685	16904
910.8	17098
910.915	17079
911.03	16805
911.145	16809
911.259	16702
911.374	16683
911.489	16649
911.604	16538
911.718	16455
911.833	16550
911.947	16291
912.062	16287
912.176	16440
912.291	16519
912.405	16367
912.519	16634
912.633	16599
912.748	16470
912.862	16398
912.976	16268
913.09	16200
913.204	16204
913.318	16223
913.431	16348
913.545	16348
913.659	16341
913.772	16219
913.886	16131
914	16021
914.113	16025
914.226	16234
914.34	16162
914.453	15975
914.566	16048
914.68	15903
914.793	15861
914.906	15728
915.019	15591
915.132	15564
915.245	15591
915.358	15603
915.47	15648
915.583	15663
915.696	15675
915.809	15800
915.921	15804
916.034	15542
916.146	15561
916.259	15485
916.371	15595
916.483	15557
916.595	15450
916.708	15431
916.82	15408
916.932	15473
917.044	15439
917.156	15443
917.268	15264
917.38	15306
917.491	15321
917.603	15272
917.715	15329
917.826	15302
917.938	15135
918.049	15173
918.161	15268
918.272	15382
918.384	15332
918.495	15176
918.606	15104
918.717	15024
918.828	15051
918.939	15112
919.05	14929
919.161	14971
919.272	14804
919.383	14826
919.494	15077
919.604	15252
919.715	15047
919.826	14948
919.936	14956
920.047	15055
920.157	14918
920.267	15161
920.378	15028
920.488	14933
920.598	15214
920.708	15313
920.818	15089
920.928	14967
921.038	15302
921.148	15150
921.258	14906
921.368	14830
921.477	14697
921.587	14686
921.697	14568
921.806	14651
921.916	14560
922.025	14518
922.134	14377
922.244	14267
922.353	14332
922.462	14225
922.571	14161
922.68	13974
922.789	13898
922.898	13982
923.007	13989
923.116	14016
923.224	13997
923.333	13936
923.442	13902
923.55	13719
923.659	13860
923.767	13887
923.876	13826
923.984	13845
924.092	13597
924.201	13700
924.309	13731
924.417	13719
924.525	13601
924.633	13605
924.741	14419
924.849	13422
924.956	13601
925.064	13430
925.172	13377
925.279	13308
925.387	13403
925.494	13426
925.602	13480
925.709	13403
925.816	13358
925.924	13255
926.031	13434
926.138	13331
926.245	13289
926.352	13152
926.459	13407
926.566	13419
926.673	13244
926.779	13080
926.886	13107
926.993	12966
927.099	12996
927.206	12943
927.312	12875
927.419	13027
927.525	13008
927.631	12909
927.737	12871
927.843	12722
927.95	12703
928.056	12787
928.162	12703
928.267	12825
928.373	13312
928.479	12863
928.585	12566
928.69	12772
928.796	12757
928.901	12566
929.007	12445
929.112	12536
929.218	12593
929.323	12471
929.428	12418
929.533	12585
929.638	12403
929.743	12350
929.848	12437
929.953	12372
930.058	12338
930.163	12083
930.267	12083
930.372	12277
930.477	12182
930.581	12323
930.685	12171
930.79	12030
930.894	12079
930.998	12038
931.103	12159
931.207	11733
931.311	11638
931.415	11600
931.519	11376
931.623	11379
