Data from test_V78500241_753.txt Node
Date: Fri Mar 25 15:47:01 CST 2022
User: usil
Spectrometer: V785-0024
Trigger mode: 0
Integration Time (sec): 4.000000E-1
Scans to average: 1
Nonlinearity correction enabled: false
Boxcar width: 0
Storing dark spectrum: false
XAxis mode: Wavelengths
Number of Pixels in Spectrum: 1024
>>>>>Begin Spectral Data<<<<<
801.071	28025
801.214	27880
801.356	27504
801.499	27492
801.641	27408
801.783	27291
801.926	27572
802.068	27344
802.211	27351
802.353	27245
802.496	27093
802.638	26975
802.78	27036
802.923	26861
803.065	27043
803.208	26906
803.35	27043
803.492	27241
803.635	27203
803.777	27089
803.919	27275
804.061	27534
804.204	27405
804.346	27112
804.488	27146
804.63	27169
804.773	27138
804.915	27272
805.057	27469
805.199	27214
805.341	27427
805.483	27397
805.626	27302
805.768	27351
805.91	27310
806.052	27336
806.194	27283
806.336	27458
806.478	27473
806.62	27427
806.762	27450
806.904	27641
807.046	27850
807.188	27766
807.33	27823
807.472	27850
807.614	27759
807.756	27705
807.898	27580
808.04	27561
808.182	27500
808.324	27625
808.465	27641
808.607	27831
808.749	27983
808.891	28204
809.033	28185
809.174	28223
809.316	27953
809.458	27960
809.6	27926
809.741	28093
809.883	28135
810.025	28405
810.166	28318
810.308	28325
810.45	28196
810.591	28303
810.733	28090
810.875	27991
811.016	27987
811.158	28010
811.299	28147
811.441	28154
811.582	28314
811.724	27994
811.865	28147
812.007	27991
812.148	28154
812.29	28116
812.431	28356
812.573	28318
812.714	28382
812.855	28497
812.997	28626
813.138	28656
813.279	28793
813.421	28599
813.562	28641
813.703	28306
813.845	28242
813.986	28063
814.127	27888
814.268	27656
814.41	27743
814.551	27679
814.692	27781
814.833	27656
814.974	27804
815.115	27854
815.256	27496
815.397	27355
815.539	27466
815.68	27549
815.821	27439
815.962	27542
816.103	27488
816.244	27329
816.385	27287
816.526	27310
816.666	27207
816.807	27093
816.948	27074
817.089	27089
817.23	27222
817.371	26956
817.512	26921
817.653	26933
817.793	27009
817.934	27173
818.075	27017
818.216	27138
818.356	26960
818.497	26880
818.638	26731
818.778	26792
818.919	26686
819.06	26674
819.2	26758
819.341	27116
819.481	27020
819.622	27138
819.762	27340
819.903	27325
820.043	27226
820.184	27272
820.324	27135
820.465	27233
820.605	27077
820.746	27157
820.886	27017
821.026	27032
821.167	27093
821.307	27222
821.447	27013
821.588	26842
821.728	26655
821.868	26686
822.008	26484
822.149	26648
822.289	26381
822.429	26145
822.569	26115
822.709	26183
822.849	25906
822.99	26027
823.13	26020
823.27	25974
823.41	25746
823.55	25723
823.69	25852
823.83	25837
823.97	25643
824.11	25696
824.25	25632
824.389	25525
824.529	25628
824.669	25635
824.809	25818
824.949	25753
825.089	25666
825.228	25674
825.368	25426
825.508	25567
825.648	25434
825.787	25582
825.927	25571
826.067	25449
826.206	25479
826.346	25658
826.485	25651
826.625	25445
826.765	25601
826.904	25487
827.044	25202
827.183	25377
827.323	25240
827.462	25301
827.601	25232
827.741	25179
827.88	25236
828.02	25122
828.159	25160
828.298	25190
828.437	25145
828.577	25175
828.716	25194
828.855	25122
828.994	25015
829.134	25000
829.273	24966
829.412	24825
829.551	24802
829.69	25012
829.829	24996
829.968	24909
830.107	25012
830.246	24814
830.385	24939
830.524	24833
830.663	24726
830.802	24623
830.941	24570
831.08	24494
831.219	24639
831.357	24661
831.496	24612
831.635	24532
831.774	24311
831.913	24418
832.051	24353
832.19	24220
832.329	24376
832.467	24277
832.606	24041
832.744	24201
832.883	24186
833.022	24277
833.16	24251
833.299	24182
833.437	24304
833.576	24235
833.714	24216
833.852	24270
833.991	24361
834.129	24437
834.267	24433
834.406	24304
834.544	24262
834.682	24315
834.821	24140
834.959	24403
835.097	24144
835.235	24304
835.373	24296
835.511	24239
835.65	24098
835.788	24167
835.926	23954
836.064	23882
836.202	23897
836.34	24182
836.478	24152
836.615	24159
836.753	24121
836.891	24194
837.029	24007
837.167	23973
837.305	23988
837.443	23939
837.58	23988
837.718	24049
837.856	23923
837.993	23965
838.131	23931
838.269	23904
838.406	23912
838.544	23722
838.681	23630
838.819	23516
838.956	23421
839.094	23490
839.231	23467
839.369	23554
839.506	23794
839.643	23615
839.781	23512
839.918	23398
840.055	23273
840.193	23376
840.33	23364
840.467	23414
840.604	23376
840.742	23539
840.879	23258
841.016	23220
841.153	23254
841.29	23417
841.427	23433
841.564	23417
841.701	23288
841.838	23341
841.975	23151
842.112	23181
842.249	23216
842.385	23044
842.522	23277
842.659	23174
842.796	23003
842.933	23071
843.069	22984
843.206	22965
843.343	23094
843.479	23029
843.616	23029
843.752	22904
843.889	22790
844.025	22957
844.162	22885
844.298	22847
844.435	22869
844.571	22793
844.708	22869
844.844	22915
844.98	23086
845.117	22934
845.253	22733
845.389	22626
845.525	22854
845.661	22649
845.798	22588
845.934	22637
846.07	22550
846.206	22660
846.342	22778
846.478	22542
846.614	22333
846.75	22360
846.886	22443
847.022	22325
847.158	22371
847.294	22318
847.429	22284
847.565	22230
847.701	22649
847.837	22025
847.972	21979
848.108	22112
848.244	22086
848.379	21945
848.515	21880
848.65	21835
848.786	21968
848.921	21975
849.057	21972
849.192	22029
849.328	21964
849.463	21911
849.598	21838
849.734	21907
849.869	21709
850.004	21538
850.14	21774
850.275	21580
850.41	21511
850.545	21572
850.68	21648
850.815	21694
850.95	21690
851.085	21831
851.22	21686
851.355	21698
851.49	21641
851.625	21652
851.76	21618
851.895	21633
852.03	21576
852.165	21595
852.299	21671
852.434	21720
852.569	21648
852.703	21644
852.838	21587
852.973	21835
853.107	21667
853.242	21595
853.376	21439
853.511	21420
853.645	21408
853.78	21526
853.914	21545
854.048	21294
854.183	21401
854.317	21473
854.451	21618
854.585	21473
854.72	21450
854.854	21580
854.988	21351
855.122	21443
855.256	21329
855.39	21428
855.524	21523
855.658	21561
855.792	21583
855.926	21488
856.06	21526
856.194	21534
856.327	21428
856.461	21412
856.595	21359
856.729	21485
856.862	21625
856.996	21500
857.13	21530
857.263	21583
857.397	21614
857.53	21431
857.664	21504
857.797	21580
857.931	21580
858.064	21485
858.197	21458
858.331	21511
858.464	21496
858.597	21389
858.731	21431
858.864	21450
858.997	21435
859.13	21614
859.263	21450
859.396	21500
859.529	21389
859.662	21443
859.795	21420
859.928	21610
860.061	21568
860.194	21762
860.327	21652
860.46	21500
860.592	21599
860.725	21686
860.858	21549
860.99	21485
861.123	21431
861.256	21435
861.388	21526
861.521	22162
861.653	21336
861.786	21302
861.918	21291
862.05	21279
862.183	21321
862.315	21473
862.447	21515
862.58	21302
862.712	21222
862.844	21138
862.976	21355
863.108	21268
863.24	21675
863.372	21146
863.504	21188
863.636	21142
863.768	21222
863.9	21199
864.032	21032
864.164	21085
864.296	21226
864.428	21344
864.559	21214
864.691	21207
864.823	21184
864.954	21058
865.086	21184
865.217	21024
865.349	21081
865.48	21142
865.612	21077
865.743	21100
865.875	21055
866.006	20868
866.137	21135
866.269	21051
866.4	21032
866.531	20998
866.662	20990
866.793	21032
866.924	21013
867.055	21138
867.186	21096
867.317	20982
867.448	20902
867.579	20971
867.71	20883
867.841	20880
867.972	21032
868.103	20990
868.233	21047
868.364	21032
868.495	21116
868.625	21237
868.756	21370
868.886	21070
869.017	21272
869.147	21344
869.278	21332
869.408	21256
869.539	21180
869.669	21279
869.799	21321
869.929	21348
870.06	21447
870.19	21492
870.32	21523
870.45	21663
870.58	21667
870.71	21835
870.84	21774
870.97	21724
871.1	21526
871.23	21869
871.36	21831
871.489	21835
871.619	21835
871.749	21869
871.879	21869
872.008	21949
872.138	21922
872.267	21781
872.397	21599
872.526	21698
872.656	21644
872.785	21656
872.915	21827
873.044	21903
873.173	21972
873.303	21953
873.432	21991
873.561	22006
873.69	21911
873.819	21930
873.948	21884
874.077	21922
874.206	21789
874.335	21949
874.464	22120
874.593	22116
874.722	21956
874.851	22173
874.979	22063
875.108	22131
875.237	22036
875.365	21998
875.494	22150
875.623	22162
875.751	22017
875.88	22181
876.008	22101
876.136	22322
876.265	22478
876.393	22584
876.521	22710
876.65	22519
876.778	22462
876.906	22451
877.034	22436
877.162	22432
877.29	22379
877.418	22459
877.546	22459
877.674	22402
877.802	22375
877.93	22493
878.058	22447
878.185	22363
878.313	22306
878.441	22352
878.568	22242
878.696	22398
878.824	22455
878.951	22424
879.079	22656
879.206	22698
879.333	22637
879.461	22428
879.588	22466
879.715	22691
879.842	22675
879.97	22386
880.097	22223
880.224	22181
880.351	22314
880.478	22268
880.605	22223
880.732	22181
880.859	22557
880.986	22276
881.112	22386
881.239	22090
881.366	21857
881.493	21888
881.619	21869
881.746	21911
881.872	21888
881.999	21755
882.125	21785
882.252	21861
882.378	21747
882.505	21926
882.631	21618
882.757	21660
882.883	21614
883.01	21545
883.136	21424
883.262	21363
883.388	21397
883.514	21534
883.64	21622
883.766	21408
883.892	21351
884.018	21264
884.143	21458
884.269	21519
884.395	21127
884.52	21085
884.646	21184
884.772	21176
884.897	21013
885.023	21199
885.148	21363
885.274	21230
885.399	21222
885.524	21157
885.65	21131
885.775	21252
885.9	21154
886.025	21302
886.15	21310
886.275	21100
886.4	21058
886.525	21116
886.65	21135
886.775	21055
886.9	21294
887.025	21374
887.149	21142
887.274	20971
887.399	20998
887.523	20956
887.648	20986
887.773	20819
887.897	21009
888.021	20979
888.146	21028
888.27	20998
888.395	21001
888.519	20963
888.643	21005
888.767	21047
888.891	20819
889.015	20731
889.139	20781
889.263	20731
889.387	20788
889.511	20952
889.635	20853
889.759	20705
889.883	20758
890.006	20777
890.13	20705
890.254	20731
890.377	20678
890.501	20465
890.624	20415
890.748	20469
890.871	20442
890.995	20389
891.118	20328
891.241	20389
891.364	20267
891.488	20408
891.611	20286
891.734	20355
891.857	20339
891.98	20161
892.103	20400
892.226	20328
892.349	20195
892.471	20164
892.594	20218
892.717	20256
892.839	20142
892.962	20202
893.085	20278
893.207	20153
893.33	20111
893.452	20161
893.575	20244
893.697	20111
893.819	20313
893.941	20385
894.064	20183
894.186	20092
894.308	20191
894.43	20195
894.552	20362
894.674	20259
894.796	20043
894.918	20119
895.04	20218
895.161	20237
895.283	20142
895.405	20081
895.526	20233
895.648	20195
895.769	20214
895.891	20134
896.012	20294
896.134	20248
896.255	20267
896.376	20157
896.498	20267
896.619	20267
896.74	20259
896.861	20134
896.982	20590
897.103	20674
897.224	20495
897.345	20404
897.466	20305
897.587	20385
897.708	20678
897.828	20408
897.949	20328
898.07	20271
898.19	20408
898.311	20594
898.431	20412
898.552	20427
898.672	20522
898.792	20503
898.913	20511
899.033	20286
899.153	20168
899.273	20096
899.393	20145
899.513	20210
899.633	20202
899.753	20138
899.873	20111
899.993	20240
900.113	20088
900.232	20221
900.352	20138
900.472	19974
900.591	19963
900.711	20039
900.83	19765
900.95	20050
901.069	20005
901.189	19887
901.308	19635
901.427	19567
901.546	19411
901.665	19552
901.784	19571
901.904	19540
902.023	19282
902.141	19179
902.26	19152
902.379	19145
902.498	18981
902.617	19061
902.735	19171
902.854	19008
902.973	18932
903.091	18760
903.21	18661
903.328	18722
903.446	18677
903.565	18601
903.683	18490
903.801	18391
903.919	18475
904.038	18509
904.156	18369
904.274	18300
904.392	18224
904.51	18273
904.627	18311
904.745	18300
904.863	18376
904.981	18072
905.098	17992
905.216	18045
905.334	17958
905.451	17942
905.569	17954
905.686	18015
905.803	17912
905.921	17748
906.038	17832
906.155	17764
906.272	17642
906.389	17646
906.506	17577
906.623	17509
906.74	17547
906.857	17433
906.974	17356
907.091	17589
907.208	17627
907.324	17501
907.441	17391
907.557	17220
907.674	17189
907.79	17136
907.907	17216
908.023	17239
908.139	17292
908.256	17136
908.372	17140
908.488	17045
908.604	17025
908.72	16946
908.836	16919
908.952	16938
909.068	16980
909.184	17003
909.3	16927
909.415	16930
909.531	16908
909.647	16599
909.762	16645
909.878	16653
909.993	16748
910.108	16683
910.224	16649
910.339	16634
910.454	16554
910.57	16459
910.685	16417
910.8	16721
910.915	16542
911.03	16337
911.145	16226
911.259	16230
911.374	16257
911.489	16219
911.604	16071
911.718	15968
911.833	15895
911.947	15937
912.062	15857
912.176	15987
912.291	15892
912.405	16002
912.519	16124
912.633	16162
912.748	15960
912.862	15876
912.976	15747
913.09	15663
913.204	15656
913.318	15778
913.431	15701
913.545	15816
913.659	15812
913.772	15789
913.886	15568
914	15618
914.113	15671
914.226	15682
914.34	15701
914.453	15469
914.566	15644
914.68	15507
914.793	15428
914.906	15374
915.019	15154
915.132	15066
915.245	15138
915.358	15176
915.47	15214
915.583	15161
915.696	15161
915.809	15313
915.921	15329
916.034	15058
916.146	14944
916.259	15093
916.371	15252
916.483	15085
916.595	15028
916.708	15077
916.82	15005
916.932	14918
917.044	14971
917.156	15001
917.268	14823
917.38	14883
917.491	14861
917.603	14773
917.715	14887
917.826	14910
917.938	14804
918.049	14773
918.161	14785
918.272	14918
918.384	14758
918.495	14693
918.606	14617
918.717	14545
918.828	14617
918.939	14598
919.05	14473
919.161	14606
919.272	14343
919.383	14457
919.494	14663
919.604	14735
919.715	14613
919.826	14541
919.936	14488
920.047	14598
920.157	14545
920.267	14716
920.378	14590
920.488	14480
920.598	14663
920.708	14830
920.818	14792
920.928	14720
921.038	14819
921.148	14781
921.258	14473
921.368	14465
921.477	14252
921.587	14294
921.697	14202
921.806	14381
921.916	14062
922.025	14073
922.134	13917
922.244	13879
922.353	13970
922.462	13894
922.571	13685
922.68	13575
922.789	13464
922.898	13601
923.007	13540
923.116	13518
923.224	13628
923.333	13499
923.442	13518
923.55	13324
923.659	13392
923.767	13377
923.876	13419
923.984	13426
924.092	13240
924.201	13373
924.309	13343
924.417	13263
924.525	13308
924.633	13308
924.741	14180
924.849	13061
924.956	13175
925.064	13023
925.172	13023
925.279	12951
925.387	12985
925.494	13015
925.602	13133
925.709	13061
925.816	12833
925.924	12970
926.031	13156
926.138	13000
926.245	12981
926.352	12821
926.459	12973
926.566	12954
926.673	12817
926.779	12753
926.886	12726
926.993	12570
927.099	12551
927.206	12441
927.312	12532
927.419	12540
927.525	12498
927.631	12593
927.737	12452
927.843	12410
927.95	12311
928.056	12460
928.162	12441
928.267	12445
928.373	12977
928.479	12399
928.585	12216
928.69	12365
928.796	12357
928.901	12228
929.007	12133
929.112	12289
929.218	12216
929.323	12102
929.428	12079
929.533	12201
929.638	12019
929.743	12114
929.848	12106
929.953	11988
930.058	11984
930.163	11710
930.267	11756
930.372	12030
930.477	11794
930.581	12026
930.685	11870
930.79	11596
930.894	11718
930.998	11680
931.103	11802
931.207	11497
931.311	11402
931.415	11227
931.519	11109
931.623	11006
