Data from test_V78500241_1917.txt Node
Date: Fri Mar 25 15:55:04 CST 2022
User: usil
Spectrometer: V785-0024
Trigger mode: 0
Integration Time (sec): 4.000000E-1
Scans to average: 1
Nonlinearity correction enabled: false
Boxcar width: 0
Storing dark spectrum: false
XAxis mode: Wavelengths
Number of Pixels in Spectrum: 1024
>>>>>Begin Spectral Data<<<<<
801.071	28607
801.214	28653
801.356	28413
801.499	28352
801.641	28150
801.783	28314
801.926	28356
802.068	28150
802.211	28242
802.353	28124
802.496	27888
802.638	27876
802.78	27911
802.923	27880
803.065	27778
803.208	27766
803.35	27816
803.492	28078
803.635	28192
803.777	28017
803.919	28219
804.061	28485
804.204	28128
804.346	28044
804.488	28086
804.63	28158
804.773	28093
804.915	28169
805.057	28249
805.199	28135
805.341	28238
805.483	28337
805.626	28246
805.768	28169
805.91	28238
806.052	28367
806.194	28276
806.336	28455
806.478	28219
806.62	28303
806.762	28417
806.904	28580
807.046	28748
807.188	28691
807.33	28687
807.472	28713
807.614	28694
807.756	28645
807.898	28569
808.04	28618
808.182	28637
808.324	28592
808.465	28691
808.607	28919
808.749	29048
808.891	29025
809.033	29216
809.174	28904
809.316	29075
809.458	29067
809.6	28949
809.741	29143
809.883	29162
810.025	29216
810.166	29288
810.308	29307
810.45	29269
810.591	29166
810.733	29025
810.875	28995
811.016	29029
811.158	28862
811.299	29033
811.441	29029
811.582	29178
811.724	29067
811.865	28987
812.007	28892
812.148	28892
812.29	29109
812.431	29258
812.573	29414
812.714	29360
812.855	29570
812.997	29630
813.138	29687
813.279	29573
813.421	29455
813.562	29516
813.703	29360
813.845	29258
813.986	28828
814.127	28869
814.268	28691
814.41	28820
814.551	28675
814.692	28702
814.833	28736
814.974	28691
815.115	28656
815.256	28497
815.397	28584
815.539	28622
815.68	28634
815.821	28474
815.962	28630
816.103	28489
816.244	28337
816.385	28401
816.526	28261
816.666	28021
816.807	27934
816.948	27941
817.089	28078
817.23	27953
817.371	27994
817.512	27914
817.653	27930
817.793	27914
817.934	27956
818.075	27911
818.216	28192
818.356	27827
818.497	27831
818.638	27736
818.778	27717
818.919	27743
819.06	27854
819.2	27945
819.341	28040
819.481	28029
819.622	28242
819.762	28333
819.903	28295
820.043	28067
820.184	28036
820.324	28006
820.465	28135
820.605	28124
820.746	28070
820.886	28059
821.026	28124
821.167	28090
821.307	28116
821.447	28044
821.588	27975
821.728	27682
821.868	27743
822.008	27542
822.149	27424
822.289	27561
822.429	27283
822.569	27066
822.709	27146
822.849	27017
822.99	27032
823.13	26895
823.27	26937
823.41	26807
823.55	26686
823.69	26716
823.83	26807
823.97	26739
824.11	26533
824.25	26484
824.389	26613
824.529	26636
824.669	26552
824.809	26788
824.949	26667
825.089	26735
825.228	26613
825.368	26526
825.508	26495
825.648	26575
825.787	26537
825.927	26564
826.067	26465
826.206	26522
826.346	26674
826.485	26655
826.625	26412
826.765	26587
826.904	26492
827.044	26309
827.183	26324
827.323	26149
827.462	26377
827.601	26271
827.741	26187
827.88	26240
828.02	26225
828.159	26199
828.298	26229
828.437	26278
828.577	26221
828.716	26381
828.855	26024
828.994	25906
829.134	25944
829.273	25913
829.412	25902
829.551	25738
829.69	25932
829.829	25883
829.968	25894
830.107	25986
830.246	25982
830.385	25951
830.524	25704
830.663	25689
830.802	25628
830.941	25632
831.08	25362
831.219	25620
831.357	25647
831.496	25719
831.635	25411
831.774	25384
831.913	25400
832.051	25384
832.19	25358
832.329	25259
832.467	25240
832.606	25076
832.744	25194
832.883	25190
833.022	25107
833.16	25171
833.299	25213
833.437	25327
833.576	25324
833.714	25289
833.852	25301
833.991	25141
834.129	25293
834.267	25327
834.406	25179
834.544	25213
834.682	25236
834.821	25225
834.959	25373
835.097	25152
835.235	25320
835.373	25225
835.511	25179
835.65	25122
835.788	25076
835.926	24973
836.064	24848
836.202	24894
836.34	25088
836.478	24924
836.615	24977
836.753	25008
836.891	25072
837.029	25031
837.167	24977
837.305	25023
837.443	25050
837.58	24924
837.718	25069
837.856	24913
837.993	24848
838.131	24905
838.269	24722
838.406	24947
838.544	24738
838.681	24570
838.819	24517
838.956	24407
839.094	24323
839.231	24479
839.369	24403
839.506	24768
839.643	24566
839.781	24346
839.918	24289
840.055	24281
840.193	24289
840.33	24319
840.467	24235
840.604	24289
840.742	24509
840.879	24163
841.016	24091
841.153	24140
841.29	24251
841.427	24273
841.564	24338
841.701	24209
841.838	24266
841.975	24197
842.112	24159
842.249	24152
842.385	24091
842.522	24205
842.659	24076
842.796	24003
842.933	23980
843.069	23950
843.206	23901
843.343	24015
843.479	23965
843.616	24015
843.752	23901
843.889	23771
844.025	23923
844.162	23745
844.298	23927
844.435	23733
844.571	23767
844.708	23855
844.844	24083
844.98	23870
845.117	23908
845.253	23691
845.389	23676
845.525	23672
845.661	23657
845.798	23535
845.934	23478
846.07	23440
846.206	23615
846.342	23687
846.478	23535
846.614	23356
846.75	23288
846.886	23185
847.022	23307
847.158	23311
847.294	23216
847.429	23341
847.565	23132
847.701	23528
847.837	22980
847.972	22946
848.108	23014
848.244	23041
848.379	22934
848.515	22831
848.65	22812
848.786	22793
848.921	22873
849.057	23048
849.192	22759
849.328	22889
849.463	22923
849.598	22691
849.734	22694
849.869	22660
850.004	22596
850.14	22500
850.275	22561
850.41	22500
850.545	22523
850.68	22569
850.815	22584
850.95	22660
851.085	22843
851.22	22763
851.355	22512
851.49	22653
851.625	22660
851.76	22607
851.895	22440
852.03	22557
852.165	22573
852.299	22649
852.434	22615
852.569	22580
852.703	22584
852.838	22634
852.973	22664
853.107	22675
853.242	22557
853.376	22363
853.511	22360
853.645	22325
853.78	22497
853.914	22470
854.048	22443
854.183	22341
854.317	22348
854.451	22538
854.585	22325
854.72	22474
854.854	22462
854.988	22306
855.122	22459
855.256	22455
855.39	22318
855.524	22462
855.658	22379
855.792	22459
855.926	22402
856.06	22580
856.194	22481
856.327	22440
856.461	22428
856.595	22299
856.729	22409
856.862	22618
856.996	22413
857.13	22478
857.263	22626
857.397	22443
857.53	22276
857.664	22417
857.797	22538
857.931	22455
858.064	22443
858.197	22409
858.331	22390
858.464	22276
858.597	22417
858.731	22344
858.864	22386
858.997	22204
859.13	22325
859.263	22443
859.396	22394
859.529	22341
859.662	22405
859.795	22462
859.928	22356
860.061	22546
860.194	22516
860.327	22489
860.46	22481
860.592	22550
860.725	22656
860.858	22466
860.99	22432
861.123	22440
861.256	22299
861.388	22443
861.521	23345
861.653	22280
861.786	22143
861.918	22276
862.05	22417
862.183	22261
862.315	22295
862.447	22249
862.58	22249
862.712	22150
862.844	22036
862.976	22295
863.108	22276
863.24	22538
863.372	22090
863.504	22051
863.636	21972
863.768	22120
863.9	22162
864.032	22044
864.164	21998
864.296	22124
864.428	22139
864.559	22067
864.691	22215
864.823	22181
864.954	22044
865.086	22051
865.217	22059
865.349	22013
865.48	22074
865.612	21972
865.743	22002
865.875	22010
866.006	21937
866.137	21918
866.269	22063
866.4	21838
866.531	21949
866.662	21880
866.793	21934
866.924	21941
867.055	21907
867.186	21918
867.317	21842
867.448	21922
867.579	21998
867.71	21838
867.841	21800
867.972	21964
868.103	21956
868.233	21888
868.364	21994
868.495	22059
868.625	22128
868.756	22150
868.886	22105
869.017	22185
869.147	22257
869.278	22318
869.408	22116
869.539	22086
869.669	22120
869.799	22230
869.929	22295
870.06	22223
870.19	22596
870.32	22436
870.45	22474
870.58	22596
870.71	22565
870.84	22664
870.97	22432
871.1	22611
871.23	22736
871.36	22793
871.489	22698
871.619	22721
871.749	22820
871.879	22752
872.008	22896
872.138	22660
872.267	22843
872.397	22736
872.526	22630
872.656	22584
872.785	22531
872.915	22797
873.044	22835
873.173	22831
873.303	22869
873.432	22850
873.561	22877
873.69	22839
873.819	22740
873.948	22809
874.077	22805
874.206	22889
874.335	22767
874.464	22938
874.593	23121
874.722	22961
874.851	23006
874.979	23124
875.108	23037
875.237	22930
875.365	22805
875.494	22873
875.623	23166
875.751	22961
875.88	22965
876.008	23159
876.136	23189
876.265	23406
876.393	23406
876.521	23372
876.65	23543
876.778	23284
876.906	23364
877.034	23231
877.162	23326
877.29	23223
877.418	23303
877.546	23299
877.674	23303
877.802	23330
877.93	23235
878.058	23166
878.185	23258
878.313	23246
878.441	23436
878.568	23140
878.696	23151
878.824	23288
878.951	23326
879.079	23493
879.206	23558
879.333	23558
879.461	23383
879.588	23436
879.715	23444
879.842	23608
879.97	23364
880.097	23117
880.224	23197
880.351	23216
880.478	23185
880.605	23178
880.732	23189
880.859	23402
880.986	23086
881.112	23185
881.239	23132
881.366	22911
881.493	22668
881.619	22668
881.746	22687
881.872	22725
881.999	22607
882.125	22672
882.252	22713
882.378	22577
882.505	22828
882.631	22630
882.757	22417
882.883	22481
883.01	22394
883.136	22291
883.262	22230
883.388	22310
883.514	22348
883.64	22413
883.766	22310
883.892	22223
884.018	22109
884.143	22379
884.269	22337
884.395	22067
884.52	22078
884.646	22025
884.772	21972
884.897	21842
885.023	22002
885.148	21968
885.274	22219
885.399	22010
885.524	21998
885.65	21968
885.775	22090
885.9	22051
886.025	22162
886.15	22143
886.275	21895
886.4	21972
886.525	21922
886.65	21945
886.775	21915
886.9	22109
887.025	22154
887.149	22017
887.274	21854
887.399	21819
887.523	21797
887.648	21720
887.773	21682
887.897	21865
888.021	21835
888.146	21747
888.27	21823
888.395	21899
888.519	21838
888.643	21797
888.767	21918
888.891	21724
889.015	21679
889.139	21656
889.263	21481
889.387	21656
889.511	21660
889.635	21755
889.759	21534
889.883	21568
890.006	21492
890.13	21622
890.254	21557
890.377	21515
890.501	21378
890.624	21291
890.748	21355
890.871	21192
890.995	21119
891.118	21142
891.241	21096
891.364	21047
891.488	21279
891.611	20990
891.734	21154
891.857	21116
891.98	21188
892.103	21138
892.226	21173
892.349	21070
892.471	20876
892.594	20994
892.717	21108
892.839	20830
892.962	20887
893.085	21036
893.207	20918
893.33	20876
893.452	20925
893.575	21047
893.697	21009
893.819	21192
893.941	21192
894.064	21116
894.186	20941
894.308	20933
894.43	21043
894.552	21195
894.674	21028
894.796	20830
894.918	21024
895.04	20914
895.161	20910
895.283	20960
895.405	20933
895.526	21093
895.648	20971
895.769	21070
895.891	20982
896.012	21081
896.134	21058
896.255	20910
896.376	20941
896.498	21001
896.619	20876
896.74	20982
896.861	21161
896.982	21214
897.103	21477
897.224	21283
897.345	21237
897.466	21173
897.587	21169
897.708	21355
897.828	21165
897.949	21157
898.07	21055
898.19	21062
898.311	21317
898.431	21089
898.552	21252
898.672	21230
898.792	21298
898.913	21256
899.033	21062
899.153	20948
899.273	20902
899.393	20902
899.513	20910
899.633	21032
899.753	21043
899.873	20826
899.993	21043
900.113	20891
900.232	20887
900.352	20739
900.472	20823
900.591	20587
900.711	20731
900.83	20590
900.95	20788
901.069	20823
901.189	20575
901.308	20415
901.427	20153
901.546	20199
901.665	20305
901.784	20286
901.904	20119
902.023	20161
902.141	19883
902.26	19826
902.379	19761
902.498	19731
902.617	19712
902.735	19727
902.854	19750
902.973	19685
903.091	19354
903.21	19388
903.328	19377
903.446	19312
903.565	19270
903.683	19285
903.801	19206
903.919	19145
904.038	19072
904.156	19088
904.274	19031
904.392	19042
904.51	19031
904.627	19031
904.745	19072
904.863	18920
904.981	18757
905.098	18578
905.216	18658
905.334	18707
905.451	18688
905.569	18654
905.686	18661
905.803	18677
905.921	18460
906.038	18536
906.155	18456
906.272	18350
906.389	18266
906.506	18144
906.623	18254
906.74	18095
906.857	18087
906.974	18079
907.091	18285
907.208	18315
907.324	18243
907.441	18034
907.557	17927
907.674	17954
907.79	17805
907.907	17878
908.023	17882
908.139	17927
908.256	17847
908.372	17805
908.488	17802
908.604	17524
908.72	17600
908.836	17589
908.952	17581
909.068	17589
909.184	17722
909.3	17554
909.415	17600
909.531	17600
909.647	17414
909.762	17368
909.878	17334
909.993	17322
910.108	17284
910.224	17220
910.339	17231
910.454	17151
910.57	17060
910.685	17003
910.8	17315
910.915	17227
911.03	17086
911.145	16816
911.259	16835
911.374	16816
911.489	16820
911.604	16717
911.718	16622
911.833	16599
911.947	16607
912.062	16538
912.176	16569
912.291	16668
912.405	16656
912.519	16706
912.633	16809
912.748	16755
912.862	16573
912.976	16398
913.09	16310
913.204	16382
913.318	16481
913.431	16455
913.545	16481
913.659	16459
913.772	16360
913.886	16265
914	16207
914.113	16443
914.226	16428
914.34	16207
914.453	16154
914.566	16196
914.68	16006
914.793	16071
914.906	15827
915.019	15781
915.132	15759
915.245	15739
915.358	15895
915.47	15808
915.583	15774
915.696	15846
915.809	15876
915.921	15903
916.034	15720
916.146	15743
916.259	15652
916.371	15713
916.483	15747
916.595	15633
916.708	15652
916.82	15667
916.932	15511
917.044	15492
917.156	15534
917.268	15370
917.38	15492
917.491	15492
917.603	15405
917.715	15526
917.826	15530
917.938	15283
918.049	15119
918.161	15370
918.272	15477
918.384	15481
918.495	15329
918.606	15260
918.717	15119
918.828	15188
918.939	15192
919.05	15043
919.161	15169
919.272	14952
919.383	15077
919.494	15222
919.604	15412
919.715	15192
919.826	15089
919.936	15089
920.047	15249
920.157	15112
920.267	15424
920.378	15138
920.488	15108
920.598	15272
920.708	15485
920.818	15233
920.928	15245
921.038	15507
921.148	15279
921.258	15165
921.368	14948
921.477	14883
921.587	14838
921.697	14678
921.806	14861
921.916	14777
922.025	14465
922.134	14495
922.244	14412
922.353	14457
922.462	14457
922.571	14221
922.68	14210
922.789	14115
922.898	14046
923.007	14176
923.116	14149
923.224	14092
923.333	14096
923.442	13944
923.55	13830
923.659	13856
923.767	14058
923.876	13921
923.984	13887
924.092	13780
924.201	13940
924.309	13887
924.417	13864
924.525	13689
924.633	13807
924.741	14697
924.849	13582
924.956	13674
925.064	13495
925.172	13453
925.279	13514
925.387	13510
925.494	13518
925.602	13658
925.709	13453
925.816	13434
925.924	13434
926.031	13540
926.138	13441
926.245	13457
926.352	13339
926.459	13449
926.566	13521
926.673	13339
926.779	13358
926.886	13168
926.993	13099
927.099	13023
927.206	13038
927.312	13034
927.419	13023
927.525	13057
927.631	13053
927.737	12943
927.843	12840
927.95	12821
928.056	12817
928.162	12840
928.267	12848
928.373	13491
928.479	12935
928.585	12745
928.69	12741
928.796	12856
928.901	12650
929.007	12585
929.112	12642
929.218	12707
929.323	12642
929.428	12654
929.533	12692
929.638	12494
929.743	12574
929.848	12566
929.953	12498
930.058	12399
930.163	12300
930.267	12239
930.372	12437
930.477	12201
930.581	12376
930.685	12243
930.79	12087
930.894	12163
930.998	12182
931.103	12251
931.207	11893
931.311	11805
931.415	11589
931.519	11452
931.623	11478
