Data from test_V78500241_782.txt Node
Date: Fri Mar 25 15:47:13 CST 2022
User: usil
Spectrometer: V785-0024
Trigger mode: 0
Integration Time (sec): 4.000000E-1
Scans to average: 1
Nonlinearity correction enabled: false
Boxcar width: 0
Storing dark spectrum: false
XAxis mode: Wavelengths
Number of Pixels in Spectrum: 1024
>>>>>Begin Spectral Data<<<<<
801.071	27397
801.214	27348
801.356	26967
801.499	26902
801.641	26914
801.783	26716
801.926	26929
802.068	26735
802.211	26693
802.353	26545
802.496	26446
802.638	26442
802.78	26457
802.923	26400
803.065	26427
803.208	26396
803.35	26377
803.492	26568
803.635	26571
803.777	26404
803.919	26598
804.061	26971
804.204	26739
804.346	26484
804.488	26549
804.63	26461
804.773	26537
804.915	26617
805.057	26735
805.199	26533
805.341	26804
805.483	26769
805.626	26674
805.768	26682
805.91	26682
806.052	26765
806.194	26663
806.336	26762
806.478	26750
806.62	26682
806.762	26975
806.904	27039
807.046	27249
807.188	27146
807.33	27077
807.472	27173
807.614	27081
807.756	27135
807.898	26933
808.04	26918
808.182	26902
808.324	27028
808.465	26895
808.607	27176
808.749	27325
808.891	27420
809.033	27488
809.174	27302
809.316	27321
809.458	27230
809.6	27249
809.741	27435
809.883	27397
810.025	27625
810.166	27606
810.308	27625
810.45	27454
810.591	27614
810.733	27401
810.875	27355
811.016	27142
811.158	27203
811.299	27526
811.441	27458
811.582	27500
811.724	27310
811.865	27302
812.007	27302
812.148	27260
812.29	27306
812.431	27454
812.573	27557
812.714	27625
812.855	27808
812.997	28078
813.138	28059
813.279	27941
813.421	27850
813.562	27793
813.703	27564
813.845	27553
813.986	27233
814.127	27138
814.268	26990
814.41	27009
814.551	26956
814.692	27001
814.833	26940
814.974	27036
815.115	26929
815.256	26838
815.397	26800
815.539	26853
815.68	26739
815.821	26632
815.962	26785
816.103	26621
816.244	26659
816.385	26522
816.526	26560
816.666	26343
816.807	26225
816.948	26324
817.089	26415
817.23	26355
817.371	26294
817.512	26218
817.653	26214
817.793	26142
817.934	26263
818.075	26088
818.216	26149
818.356	26214
818.497	26130
818.638	25982
818.778	25997
818.919	26054
819.06	26088
819.2	26233
819.341	26313
819.481	26301
819.622	26355
819.762	26568
819.903	26339
820.043	26309
820.184	26214
820.324	26366
820.465	26511
820.605	26343
820.746	26278
820.886	26195
821.026	26252
821.167	26298
821.307	26313
821.447	26221
821.588	26134
821.728	26062
821.868	25909
822.008	25689
822.149	25571
822.289	25586
822.429	25369
822.569	25472
822.709	25327
822.849	25274
822.99	25213
823.13	25228
823.27	25255
823.41	25114
823.55	24886
823.69	24886
823.83	24962
823.97	24825
824.11	24890
824.25	24772
824.389	24814
824.529	25012
824.669	24886
824.809	24954
824.949	24962
825.089	24928
825.228	24939
825.368	24684
825.508	24631
825.648	24696
825.787	24741
825.927	24951
826.067	24795
826.206	24681
826.346	24760
826.485	24738
826.625	24814
826.765	24909
826.904	24749
827.044	24540
827.183	24475
827.323	24327
827.462	24563
827.601	24391
827.741	24384
827.88	24471
828.02	24376
828.159	24357
828.298	24357
828.437	24418
828.577	24300
828.716	24445
828.855	24346
828.994	24148
829.134	24209
829.273	24136
829.412	24136
829.551	24038
829.69	24155
829.829	24133
829.968	24152
830.107	24220
830.246	24106
830.385	23992
830.524	23927
830.663	23908
830.802	23802
830.941	23649
831.08	23600
831.219	23805
831.357	23798
831.496	23920
831.635	23756
831.774	23653
831.913	23581
832.051	23516
832.19	23505
832.329	23608
832.467	23459
832.606	23296
832.744	23372
832.883	23398
833.022	23303
833.16	23402
833.299	23391
833.437	23322
833.576	23501
833.714	23531
833.852	23482
833.991	23524
834.129	23524
834.267	23547
834.406	23474
834.544	23554
834.682	23520
834.821	23391
834.959	23592
835.097	23406
835.235	23440
835.373	23326
835.511	23376
835.65	23383
835.788	23334
835.926	23113
836.064	23086
836.202	23060
836.34	23269
836.478	23288
836.615	23383
836.753	23296
836.891	23414
837.029	23250
837.167	23208
837.305	23334
837.443	22995
837.58	23105
837.718	23098
837.856	23185
837.993	23098
838.131	23140
838.269	23041
838.406	22999
838.544	22995
838.681	22854
838.819	22839
838.956	22527
839.094	22611
839.231	22664
839.369	22634
839.506	22999
839.643	22869
839.781	22706
839.918	22634
840.055	22596
840.193	22504
840.33	22645
840.467	22561
840.604	22675
840.742	22824
840.879	22405
841.016	22485
841.153	22398
841.29	22592
841.427	22573
841.564	22656
841.701	22554
841.838	22344
841.975	22405
842.112	22485
842.249	22310
842.385	22318
842.522	22447
842.659	22413
842.796	22352
842.933	22390
843.069	22333
843.206	22249
843.343	22310
843.479	22382
843.616	22367
843.752	22074
843.889	22059
844.025	22299
844.162	21979
844.298	22036
844.435	22101
844.571	21991
844.708	22143
844.844	22322
844.98	22120
845.117	22166
845.253	22040
845.389	22017
845.525	21922
845.661	21876
845.798	21793
845.934	21789
846.07	21736
846.206	21747
846.342	21937
846.478	21812
846.614	21591
846.75	21599
846.886	21412
847.022	21511
847.158	21572
847.294	21564
847.429	21519
847.565	21477
847.701	21743
847.837	21306
847.972	21195
848.108	21363
848.244	21245
848.379	21218
848.515	21245
848.65	21100
848.786	21104
848.921	21275
849.057	21112
849.192	21275
849.328	21157
849.463	21119
849.598	21100
849.734	21062
849.869	20944
850.004	20849
850.14	20933
850.275	20800
850.41	20746
850.545	20883
850.68	20819
850.815	20804
850.95	20853
851.085	20952
851.22	20998
851.355	20937
851.49	20804
851.625	20868
851.76	20906
851.895	20708
852.03	20861
852.165	20979
852.299	20891
852.434	20994
852.569	20910
852.703	20921
852.838	20883
852.973	20982
853.107	21058
853.242	20773
853.376	20823
853.511	20613
853.645	20613
853.78	20823
853.914	20765
854.048	20693
854.183	20663
854.317	20686
854.451	20902
854.585	20613
854.72	20651
854.854	20815
854.988	20724
855.122	20762
855.256	20568
855.39	20689
855.524	20629
855.658	20720
855.792	20838
855.926	20735
856.06	20758
856.194	20807
856.327	20644
856.461	20587
856.595	20621
856.729	20708
856.862	20785
856.996	20864
857.13	20720
857.263	20788
857.397	20777
857.53	20686
857.664	20769
857.797	20857
857.931	20785
858.064	20727
858.197	20781
858.331	20731
858.464	20644
858.597	20632
858.731	20613
858.864	20598
858.997	20663
859.13	20602
859.263	20785
859.396	20724
859.529	20735
859.662	20629
859.795	20655
859.928	20613
860.061	20788
860.194	20887
860.327	20758
860.46	20644
860.592	20887
860.725	20902
860.858	20842
860.99	20686
861.123	20693
861.256	20613
861.388	20689
861.521	21298
861.653	20484
861.786	20480
861.918	20465
862.05	20640
862.183	20663
862.315	20746
862.447	20575
862.58	20545
862.712	20358
862.844	20339
862.976	20396
863.108	20457
863.24	20979
863.372	20358
863.504	20438
863.636	20381
863.768	20419
863.9	20400
864.032	20347
864.164	20370
864.296	20499
864.428	20678
864.559	20488
864.691	20446
864.823	20419
864.954	20492
865.086	20358
865.217	20396
865.349	20271
865.48	20412
865.612	20404
865.743	20530
865.875	20271
866.006	20317
866.137	20218
866.269	20336
866.4	20396
866.531	20328
866.662	20221
866.793	20233
866.924	20248
867.055	20218
867.186	20298
867.317	20313
867.448	20153
867.579	20256
867.71	20180
867.841	20138
867.972	20180
868.103	20332
868.233	20263
868.364	20317
868.495	20370
868.625	20511
868.756	20533
868.886	20446
869.017	20571
869.147	20613
869.278	20579
869.408	20476
869.539	20651
869.669	20667
869.799	20644
869.929	20587
870.06	20579
870.19	20857
870.32	20746
870.45	20872
870.58	20845
870.71	20998
870.84	20895
870.97	20872
871.1	20868
871.23	21093
871.36	21055
871.489	20937
871.619	21047
871.749	21180
871.879	21192
872.008	21222
872.138	21039
872.267	21043
872.397	21013
872.526	20895
872.656	21020
872.785	20944
872.915	21203
873.044	21203
873.173	21142
873.303	21207
873.432	21199
873.561	21211
873.69	21062
873.819	21077
873.948	21233
874.077	21135
874.206	20986
874.335	21055
874.464	21218
874.593	21416
874.722	21329
874.851	21325
874.979	21435
875.108	21435
875.237	21252
875.365	21192
875.494	21454
875.623	21473
875.751	21329
875.88	21245
876.008	21481
876.136	21519
876.265	21808
876.393	21827
876.521	21766
876.65	21865
876.778	21759
876.906	21682
877.034	21682
877.162	21606
877.29	21701
877.418	21736
877.546	21686
877.674	21694
877.802	21724
877.93	21564
878.058	21789
878.185	21511
878.313	21656
878.441	21591
878.568	21652
878.696	21823
878.824	21739
878.951	21846
879.079	21838
879.206	21998
879.333	21892
879.461	21823
879.588	21827
879.715	21930
879.842	21949
879.97	21816
880.097	21481
880.224	21583
880.351	21580
880.478	21542
880.605	21603
880.732	21534
880.859	21865
880.986	21545
881.112	21614
881.239	21557
881.366	21260
881.493	21207
881.619	21119
881.746	21180
881.872	21154
881.999	21093
882.125	21089
882.252	21112
882.378	21127
882.505	21260
882.631	21013
882.757	20899
882.883	21017
883.01	20876
883.136	20750
883.262	20689
883.388	20792
883.514	20735
883.64	20925
883.766	20701
883.892	20568
884.018	20716
884.143	20731
884.269	20842
884.395	20480
884.52	20339
884.646	20450
884.772	20294
884.897	20419
885.023	20533
885.148	20560
885.274	20511
885.399	20503
885.524	20484
885.65	20427
885.775	20442
885.9	20480
886.025	20568
886.15	20655
886.275	20469
886.4	20518
886.525	20476
886.65	20366
886.775	20469
886.9	20511
887.025	20648
887.149	20469
887.274	20244
887.399	20252
887.523	20339
887.648	20145
887.773	20263
887.897	20229
888.021	20294
888.146	20161
888.27	20252
888.395	20374
888.519	20298
888.643	20309
888.767	20233
888.891	20244
889.015	20119
889.139	20176
889.263	20081
889.387	20142
889.511	20218
889.635	20157
889.759	19921
889.883	19997
890.006	20046
890.13	20107
890.254	20122
890.377	20050
890.501	19841
890.624	19898
890.748	19833
890.871	19780
890.995	19734
891.118	19506
891.241	19635
891.364	19628
891.488	19753
891.611	19582
891.734	19594
891.857	19696
891.98	19597
892.103	19651
892.226	19700
892.349	19582
892.471	19514
892.594	19544
892.717	19582
892.839	19628
892.962	19685
893.085	19552
893.207	19651
893.33	19544
893.452	19460
893.575	19597
893.697	19445
893.819	19605
893.941	19799
894.064	19700
894.186	19419
894.308	19514
894.43	19651
894.552	19689
894.674	19571
894.796	19476
894.918	19578
895.04	19582
895.161	19643
895.283	19670
895.405	19518
895.526	19480
895.648	19537
895.769	19639
895.891	19609
896.012	19769
896.134	19556
896.255	19605
896.376	19548
896.498	19460
896.619	19628
896.74	19647
896.861	19601
896.982	19761
897.103	20024
897.224	19795
897.345	19860
897.466	19719
897.587	19871
897.708	19875
897.828	19902
897.949	19765
898.07	19719
898.19	19746
898.311	19757
898.431	19742
898.552	19837
898.672	19917
898.792	19883
898.913	19811
899.033	19738
899.153	19670
899.273	19529
899.393	19533
899.513	19620
899.633	19696
899.753	19704
899.873	19460
899.993	19632
900.113	19529
900.232	19495
900.352	19518
900.472	19419
900.591	19285
900.711	19285
900.83	19266
900.95	19506
901.069	19449
901.189	19217
901.308	19122
901.427	18935
901.546	18954
901.665	19046
901.784	18886
901.904	18760
902.023	18776
902.141	18494
902.26	18460
902.379	18612
902.498	18517
902.617	18460
902.735	18509
902.854	18395
902.973	18346
903.091	18167
903.21	18159
903.328	18110
903.446	18053
903.565	17870
903.683	17954
903.801	17786
903.919	17878
904.038	17843
904.156	17710
904.274	17870
904.392	17733
904.51	17657
904.627	17809
904.745	17817
904.863	17767
904.981	17459
905.098	17372
905.216	17349
905.334	17429
905.451	17387
905.569	17337
905.686	17440
905.803	17402
905.921	17189
906.038	17277
906.155	17185
906.272	17098
906.389	17174
906.506	16991
906.623	16927
906.74	16991
906.857	16839
906.974	16801
907.091	17105
907.208	16999
907.324	16881
907.441	16919
907.557	16733
907.674	16626
907.79	16561
907.907	16630
908.023	16622
908.139	16512
908.256	16630
908.372	16516
908.488	16542
908.604	16386
908.72	16344
908.836	16322
908.952	16280
909.068	16333
909.184	16440
909.3	16280
909.415	16352
909.531	16322
909.647	16101
909.762	16162
909.878	16120
909.993	16101
910.108	16048
910.224	16128
910.339	16177
910.454	16002
910.57	15941
910.685	15884
910.8	16013
910.915	16036
911.03	15876
911.145	15625
911.259	15641
911.374	15648
911.489	15652
911.604	15549
911.718	15405
911.833	15515
911.947	15397
912.062	15370
912.176	15500
912.291	15492
912.405	15458
912.519	15736
912.633	15545
912.748	15504
912.862	15389
912.976	15214
913.09	15150
913.204	15180
913.318	15222
913.431	15329
913.545	15370
913.659	15344
913.772	15272
913.886	15119
914	15089
914.113	15146
914.226	15207
914.34	15036
914.453	14929
914.566	15077
914.68	15051
914.793	14914
914.906	14777
915.019	14731
915.132	14621
915.245	14587
915.358	14682
915.47	14613
915.583	14697
915.696	14663
915.809	14765
915.921	14895
916.034	14720
916.146	14610
916.259	14594
916.371	14644
916.483	14564
916.595	14514
916.708	14571
916.82	14473
916.932	14457
917.044	14590
917.156	14434
917.268	14362
917.38	14412
917.491	14332
917.603	14415
917.715	14503
917.826	14495
917.938	14309
918.049	14161
918.161	14282
918.272	14434
918.384	14381
918.495	14294
918.606	14214
918.717	14027
918.828	14107
918.939	14176
919.05	14012
919.161	14123
919.272	13936
919.383	13989
919.494	14180
919.604	14298
919.715	14126
919.826	13970
919.936	14073
920.047	14237
920.157	14119
920.267	14172
920.378	14005
920.488	14153
920.598	14259
920.708	14324
920.818	14343
920.928	14176
921.038	14332
921.148	14385
921.258	14043
921.368	13944
921.477	13909
921.587	13852
921.697	13689
921.806	13909
921.916	13685
922.025	13525
922.134	13495
922.244	13445
922.353	13582
922.462	13297
922.571	13331
922.68	13194
922.789	13103
922.898	13225
923.007	13084
923.116	13194
923.224	13175
923.333	13118
923.442	13042
923.55	12989
923.659	12958
923.767	13065
923.876	12886
923.984	13008
924.092	12814
924.201	12951
924.309	12837
924.417	12897
924.525	12867
924.633	12806
924.741	13784
924.849	12738
924.956	12783
925.064	12555
925.172	12513
925.279	12604
925.387	12585
925.494	12589
925.602	12749
925.709	12578
925.816	12471
925.924	12547
926.031	12563
926.138	12563
926.245	12631
926.352	12509
926.459	12616
926.566	12597
926.673	12475
926.779	12281
926.886	12262
926.993	12205
927.099	12228
927.206	12148
927.312	12152
927.419	12148
927.525	12129
927.631	12235
927.737	12125
927.843	12064
927.95	11939
928.056	11942
928.162	11977
928.267	12049
928.373	12745
928.479	12072
928.585	11805
928.69	11866
928.796	11992
928.901	11847
929.007	11714
929.112	11832
929.218	11813
929.323	11779
929.428	11672
929.533	11764
929.638	11737
929.743	11699
929.848	11798
929.953	11703
930.058	11539
930.163	11429
930.267	11391
930.372	11524
930.477	11493
930.581	11623
930.685	11414
930.79	11303
930.894	11356
930.998	11360
931.103	11417
931.207	11083
931.311	11014
931.415	10839
931.519	10744
931.623	10733
