Data from test_V78500241_360.txt Node
Date: Fri Mar 25 15:44:17 CST 2022
User: usil
Spectrometer: V785-0024
Trigger mode: 0
Integration Time (sec): 4.000000E-1
Scans to average: 1
Nonlinearity correction enabled: false
Boxcar width: 0
Storing dark spectrum: false
XAxis mode: Wavelengths
Number of Pixels in Spectrum: 1024
>>>>>Begin Spectral Data<<<<<
801.071	29786
801.214	29783
801.356	29459
801.499	29459
801.641	29463
801.783	29433
801.926	29448
802.068	29292
802.211	29280
802.353	29174
802.496	29083
802.638	29003
802.78	29075
802.923	28991
803.065	28900
803.208	29041
803.35	29178
803.492	29235
803.635	29330
803.777	29071
803.919	29398
804.061	29604
804.204	29318
804.346	29261
804.488	29231
804.63	29383
804.773	29178
804.915	29288
805.057	29379
805.199	29208
805.341	29452
805.483	29501
805.626	29360
805.768	29322
805.91	29375
806.052	29417
806.194	29185
806.336	29543
806.478	29539
806.62	29330
806.762	29490
806.904	29741
807.046	30003
807.188	29939
807.33	29653
807.472	29939
807.614	29737
807.756	29687
807.898	29646
808.04	29714
808.182	29699
808.324	29668
808.465	29687
808.607	29954
808.749	29980
808.891	30163
809.033	30308
809.174	30148
809.316	30068
809.458	30140
809.6	30106
809.741	30144
809.883	30072
810.025	30304
810.166	30323
810.308	30502
810.45	30372
810.591	30349
810.733	30140
810.875	30026
811.016	29882
811.158	30022
811.299	30239
811.441	30254
811.582	30289
811.724	30129
811.865	30068
812.007	30038
812.148	30167
812.29	30121
812.431	30117
812.573	30407
812.714	30521
812.855	30513
812.997	30536
813.138	30909
813.279	30620
813.421	30654
813.562	30418
813.703	30380
813.845	30167
813.986	30117
814.127	29855
814.268	29733
814.41	29847
814.551	29767
814.692	29783
814.833	29642
814.974	29672
815.115	29699
815.256	29547
815.397	29531
815.539	29615
815.68	29406
815.821	29509
815.962	29547
816.103	29524
816.244	29277
816.385	29375
816.526	29208
816.666	29147
816.807	28915
816.948	28949
817.089	29067
817.23	29132
817.371	28957
817.512	28942
817.653	29029
817.793	28801
817.934	28892
818.075	28888
818.216	28938
818.356	28938
818.497	28831
818.638	28565
818.778	28713
818.919	28755
819.06	28824
819.2	29006
819.341	28995
819.481	28949
819.622	29056
819.762	29299
819.903	29208
820.043	29083
820.184	29113
820.324	29140
820.465	29105
820.605	29223
820.746	29185
820.886	28968
821.026	28995
821.167	28934
821.307	29178
821.447	28968
821.588	28752
821.728	28698
821.868	28603
822.008	28440
822.149	28428
822.289	28314
822.429	28139
822.569	28147
822.709	28101
822.849	27926
822.99	27831
823.13	27808
823.27	27694
823.41	27785
823.55	27564
823.69	27743
823.83	27675
823.97	27717
824.11	27557
824.25	27393
824.389	27538
824.529	27625
824.669	27462
824.809	27675
824.949	27675
825.089	27500
825.228	27633
825.368	27542
825.508	27310
825.648	27424
825.787	27256
825.927	27458
826.067	27294
826.206	27317
826.346	27466
826.485	27431
826.625	27279
826.765	27454
826.904	27538
827.044	27017
827.183	27074
827.323	26967
827.462	27009
827.601	27001
827.741	27013
827.88	27161
828.02	26982
828.159	26979
828.298	27051
828.437	27165
828.577	27028
828.716	26990
828.855	27001
828.994	26739
829.134	26697
829.273	26678
829.412	26651
829.551	26781
829.69	26670
829.829	26921
829.968	26899
830.107	26697
830.246	26598
830.385	26537
830.524	26617
830.663	26453
830.802	26396
830.941	26328
831.08	26294
831.219	26343
831.357	26313
831.496	26655
831.635	26153
831.774	26138
831.913	26176
832.051	26111
832.19	26096
832.329	26172
832.467	26008
832.606	25989
832.744	25883
832.883	25864
833.022	25925
833.16	25989
833.299	26073
833.437	25978
833.576	25966
833.714	26035
833.852	26157
833.991	26012
834.129	26043
834.267	26138
834.406	25894
834.544	25925
834.682	26050
834.821	25993
834.959	26103
835.097	25936
835.235	25982
835.373	25852
835.511	25826
835.65	25693
835.788	25803
835.926	25643
836.064	25609
836.202	25575
836.34	25742
836.478	25765
836.615	25765
836.753	25852
836.891	25814
837.029	25753
837.167	25742
837.305	25632
837.443	25590
837.58	25567
837.718	25605
837.856	25677
837.993	25457
838.131	25590
838.269	25483
838.406	25499
838.544	25365
838.681	25247
838.819	25202
838.956	24939
839.094	25004
839.231	25076
839.369	25137
839.506	25369
839.643	25301
839.781	25053
839.918	24954
840.055	25000
840.193	24977
840.33	24909
840.467	24837
840.604	24882
840.742	25251
840.879	24802
841.016	24897
841.153	24878
841.29	24947
841.427	24981
841.564	24901
841.701	24924
841.838	24681
841.975	24810
842.112	24730
842.249	24635
842.385	24711
842.522	24863
842.659	24700
842.796	24585
842.933	24483
843.069	24471
843.206	24566
843.343	24559
843.479	24620
843.616	24555
843.752	24376
843.889	24483
844.025	24585
844.162	24399
844.298	24582
844.435	24369
844.571	24338
844.708	24350
844.844	24547
844.98	24433
845.117	24452
845.253	24365
845.389	24106
845.525	24235
845.661	24117
845.798	24190
845.934	24015
846.07	23969
846.206	24053
846.342	24224
846.478	24060
846.614	23931
846.75	23958
846.886	23756
847.022	23874
847.158	23809
847.294	23630
847.429	23767
847.565	23707
847.701	23878
847.837	23417
847.972	23383
848.108	23604
848.244	23615
848.379	23376
848.515	23509
848.65	23273
848.786	23349
848.921	23368
849.057	23436
849.192	23524
849.328	23379
849.463	23349
849.598	23258
849.734	23147
849.869	23102
850.004	23105
850.14	23044
850.275	23102
850.41	22991
850.545	23102
850.68	23124
850.815	23098
850.95	23109
851.085	23178
851.22	23193
851.355	23189
851.49	22961
851.625	22984
851.76	23037
851.895	23037
852.03	22946
852.165	23220
852.299	23071
852.434	23155
852.569	23075
852.703	23090
852.838	23121
852.973	23181
853.107	23124
853.242	23014
853.376	22930
853.511	22782
853.645	22858
853.78	22949
853.914	22790
854.048	22668
854.183	22721
854.317	22942
854.451	23060
854.585	22790
854.72	22961
854.854	23102
854.988	22637
855.122	22820
855.256	22805
855.39	22767
855.524	22873
855.658	22812
855.792	22946
855.926	22740
856.06	22934
856.194	22961
856.327	22923
856.461	22877
856.595	22759
856.729	22843
856.862	22889
856.996	22881
857.13	23090
857.263	23003
857.397	22949
857.53	22820
857.664	22946
857.797	22991
857.931	22961
858.064	22767
858.197	22995
858.331	22763
858.464	22793
858.597	22672
858.731	22786
858.864	22793
858.997	22824
859.13	22869
859.263	22881
859.396	22904
859.529	22797
859.662	22805
859.795	22786
859.928	22839
860.061	22911
860.194	22904
860.327	22915
860.46	22828
860.592	22896
860.725	23010
860.858	22892
860.99	22900
861.123	22812
861.256	22869
861.388	22919
861.521	23410
861.653	22653
861.786	22641
861.918	22706
862.05	22645
862.183	22717
862.315	22759
862.447	22812
862.58	22717
862.712	22664
862.844	22519
862.976	22599
863.108	22546
863.24	22957
863.372	22440
863.504	22443
863.636	22440
863.768	22512
863.9	22470
864.032	22367
864.164	22272
864.296	22516
864.428	22630
864.559	22603
864.691	22519
864.823	22535
864.954	22451
865.086	22485
865.217	22409
865.349	22379
865.48	22367
865.612	22333
865.743	22409
865.875	22363
866.006	22185
866.137	22348
866.269	22375
866.4	22421
866.531	22409
866.662	22287
866.793	22211
866.924	22371
867.055	22440
867.186	22360
867.317	22192
867.448	22265
867.579	22234
867.71	22272
867.841	22078
867.972	22280
868.103	22204
868.233	22268
868.364	22382
868.495	22447
868.625	22462
868.756	22656
868.886	22417
869.017	22516
869.147	22550
869.278	22656
869.408	22481
869.539	22538
869.669	22618
869.799	22485
869.929	22694
870.06	22535
870.19	22805
870.32	22790
870.45	22927
870.58	22858
870.71	22987
870.84	23094
870.97	22972
871.1	23025
871.23	23117
871.36	23166
871.489	23113
871.619	23140
871.749	23029
871.879	23220
872.008	23170
872.138	23121
872.267	22923
872.397	22889
872.526	22919
872.656	22995
872.785	23033
872.915	23185
873.044	23246
873.173	23178
873.303	23242
873.432	23200
873.561	23242
873.69	23250
873.819	23102
873.948	23242
874.077	23094
874.206	23025
874.335	23235
874.464	23090
874.593	23337
874.722	23345
874.851	23197
874.979	23337
875.108	23364
875.237	23288
875.365	23231
875.494	23376
875.623	23459
875.751	23334
875.88	23448
876.008	23383
876.136	23444
876.265	23676
876.393	23836
876.521	23859
876.65	23843
876.778	23695
876.906	23798
877.034	23642
877.162	23695
877.29	23604
877.418	23623
877.546	23619
877.674	23779
877.802	23642
877.93	23684
878.058	23577
878.185	23467
878.313	23566
878.441	23722
878.568	23562
878.696	23623
878.824	23699
878.951	23726
879.079	23847
879.206	23920
879.333	23874
879.461	23733
879.588	23687
879.715	23813
879.842	23973
879.97	23707
880.097	23455
880.224	23326
880.351	23547
880.478	23448
880.605	23414
880.732	23528
880.859	23756
880.986	23554
881.112	23486
881.239	23315
881.366	23261
881.493	23181
881.619	23098
881.746	23033
881.872	23121
881.999	23041
882.125	22957
882.252	23041
882.378	23033
882.505	23212
882.631	22927
882.757	22767
882.883	22828
883.01	22706
883.136	22653
883.262	22702
883.388	22474
883.514	22763
883.64	22801
883.766	22599
883.892	22398
884.018	22481
884.143	22752
884.269	22771
884.395	22500
884.52	22333
884.646	22268
884.772	22253
884.897	22238
885.023	22363
885.148	22519
885.274	22421
885.399	22417
885.524	22519
885.65	22379
885.775	22325
885.9	22325
886.025	22405
886.15	22371
886.275	22287
886.4	22280
886.525	22322
886.65	22246
886.775	22249
886.9	22474
887.025	22546
887.149	22265
887.274	22219
887.399	22090
887.523	22181
887.648	21987
887.773	22124
887.897	22109
888.021	22128
888.146	22192
888.27	22181
888.395	22188
888.519	22162
888.643	22143
888.767	22131
888.891	22051
889.015	21960
889.139	21835
889.263	21915
889.387	21937
889.511	22074
889.635	22044
889.759	21857
889.883	21812
890.006	21819
890.13	21892
890.254	21857
890.377	21755
890.501	21679
890.624	21629
890.748	21622
890.871	21549
890.995	21348
891.118	21378
891.241	21477
891.364	21534
891.488	21515
891.611	21321
891.734	21458
891.857	21488
891.98	21363
892.103	21386
892.226	21481
892.349	21355
892.471	21245
892.594	21252
892.717	21351
892.839	21306
892.962	21370
893.085	21462
893.207	21245
893.33	21226
893.452	21230
893.575	21412
893.697	21363
893.819	21447
893.941	21542
894.064	21275
894.186	21279
894.308	21222
894.43	21454
894.552	21488
894.674	21359
894.796	21233
894.918	21272
895.04	21291
895.161	21389
895.283	21268
895.405	21233
895.526	21272
895.648	21249
895.769	21370
895.891	21317
896.012	21462
896.134	21302
896.255	21298
896.376	21245
896.498	21336
896.619	21344
896.74	21268
896.861	21397
896.982	21629
897.103	21663
897.224	21591
897.345	21519
897.466	21542
897.587	21587
897.708	21675
897.828	21557
897.949	21405
898.07	21344
898.19	21466
898.311	21477
898.431	21317
898.552	21500
898.672	21462
898.792	21370
898.913	21405
899.033	21230
899.153	21302
899.273	21119
899.393	21188
899.513	21157
899.633	21256
899.753	21214
899.873	21142
899.993	21291
900.113	20982
900.232	21127
900.352	21081
900.472	20956
900.591	20918
900.711	20933
900.83	20948
900.95	21066
901.069	21127
901.189	20845
901.308	20617
901.427	20568
901.546	20530
901.665	20556
901.784	20552
901.904	20362
902.023	20290
902.141	20122
902.26	20039
902.379	20043
902.498	20016
902.617	19997
902.735	20035
902.854	19947
902.973	19921
903.091	19696
903.21	19658
903.328	19628
903.446	19525
903.565	19487
903.683	19491
903.801	19327
903.919	19457
904.038	19358
904.156	19228
904.274	19381
904.392	19282
904.51	19202
904.627	19183
904.745	19304
904.863	19236
904.981	19091
905.098	18928
905.216	18924
905.334	18760
905.451	18791
905.569	18791
905.686	18958
905.803	18875
905.921	18559
906.038	18745
906.155	18616
906.272	18536
906.389	18536
906.506	18513
906.623	18456
906.74	18433
906.857	18266
906.974	18350
907.091	18399
907.208	18467
907.324	18479
907.441	18384
907.557	18155
907.674	18102
907.79	17939
907.907	18102
908.023	18136
908.139	18064
908.256	18064
908.372	17961
908.488	17935
908.604	17851
908.72	17760
908.836	17790
908.952	17726
909.068	17813
909.184	17832
909.3	17661
909.415	17748
909.531	17737
909.647	17524
909.762	17478
909.878	17459
909.993	17547
910.108	17455
910.224	17455
910.339	17379
910.454	17284
910.57	17223
910.685	17174
910.8	17543
910.915	17356
911.03	17231
911.145	17174
911.259	17022
911.374	16961
911.489	16999
911.604	16831
911.718	16702
911.833	16713
911.947	16706
912.062	16664
912.176	16828
912.291	16713
912.405	16687
912.519	16847
912.633	16877
912.748	16706
912.862	16736
912.976	16531
913.09	16443
913.204	16402
913.318	16630
913.431	16592
913.545	16630
913.659	16672
913.772	16447
913.886	16436
914	16363
914.113	16402
914.226	16523
914.34	16428
914.453	16158
914.566	16318
914.68	16211
914.793	16158
914.906	16131
915.019	15949
915.132	16029
915.245	15941
915.358	15994
915.47	15945
915.583	15975
915.696	15922
915.809	16166
915.921	15968
916.034	15892
916.146	15797
916.259	15800
916.371	15854
916.483	15854
916.595	15656
916.708	15679
916.82	15679
916.932	15637
917.044	15690
917.156	15644
917.268	15553
917.38	15553
917.491	15538
917.603	15576
917.715	15580
917.826	15538
917.938	15447
918.049	15359
918.161	15492
918.272	15564
918.384	15515
918.495	15504
918.606	15287
918.717	15203
918.828	15218
918.939	15336
919.05	15199
919.161	15245
919.272	15093
919.383	15032
919.494	15214
919.604	15447
919.715	15214
919.826	15260
919.936	15192
920.047	15306
920.157	15169
920.267	15382
920.378	15230
920.488	15199
920.598	15412
920.708	15507
920.818	15389
920.928	15313
921.038	15447
921.148	15374
921.258	15119
921.368	15074
921.477	14921
921.587	14899
921.697	14834
921.806	14960
921.916	14785
922.025	14571
922.134	14518
922.244	14511
922.353	14606
922.462	14419
922.571	14256
922.68	14263
922.789	14206
922.898	14183
923.007	14138
923.116	14180
923.224	14161
923.333	14142
923.442	14031
923.55	13986
923.659	13982
923.767	14069
923.876	13890
923.984	14031
924.092	13860
924.201	13993
924.309	13936
924.417	13898
924.525	13818
924.633	13788
924.741	14598
924.849	13624
924.956	13738
925.064	13658
925.172	13590
925.279	13529
925.387	13597
925.494	13567
925.602	13605
925.709	13559
925.816	13419
925.924	13457
926.031	13666
926.138	13495
926.245	13525
926.352	13350
926.459	13563
926.566	13529
926.673	13335
926.779	13339
926.886	13289
926.993	13179
927.099	13141
927.206	13023
927.312	13000
927.419	13080
927.525	13065
927.631	13107
927.737	13080
927.843	13000
927.95	12798
928.056	12817
928.162	12825
928.267	12958
928.373	13491
928.479	13031
928.585	12764
928.69	12894
928.796	12935
928.901	12768
929.007	12593
929.112	12783
929.218	12700
929.323	12662
929.428	12616
929.533	12681
929.638	12585
929.743	12498
929.848	12639
929.953	12528
930.058	12357
930.163	12319
930.267	12346
930.372	12365
930.477	12243
930.581	12445
930.685	12277
930.79	12254
930.894	12247
930.998	12159
931.103	12285
931.207	11885
931.311	11882
931.415	11707
931.519	11501
931.623	11455
