Data from test_V78500241_1154.txt Node
Date: Fri Mar 25 15:49:47 CST 2022
User: usil
Spectrometer: V785-0024
Trigger mode: 0
Integration Time (sec): 4.000000E-1
Scans to average: 1
Nonlinearity correction enabled: false
Boxcar width: 0
Storing dark spectrum: false
XAxis mode: Wavelengths
Number of Pixels in Spectrum: 1024
>>>>>Begin Spectral Data<<<<<
801.071	28725
801.214	28713
801.356	28424
801.499	28421
801.641	28181
801.783	28196
801.926	28314
802.068	28268
802.211	28124
802.353	28048
802.496	27937
802.638	27728
802.78	27698
802.923	27755
803.065	27739
803.208	27857
803.35	27808
803.492	27953
803.635	28154
803.777	27991
803.919	28207
804.061	28443
804.204	28265
804.346	28078
804.488	28006
804.63	28116
804.773	28074
804.915	28265
805.057	28246
805.199	28211
805.341	28287
805.483	28280
805.626	28325
805.768	28120
805.91	28223
806.052	28325
806.194	28382
806.336	28531
806.478	28367
806.62	28390
806.762	28489
806.904	28569
807.046	28904
807.188	28694
807.33	28778
807.472	28858
807.614	28653
807.756	28854
807.898	28691
808.04	28573
808.182	28557
808.324	28637
808.465	28618
808.607	28847
808.749	29041
808.891	29159
809.033	29166
809.174	29041
809.316	28987
809.458	28915
809.6	28904
809.741	29109
809.883	29155
810.025	29292
810.166	29326
810.308	29334
810.45	29379
810.591	29204
810.733	29014
810.875	28987
811.016	28869
811.158	28934
811.299	29075
811.441	29109
811.582	29189
811.724	29296
811.865	28957
812.007	29041
812.148	28873
812.29	29086
812.431	29193
812.573	29433
812.714	29589
812.855	29577
812.997	29691
813.138	29866
813.279	29630
813.421	29543
813.562	29638
813.703	29417
813.845	29223
813.986	28915
814.127	28843
814.268	28733
814.41	28839
814.551	28694
814.692	28774
814.833	28866
814.974	28706
815.115	28733
815.256	28649
815.397	28599
815.539	28645
815.68	28588
815.821	28474
815.962	28500
816.103	28565
816.244	28432
816.385	28386
816.526	28257
816.666	28207
816.807	28074
816.948	28048
817.089	28177
817.23	28044
817.371	28074
817.512	28070
817.653	28010
817.793	28192
817.934	27960
818.075	27991
818.216	28051
818.356	27987
818.497	27892
818.638	27926
818.778	27857
818.919	27892
819.06	27816
819.2	27857
819.341	28150
819.481	28093
819.622	28211
819.762	28314
819.903	28280
820.043	28329
820.184	28105
820.324	28192
820.465	28299
820.605	28211
820.746	28226
820.886	28078
821.026	28226
821.167	28109
821.307	28242
821.447	28112
821.588	28093
821.728	27907
821.868	27755
822.008	27496
822.149	27504
822.289	27485
822.429	27272
822.569	27211
822.709	27180
822.849	27104
822.99	27119
823.13	27001
823.27	26994
823.41	26868
823.55	26807
823.69	26899
823.83	26967
823.97	26910
824.11	26667
824.25	26541
824.389	26667
824.529	26891
824.669	26632
824.809	26895
824.949	26769
825.089	26861
825.228	26674
825.368	26526
825.508	26686
825.648	26644
825.787	26701
825.927	26598
826.067	26609
826.206	26602
826.346	26746
826.485	26659
826.625	26606
826.765	26594
826.904	26651
827.044	26499
827.183	26244
827.323	26256
827.462	26412
827.601	26294
827.741	26267
827.88	26381
828.02	26111
828.159	26244
828.298	26336
828.437	26374
828.577	26415
828.716	26301
828.855	26138
828.994	26005
829.134	25997
829.273	25925
829.412	25947
829.551	25982
829.69	25921
829.829	25951
829.968	26103
830.107	25970
830.246	26005
830.385	26073
830.524	25772
830.663	25849
830.802	25826
830.941	25704
831.08	25578
831.219	25670
831.357	25670
831.496	25906
831.635	25586
831.774	25422
831.913	25651
832.051	25434
832.19	25400
832.329	25327
832.467	25392
832.606	25141
832.744	25179
832.883	25282
833.022	25160
833.16	25236
833.299	25316
833.437	25251
833.576	25373
833.714	25282
833.852	25449
833.991	25476
834.129	25274
834.267	25400
834.406	25495
834.544	25331
834.682	25263
834.821	25289
834.959	25552
835.097	25209
835.235	25240
835.373	25304
835.511	25373
835.65	25183
835.788	25244
835.926	25118
836.064	25088
836.202	24985
836.34	25190
836.478	25270
836.615	25031
836.753	25076
836.891	25255
837.029	25221
837.167	25133
837.305	25145
837.443	25171
837.58	25129
837.718	25012
837.856	25065
837.993	24840
838.131	25004
838.269	24920
838.406	24932
838.544	24795
838.681	24456
838.819	24551
838.956	24407
839.094	24528
839.231	24570
839.369	24654
839.506	24837
839.643	24681
839.781	24494
839.918	24391
840.055	24437
840.193	24555
840.33	24289
840.467	24384
840.604	24410
840.742	24658
840.879	24311
841.016	24277
841.153	24254
841.29	24376
841.427	24414
841.564	24327
841.701	24403
841.838	24289
841.975	24277
842.112	24174
842.249	24197
842.385	24209
842.522	24270
842.659	24186
842.796	24060
842.933	24091
843.069	24171
843.206	24072
843.343	24144
843.479	24167
843.616	24057
843.752	23923
843.889	24045
844.025	23999
844.162	23954
844.298	24003
844.435	23988
844.571	23901
844.708	23996
844.844	24041
844.98	23977
845.117	24003
845.253	23794
845.389	23794
845.525	23783
845.661	23684
845.798	23570
845.934	23642
846.07	23653
846.206	23752
846.342	23722
846.478	23646
846.614	23440
846.75	23227
846.886	23322
847.022	23425
847.158	23372
847.294	23349
847.429	23440
847.565	23349
847.701	23554
847.837	23094
847.972	23121
848.108	23094
848.244	23041
848.379	23083
848.515	22911
848.65	22919
848.786	22972
848.921	22927
849.057	23064
849.192	23014
849.328	22942
849.463	23010
849.598	22915
849.734	22828
849.869	22820
850.004	22778
850.14	22824
850.275	22698
850.41	22615
850.545	22630
850.68	22721
850.815	22687
850.95	22801
851.085	22816
851.22	22752
851.355	22687
851.49	22599
851.625	22683
851.76	22653
851.895	22615
852.03	22622
852.165	22702
852.299	22634
852.434	22725
852.569	22755
852.703	22618
852.838	22774
852.973	22721
853.107	22839
853.242	22668
853.376	22649
853.511	22284
853.645	22485
853.78	22557
853.914	22618
854.048	22478
854.183	22455
854.317	22611
854.451	22713
854.585	22577
854.72	22516
854.854	22565
854.988	22398
855.122	22577
855.256	22474
855.39	22409
855.524	22683
855.658	22645
855.792	22546
855.926	22459
856.06	22451
856.194	22611
856.327	22497
856.461	22519
856.595	22508
856.729	22436
856.862	22626
856.996	22557
857.13	22489
857.263	22554
857.397	22531
857.53	22413
857.664	22607
857.797	22531
857.931	22656
858.064	22470
858.197	22584
858.331	22527
858.464	22447
858.597	22295
858.731	22519
858.864	22470
858.997	22531
859.13	22618
859.263	22557
859.396	22531
859.529	22402
859.662	22500
859.795	22447
859.928	22451
860.061	22588
860.194	22679
860.327	22443
860.46	22580
860.592	22679
860.725	22710
860.858	22538
860.99	22474
861.123	22325
861.256	22588
861.388	22500
861.521	23159
861.653	22337
861.786	22295
861.918	22363
862.05	22230
862.183	22371
862.315	22504
862.447	22459
862.58	22413
862.712	22181
862.844	22158
862.976	22325
863.108	22314
863.24	22736
863.372	22048
863.504	22242
863.636	22147
863.768	22314
863.9	22329
864.032	22230
864.164	22070
864.296	22303
864.428	22318
864.559	22246
864.691	22310
864.823	22131
864.954	22177
865.086	22204
865.217	22135
865.349	21972
865.48	21968
865.612	22150
865.743	22287
865.875	22109
866.006	22067
866.137	22128
866.269	21983
866.4	22051
866.531	22070
866.662	22029
866.793	22032
866.924	21964
867.055	22093
867.186	22010
867.317	21991
867.448	21888
867.579	21884
867.71	21949
867.841	21876
867.972	22032
868.103	22044
868.233	22086
868.364	22006
868.495	22131
868.625	22230
868.756	22268
868.886	22223
869.017	22246
869.147	22405
869.278	22192
869.408	22333
869.539	22143
869.669	22325
869.799	22253
869.929	22386
870.06	22341
870.19	22584
870.32	22622
870.45	22618
870.58	22702
870.71	22721
870.84	22710
870.97	22618
871.1	22565
871.23	22892
871.36	22927
871.489	22706
871.619	22801
871.749	22885
871.879	22904
872.008	23006
872.138	22858
872.267	22774
872.397	22736
872.526	22740
872.656	22660
872.785	22713
872.915	22805
873.044	22889
873.173	22953
873.303	22835
873.432	22866
873.561	22942
873.69	22866
873.819	22759
873.948	22873
874.077	22767
874.206	22733
874.335	22896
874.464	22987
874.593	23147
874.722	22949
874.851	23052
874.979	23140
875.108	23178
875.237	22965
875.365	22873
875.494	23033
875.623	23155
875.751	23025
875.88	23102
876.008	23155
876.136	23151
876.265	23345
876.393	23608
876.521	23531
876.65	23505
876.778	23448
876.906	23414
877.034	23311
877.162	23376
877.29	23341
877.418	23493
877.546	23414
877.674	23383
877.802	23341
877.93	23330
878.058	23349
878.185	23208
878.313	23368
878.441	23273
878.568	23208
878.696	23242
878.824	23303
878.951	23448
879.079	23638
879.206	23604
879.333	23589
879.461	23334
879.588	23562
879.715	23497
879.842	23619
879.97	23444
880.097	23280
880.224	23227
880.351	23185
880.478	23117
880.605	23136
880.732	23181
880.859	23516
880.986	23273
881.112	23220
881.239	23121
881.366	22980
881.493	22820
881.619	22831
881.746	22793
881.872	22717
881.999	22603
882.125	22725
882.252	22778
882.378	22786
882.505	22961
882.631	22744
882.757	22592
882.883	22512
883.01	22421
883.136	22386
883.262	22413
883.388	22276
883.514	22512
883.64	22557
883.766	22360
883.892	22181
884.018	22322
884.143	22352
884.269	22466
884.395	22200
884.52	22063
884.646	22063
884.772	22048
884.897	22059
885.023	22120
885.148	22246
885.274	22242
885.399	22173
885.524	22131
885.65	22211
885.775	22109
885.9	22017
886.025	22131
886.15	22143
886.275	22124
886.4	21937
886.525	22017
886.65	21956
886.775	21994
886.9	22154
887.025	22371
887.149	22090
887.274	21861
887.399	21835
887.523	21819
887.648	21785
887.773	21827
887.897	21831
888.021	21953
888.146	21682
888.27	21934
888.395	21968
888.519	21922
888.643	21739
888.767	21930
888.891	21759
889.015	21759
889.139	21641
889.263	21485
889.387	21800
889.511	21747
889.635	21713
889.759	21568
889.883	21633
890.006	21641
890.13	21705
890.254	21595
890.377	21538
890.501	21378
890.624	21389
890.748	21344
890.871	21192
890.995	21203
891.118	21146
891.241	21188
891.364	21157
891.488	21260
891.611	21127
891.734	21222
891.857	21180
891.98	21157
892.103	21161
892.226	21211
892.349	21116
892.471	20986
892.594	21039
892.717	21135
892.839	21005
892.962	21066
893.085	21211
893.207	21017
893.33	21020
893.452	21039
893.575	21169
893.697	20998
893.819	21188
893.941	21252
894.064	21184
894.186	21051
894.308	21055
894.43	21245
894.552	21108
894.674	21104
894.796	20948
894.918	21203
895.04	21131
895.161	21077
895.283	21020
895.405	21024
895.526	21077
895.648	21017
895.769	21108
895.891	21154
896.012	21119
896.134	21051
896.255	21119
896.376	21093
896.498	21028
896.619	21173
896.74	21116
896.861	21096
896.982	21351
897.103	21454
897.224	21367
897.345	21317
897.466	21279
897.587	21169
897.708	21420
897.828	21291
897.949	21214
898.07	21104
898.19	21363
898.311	21344
898.431	21176
898.552	21260
898.672	21157
898.792	21260
898.913	21275
899.033	21112
899.153	21039
899.273	20864
899.393	21055
899.513	20982
899.633	21020
899.753	21039
899.873	20941
899.993	21081
900.113	20883
900.232	20910
900.352	20929
900.472	20845
900.591	20727
900.711	20792
900.83	20746
900.95	20823
901.069	20826
901.189	20765
901.308	20492
901.427	20351
901.546	20244
901.665	20351
901.784	20389
901.904	20164
902.023	20180
902.141	19955
902.26	19909
902.379	19837
902.498	19951
902.617	19746
902.735	19890
902.854	19803
902.973	19845
903.091	19635
903.21	19487
903.328	19506
903.446	19480
903.565	19259
903.683	19381
903.801	19183
903.919	19304
904.038	19236
904.156	19053
904.274	19145
904.392	18985
904.51	19019
904.627	19088
904.745	19053
904.863	19057
904.981	18837
905.098	18673
905.216	18798
905.334	18719
905.451	18871
905.569	18608
905.686	18791
905.803	18741
905.921	18486
906.038	18597
906.155	18585
906.272	18437
906.389	18399
906.506	18289
906.623	18296
906.74	18251
906.857	18125
906.974	18239
907.091	18330
907.208	18361
907.324	18243
907.441	18125
907.557	17961
907.674	18015
907.79	17927
907.907	17954
908.023	18053
908.139	17999
908.256	17866
908.372	17904
908.488	17897
908.604	17733
908.72	17649
908.836	17707
908.952	17684
909.068	17775
909.184	17745
909.3	17623
909.415	17642
909.531	17596
909.647	17356
909.762	17398
909.878	17391
909.993	17387
910.108	17315
910.224	17406
910.339	17368
910.454	17193
910.57	17189
910.685	17079
910.8	17387
910.915	17254
911.03	17200
911.145	16957
911.259	16862
911.374	16957
911.489	16923
911.604	16763
911.718	16607
911.833	16683
911.947	16588
912.062	16531
912.176	16687
912.291	16797
912.405	16698
912.519	16843
912.633	16824
912.748	16611
912.862	16603
912.976	16531
913.09	16344
913.204	16390
913.318	16424
913.431	16607
913.545	16489
913.659	16519
913.772	16367
913.886	16310
914	16230
914.113	16462
914.226	16352
914.34	16318
914.453	16169
914.566	16322
914.68	16162
914.793	16029
914.906	15823
915.019	15857
915.132	15747
915.245	15804
915.358	15895
915.47	15915
915.583	15895
915.696	15827
915.809	15903
915.921	15945
916.034	15774
916.146	15675
916.259	15747
916.371	15854
916.483	15663
916.595	15701
916.708	15766
916.82	15739
916.932	15633
917.044	15694
917.156	15671
917.268	15477
917.38	15515
917.491	15408
917.603	15500
917.715	15443
917.826	15580
917.938	15424
918.049	15291
918.161	15496
918.272	15504
918.384	15603
918.495	15389
918.606	15203
918.717	15230
918.828	15150
918.939	15329
919.05	15173
919.161	15192
919.272	15009
919.383	15093
919.494	15222
919.604	15329
919.715	15161
919.826	15169
919.936	15123
920.047	15355
920.157	15165
920.267	15363
920.378	15176
920.488	15077
920.598	15211
920.708	15492
920.818	15408
920.928	15325
921.038	15420
921.148	15492
921.258	15123
921.368	14994
921.477	14899
921.587	14914
921.697	14807
921.806	14872
921.916	14735
922.025	14587
922.134	14514
922.244	14404
922.353	14488
922.462	14423
922.571	14366
922.68	14180
922.789	14130
922.898	14187
923.007	14084
923.116	14123
923.224	14065
923.333	14096
923.442	14065
923.55	13947
923.659	14043
923.767	14100
923.876	13890
923.984	14016
924.092	13925
924.201	13940
924.309	13982
924.417	13879
924.525	13849
924.633	13811
924.741	14644
924.849	13597
924.956	13685
925.064	13544
925.172	13616
925.279	13483
925.387	13529
925.494	13578
925.602	13647
925.709	13620
925.816	13426
925.924	13415
926.031	13613
926.138	13464
926.245	13491
926.352	13468
926.459	13487
926.566	13586
926.673	13350
926.779	13327
926.886	13194
926.993	13099
927.099	13168
927.206	13057
927.312	13107
927.419	13107
927.525	13110
927.631	13133
927.737	12985
927.843	12909
927.95	12833
928.056	12867
928.162	12890
928.267	12970
928.373	13502
928.479	12981
928.585	12703
928.69	12814
928.796	12878
928.901	12802
929.007	12563
929.112	12696
929.218	12677
929.323	12684
929.428	12726
929.533	12692
929.638	12509
929.743	12631
929.848	12582
929.953	12490
930.058	12414
930.163	12289
930.267	12194
930.372	12414
930.477	12289
930.581	12369
930.685	12418
930.79	12232
930.894	12194
930.998	12114
931.103	12232
931.207	12003
931.311	11779
931.415	11680
931.519	11589
931.623	11535
