Data from test_V78500241_969.txt Node
Date: Fri Mar 25 15:48:30 CST 2022
User: usil
Spectrometer: V785-0024
Trigger mode: 0
Integration Time (sec): 4.000000E-1
Scans to average: 1
Nonlinearity correction enabled: false
Boxcar width: 0
Storing dark spectrum: false
XAxis mode: Wavelengths
Number of Pixels in Spectrum: 1024
>>>>>Begin Spectral Data<<<<<
801.071	28421
801.214	28440
801.356	28109
801.499	28135
801.641	27983
801.783	27968
801.926	28048
802.068	27888
802.211	27907
802.353	27918
802.496	27724
802.638	27739
802.78	27625
802.923	27633
803.065	27599
803.208	27641
803.35	27720
803.492	27770
803.635	27819
803.777	27682
803.919	27941
804.061	28253
804.204	27842
804.346	27861
804.488	27865
804.63	27854
804.773	27762
804.915	27778
805.057	27941
805.199	27770
805.341	27922
805.483	27991
805.626	27926
805.768	27816
805.91	28048
806.052	28002
806.194	28051
806.336	28348
806.478	28101
806.62	28051
806.762	28139
806.904	28226
807.046	28561
807.188	28253
807.33	28390
807.472	28565
807.614	28531
807.756	28459
807.898	28344
808.04	28287
808.182	28329
808.324	28253
808.465	28462
808.607	28455
808.749	28599
808.891	28869
809.033	28812
809.174	28767
809.316	28634
809.458	28740
809.6	28679
809.741	28626
809.883	28866
810.025	28984
810.166	29136
810.308	28968
810.45	28900
810.591	28881
810.733	28862
810.875	28672
811.016	28729
811.158	28474
811.299	28801
811.441	29018
811.582	28801
811.724	28771
811.865	28634
812.007	28801
812.148	28809
812.29	28949
812.431	29003
812.573	29006
812.714	29124
812.855	29189
812.997	29322
813.138	29581
813.279	29364
813.421	29345
813.562	29208
813.703	29064
813.845	28991
813.986	28687
814.127	28535
814.268	28550
814.41	28459
814.551	28462
814.692	28523
814.833	28280
814.974	28401
815.115	28417
815.256	28337
815.397	28299
815.539	28428
815.68	28150
815.821	28090
815.962	28105
816.103	28173
816.244	28010
816.385	28074
816.526	27994
816.666	27968
816.807	27686
816.948	27857
817.089	27899
817.23	27880
817.371	27800
817.512	27842
817.653	27797
817.793	27682
817.934	27720
818.075	27793
818.216	27713
818.356	27797
818.497	27542
818.638	27481
818.778	27473
818.919	27447
819.06	27568
819.2	27663
819.341	27762
819.481	27800
819.622	27835
819.762	28143
819.903	28120
820.043	27987
820.184	27800
820.324	27774
820.465	27892
820.605	27812
820.746	27907
820.886	27652
821.026	27804
821.167	27964
821.307	27778
821.447	27831
821.588	27755
821.728	27591
821.868	27496
822.008	27138
822.149	27096
822.289	27249
822.429	27081
822.569	26693
822.709	27100
822.849	26777
822.99	26826
823.13	26720
823.27	26720
823.41	26739
823.55	26537
823.69	26590
823.83	26636
823.97	26598
824.11	26298
824.25	26317
824.389	26358
824.529	26434
824.669	26404
824.809	26495
824.949	26560
825.089	26419
825.228	26473
825.368	26183
825.508	26240
825.648	26229
825.787	26183
825.927	26229
826.067	26233
826.206	26191
826.346	26385
826.485	26263
826.625	26336
826.765	26453
826.904	26282
827.044	26027
827.183	26206
827.323	26027
827.462	25966
827.601	25947
827.741	25894
827.88	26012
828.02	25799
828.159	25936
828.298	25989
828.437	25989
828.577	25913
828.716	26027
828.855	25864
828.994	25613
829.134	25624
829.273	25750
829.412	25651
829.551	25674
829.69	25738
829.829	25628
829.968	25841
830.107	25833
830.246	25681
830.385	25540
830.524	25525
830.663	25586
830.802	25460
830.941	25274
831.08	25251
831.219	25472
831.357	25259
831.496	25327
831.635	25396
831.774	25206
831.913	25114
832.051	25110
832.19	25019
832.329	25076
832.467	24996
832.606	24932
832.744	24985
832.883	24909
833.022	24901
833.16	25015
833.299	25053
833.437	25247
833.576	25004
833.714	24981
833.852	25008
833.991	25076
834.129	25099
834.267	25091
834.406	25027
834.544	25031
834.682	25080
834.821	25099
834.959	25236
835.097	24996
835.235	25061
835.373	24932
835.511	25076
835.65	24825
835.788	24924
835.926	24715
836.064	24631
836.202	24661
836.34	24939
836.478	24901
836.615	24821
836.753	24821
836.891	24943
837.029	24722
837.167	24719
837.305	24692
837.443	24681
837.58	24528
837.718	24798
837.856	24669
837.993	24757
838.131	24528
838.269	24475
838.406	24528
838.544	24494
838.681	24426
838.819	24372
838.956	24182
839.094	24171
839.231	24327
839.369	24342
839.506	24544
839.643	24388
839.781	24178
839.918	24190
840.055	24235
840.193	24201
840.33	24068
840.467	24049
840.604	24114
840.742	24342
840.879	23840
841.016	23965
841.153	23992
841.29	24030
841.427	23923
841.564	24140
841.701	23977
841.838	23851
841.975	24011
842.112	23931
842.249	23813
842.385	23676
842.522	23973
842.659	23866
842.796	23813
842.933	23783
843.069	23729
843.206	23676
843.343	23882
843.479	23863
843.616	23783
843.752	23604
843.889	23577
844.025	23775
844.162	23562
844.298	23608
844.435	23608
844.571	23611
844.708	23589
844.844	23733
844.98	23764
845.117	23729
845.253	23474
845.389	23376
845.525	23444
845.661	23406
845.798	23200
845.934	23334
846.07	23387
846.206	23303
846.342	23410
846.478	23216
846.614	23147
846.75	23014
846.886	23052
847.022	23090
847.158	23121
847.294	23075
847.429	23079
847.565	23052
847.701	23223
847.837	22774
847.972	22694
848.108	22748
848.244	22748
848.379	22641
848.515	22599
848.65	22538
848.786	22626
848.921	22721
849.057	22641
849.192	22603
849.328	22550
849.463	22641
849.598	22607
849.734	22451
849.869	22478
850.004	22440
850.14	22417
850.275	22382
850.41	22352
850.545	22337
850.68	22432
850.815	22375
850.95	22497
851.085	22451
851.22	22554
851.355	22375
851.49	22265
851.625	22257
851.76	22318
851.895	22226
852.03	22261
852.165	22299
852.299	22436
852.434	22474
852.569	22204
852.703	22333
852.838	22367
852.973	22504
853.107	22409
853.242	22360
853.376	22219
853.511	22097
853.645	22276
853.78	22413
853.914	22284
854.048	22070
854.183	22090
854.317	22105
854.451	22299
854.585	22150
854.72	22029
854.854	22242
854.988	22169
855.122	22219
855.256	22074
855.39	22181
855.524	22181
855.658	22188
855.792	22196
855.926	22200
856.06	22200
856.194	22109
856.327	22059
856.461	22147
856.595	22147
856.729	22013
856.862	22265
856.996	22284
857.13	22200
857.263	22310
857.397	22192
857.53	22318
857.664	22318
857.797	22219
857.931	22295
858.064	22226
858.197	22402
858.331	22196
858.464	22112
858.597	22055
858.731	22219
858.864	22166
858.997	22131
859.13	22192
859.263	22169
859.396	22318
859.529	22257
859.662	22226
859.795	22131
859.928	22249
860.061	22386
860.194	22344
860.327	22253
860.46	22249
860.592	22421
860.725	22226
860.858	22303
860.99	22162
861.123	22105
861.256	22147
861.388	22261
861.521	22850
861.653	22010
861.786	22021
861.918	21956
862.05	22112
862.183	22082
862.315	22067
862.447	22238
862.58	22101
862.712	21895
862.844	21823
862.976	21960
863.108	22036
863.24	22162
863.372	21869
863.504	21846
863.636	21918
863.768	21960
863.9	21819
864.032	21816
864.164	21842
864.296	21930
864.428	21964
864.559	21854
864.691	21956
864.823	21846
864.954	21911
865.086	21781
865.217	21876
865.349	21652
865.48	21694
865.612	21846
865.743	21983
865.875	21739
866.006	21778
866.137	21732
866.269	21694
866.4	21781
866.531	21603
866.662	21766
866.793	21743
866.924	21755
867.055	21648
867.186	21724
867.317	21618
867.448	21614
867.579	21781
867.71	21652
867.841	21633
867.972	21618
868.103	21728
868.233	21690
868.364	21690
868.495	21781
868.625	21968
868.756	22078
868.886	21972
869.017	21983
869.147	21979
869.278	22070
869.408	21934
869.539	21953
869.669	22082
869.799	22006
869.929	22093
870.06	22124
870.19	22299
870.32	22219
870.45	22284
870.58	22329
870.71	22390
870.84	22557
870.97	22356
871.1	22318
871.23	22470
871.36	22615
871.489	22535
871.619	22512
871.749	22565
871.879	22561
872.008	22710
872.138	22428
872.267	22615
872.397	22371
872.526	22344
872.656	22295
872.785	22238
872.915	22485
873.044	22626
873.173	22592
873.303	22706
873.432	22592
873.561	22694
873.69	22481
873.819	22660
873.948	22660
874.077	22508
874.206	22481
874.335	22596
874.464	22736
874.593	22733
874.722	22721
874.851	22713
874.979	22866
875.108	22828
875.237	22767
875.365	22615
875.494	22915
875.623	22778
875.751	22786
875.88	22698
876.008	22889
876.136	22881
876.265	23200
876.393	23220
876.521	23170
876.65	23212
876.778	23204
876.906	23140
877.034	22961
877.162	23041
877.29	22995
877.418	23216
877.546	23181
877.674	23060
877.802	23143
877.93	23102
878.058	23140
878.185	23018
878.313	23006
878.441	23197
878.568	22911
878.696	23105
878.824	23143
878.951	23181
879.079	23326
879.206	23436
879.333	23075
879.461	23105
879.588	23239
879.715	23315
879.842	23421
879.97	23140
880.097	22847
880.224	22862
880.351	22957
880.478	22949
880.605	22873
880.732	22915
880.859	23094
880.986	22873
881.112	22900
881.239	22748
881.366	22618
881.493	22504
881.619	22478
881.746	22523
881.872	22519
881.999	22626
882.125	22436
882.252	22497
882.378	22466
882.505	22478
882.631	22405
882.757	22204
882.883	22360
883.01	22215
883.136	22147
883.262	22025
883.388	21956
883.514	22150
883.64	22090
883.766	22074
883.892	22013
884.018	21823
884.143	22150
884.269	22280
884.395	21759
884.52	21911
884.646	21823
884.772	21755
884.897	21724
885.023	21819
885.148	21876
885.274	22059
885.399	22006
885.524	21789
885.65	21869
885.775	21804
885.9	21793
886.025	21937
886.15	21880
886.275	21785
886.4	21835
886.525	21797
886.65	21622
886.775	21770
886.9	21778
887.025	21930
887.149	21869
887.274	21561
887.399	21679
887.523	21644
887.648	21637
887.773	21507
887.897	21564
888.021	21701
888.146	21534
888.27	21580
888.395	21766
888.519	21561
888.643	21473
888.767	21545
888.891	21458
889.015	21275
889.139	21458
889.263	21256
889.387	21473
889.511	21530
889.635	21519
889.759	21272
889.883	21378
890.006	21386
890.13	21473
890.254	21241
890.377	21332
890.501	21150
890.624	21119
890.748	21089
890.871	20982
890.995	20921
891.118	20899
891.241	20906
891.364	21009
891.488	21039
891.611	20933
891.734	20853
891.857	21001
891.98	20944
892.103	20952
892.226	20861
892.349	20826
892.471	20712
892.594	20868
892.717	20864
892.839	20838
892.962	20868
893.085	20876
893.207	20746
893.33	20701
893.452	20735
893.575	20906
893.697	20743
893.819	20785
893.941	21036
894.064	20952
894.186	20758
894.308	20792
894.43	20838
894.552	20948
894.674	20861
894.796	20712
894.918	20750
895.04	20716
895.161	20880
895.283	20853
895.405	20716
895.526	20724
895.648	20739
895.769	20819
895.891	20883
896.012	20872
896.134	20800
896.255	20800
896.376	20716
896.498	20724
896.619	20902
896.74	20788
896.861	20823
896.982	21188
897.103	21135
897.224	21058
897.345	21047
897.466	21005
897.587	21017
897.708	21252
897.828	21013
897.949	20963
898.07	20765
898.19	20986
898.311	21047
898.431	21032
898.552	20986
898.672	21032
898.792	21100
898.913	21051
899.033	20952
899.153	20750
899.273	20712
899.393	20788
899.513	20762
899.633	20705
899.753	20701
899.873	20712
899.993	20762
900.113	20750
900.232	20670
900.352	20648
900.472	20617
900.591	20507
900.711	20526
900.83	20492
900.95	20587
901.069	20568
901.189	20415
901.308	20107
901.427	20096
901.546	20043
901.665	20119
901.784	20069
901.904	20039
902.023	19845
902.141	19727
902.26	19734
902.379	19658
902.498	19495
902.617	19582
902.735	19734
902.854	19594
902.973	19616
903.091	19327
903.21	19301
903.328	19164
903.446	19110
903.565	19057
903.683	19004
903.801	19042
903.919	19015
904.038	19015
904.156	18741
904.274	18795
904.392	18840
904.51	18856
904.627	18821
904.745	18760
904.863	18840
904.981	18650
905.098	18532
905.216	18547
905.334	18639
905.451	18547
905.569	18593
905.686	18483
905.803	18448
905.921	18197
906.038	18407
906.155	18239
906.272	18163
906.389	18258
906.506	18106
906.623	17984
906.74	17885
906.857	17969
906.974	18007
907.091	18083
907.208	18106
907.324	18144
907.441	17897
907.557	17790
907.674	17805
907.79	17653
907.907	17729
908.023	17699
908.139	17649
908.256	17703
908.372	17668
908.488	17661
908.604	17581
908.72	17490
908.836	17524
908.952	17440
909.068	17448
909.184	17532
909.3	17520
909.415	17539
909.531	17501
909.647	17220
909.762	17162
909.878	17147
909.993	17231
910.108	17151
910.224	17113
910.339	17159
910.454	16987
910.57	16923
910.685	16866
910.8	17166
910.915	16999
911.03	16900
911.145	16755
911.259	16691
911.374	16694
911.489	16603
911.604	16550
911.718	16462
911.833	16436
911.947	16280
912.062	16265
912.176	16291
912.291	16470
912.405	16390
912.519	16622
912.633	16558
912.748	16478
912.862	16443
912.976	16291
913.09	16169
913.204	16268
913.318	16322
913.431	16417
913.545	16398
913.659	16314
913.772	16219
913.886	15987
914	16010
914.113	16097
914.226	16181
914.34	16154
914.453	16029
914.566	16109
914.68	15918
914.793	15842
914.906	15755
915.019	15644
915.132	15622
915.245	15580
915.358	15728
915.47	15599
915.583	15747
915.696	15705
915.809	15728
915.921	15774
916.034	15526
916.146	15595
916.259	15564
916.371	15625
916.483	15557
916.595	15504
916.708	15504
916.82	15549
916.932	15469
917.044	15359
917.156	15408
917.268	15291
917.38	15298
917.491	15310
917.603	15275
917.715	15420
917.826	15389
917.938	15207
918.049	15146
918.161	15233
918.272	15386
918.384	15298
918.495	15192
918.606	15138
918.717	14956
918.828	15032
918.939	15176
919.05	14963
919.161	15005
919.272	14807
919.383	14899
919.494	15062
919.604	15249
919.715	14990
919.826	14998
919.936	15001
920.047	15089
920.157	15066
920.267	15123
920.378	15066
920.488	14883
920.598	15150
920.708	15344
920.818	14998
920.928	15138
921.038	15256
921.148	15188
921.258	14891
921.368	14807
921.477	14716
921.587	14735
921.697	14575
921.806	14716
921.916	14613
922.025	14526
922.134	14381
922.244	14282
922.353	14419
922.462	14290
922.571	14088
922.68	13963
922.789	14024
922.898	13993
923.007	13921
923.116	13955
923.224	14024
923.333	14050
923.442	13795
923.55	13871
923.659	13894
923.767	13852
923.876	13757
923.984	13928
924.092	13723
924.201	13647
924.309	13708
924.417	13723
924.525	13578
924.633	13658
924.741	14575
924.849	13529
924.956	13605
925.064	13400
925.172	13255
925.279	13331
925.387	13430
925.494	13354
925.602	13586
925.709	13411
925.816	13244
925.924	13247
926.031	13381
926.138	13297
926.245	13411
926.352	13228
926.459	13350
926.566	13259
926.673	13213
926.779	13126
926.886	13099
926.993	12970
927.099	12916
927.206	12920
927.312	12985
927.419	13008
927.525	12878
927.631	12985
927.737	12905
927.843	12764
927.95	12616
928.056	12783
928.162	12753
928.267	12779
928.373	13263
928.479	12787
928.585	12517
928.69	12745
928.796	12745
928.901	12654
929.007	12460
929.112	12627
929.218	12490
929.323	12448
929.428	12361
929.533	12574
929.638	12365
929.743	12342
929.848	12467
929.953	12418
930.058	12319
930.163	12152
930.267	12125
930.372	12239
930.477	12110
930.581	12414
930.685	12178
930.79	12026
930.894	11942
930.998	11969
931.103	12072
931.207	11760
931.311	11676
931.415	11600
931.519	11463
931.623	11406
