Data from test_V78500241_3313.txt Node
Date: Fri Mar 25 16:04:45 CST 2022
User: usil
Spectrometer: V785-0024
Trigger mode: 0
Integration Time (sec): 4.000000E-1
Scans to average: 1
Nonlinearity correction enabled: false
Boxcar width: 0
Storing dark spectrum: false
XAxis mode: Wavelengths
Number of Pixels in Spectrum: 1024
>>>>>Begin Spectral Data<<<<<
801.071	28763
801.214	28854
801.356	28508
801.499	28523
801.641	28363
801.783	28314
801.926	28348
802.068	28535
802.211	28280
802.353	28287
802.496	28204
802.638	28055
802.78	27956
802.923	27922
803.065	27949
803.208	28017
803.35	27941
803.492	28192
803.635	28249
803.777	28105
803.919	28284
804.061	28653
804.204	28382
804.346	28188
804.488	28169
804.63	28200
804.773	28230
804.915	28394
805.057	28462
805.199	28219
805.341	28322
805.483	28371
805.626	28440
805.768	28428
805.91	28417
806.052	28519
806.194	28375
806.336	28622
806.478	28413
806.62	28436
806.762	28725
806.904	28767
807.046	28957
807.188	28923
807.33	28938
807.472	28892
807.614	28839
807.756	28839
807.898	28767
808.04	28649
808.182	28596
808.324	28862
808.465	28896
808.607	29064
808.749	29159
808.891	29216
809.033	29315
809.174	29159
809.316	29044
809.458	29223
809.6	29204
809.741	29273
809.883	29387
810.025	29410
810.166	29406
810.308	29448
810.45	29440
810.591	29375
810.733	29292
810.875	29029
811.016	29143
811.158	28987
811.299	29204
811.441	29402
811.582	29433
811.724	29056
811.865	29193
812.007	29083
812.148	29132
812.29	29204
812.431	29364
812.573	29463
812.714	29642
812.855	29726
812.997	29824
813.138	29935
813.279	29756
813.421	29653
813.562	29554
813.703	29520
813.845	29395
813.986	29250
814.127	29075
814.268	28843
814.41	28881
814.551	28953
814.692	28904
814.833	28831
814.974	28782
815.115	28843
815.256	28626
815.397	28801
815.539	28805
815.68	28721
815.821	28409
815.962	28687
816.103	28843
816.244	28512
816.385	28565
816.526	28398
816.666	28238
816.807	28101
816.948	28219
817.089	28173
817.23	28246
817.371	28128
817.512	28223
817.653	28265
817.793	28185
817.934	28158
818.075	28204
818.216	28265
818.356	28105
818.497	28051
818.638	27876
818.778	27960
818.919	27998
819.06	27968
819.2	28074
819.341	28242
819.481	28230
819.622	28459
819.762	28622
819.903	28550
820.043	28413
820.184	28375
820.324	28455
820.465	28363
820.605	28386
820.746	28356
820.886	28223
821.026	28401
821.167	28280
821.307	28417
821.447	28253
821.588	28185
821.728	28029
821.868	27884
822.008	27690
822.149	27686
822.289	27625
822.429	27416
822.569	27340
822.709	27340
822.849	27272
822.99	27256
823.13	27192
823.27	27176
823.41	27157
823.55	26952
823.69	27089
823.83	27123
823.97	27062
824.11	26861
824.25	26743
824.389	26895
824.529	26975
824.669	26899
824.809	26864
824.949	26910
825.089	26937
825.228	26891
825.368	26731
825.508	26682
825.648	26632
825.787	26777
825.927	26853
826.067	26785
826.206	26743
826.346	26720
826.485	26743
826.625	26636
826.765	26807
826.904	26762
827.044	26560
827.183	26511
827.323	26347
827.462	26511
827.601	26442
827.741	26469
827.88	26488
828.02	26313
828.159	26469
828.298	26423
828.437	26492
828.577	26457
828.716	26568
828.855	26438
828.994	26168
829.134	26145
829.273	26145
829.412	26199
829.551	26126
829.69	25997
829.829	26062
829.968	26214
830.107	26229
830.246	26100
830.385	26077
830.524	26027
830.663	25936
830.802	25830
830.941	25807
831.08	25666
831.219	25723
831.357	25814
831.496	25940
831.635	25685
831.774	25620
831.913	25620
832.051	25502
832.19	25567
832.329	25571
832.467	25495
832.606	25499
832.744	25392
832.883	25327
833.022	25445
833.16	25464
833.299	25487
833.437	25422
833.576	25430
833.714	25479
833.852	25552
833.991	25586
834.129	25540
834.267	25521
834.406	25521
834.544	25396
834.682	25525
834.821	25537
834.959	25624
835.097	25449
835.235	25381
835.373	25415
835.511	25472
835.65	25297
835.788	25430
835.926	25240
836.064	24985
836.202	25148
836.34	25255
836.478	25320
836.615	25324
836.753	25171
836.891	25438
837.029	25247
837.167	25168
837.305	25202
837.443	25164
837.58	25129
837.718	25118
837.856	25126
837.993	24996
838.131	25034
838.269	24992
838.406	24970
838.544	24833
838.681	24966
838.819	24650
838.956	24616
839.094	24521
839.231	24559
839.369	24798
839.506	24947
839.643	24871
839.781	24593
839.918	24464
840.055	24563
840.193	24585
840.33	24410
840.467	24502
840.604	24608
840.742	24696
840.879	24483
841.016	24353
841.153	24505
841.29	24505
841.427	24391
841.564	24578
841.701	24486
841.838	24372
841.975	24418
842.112	24460
842.249	24277
842.385	24220
842.522	24441
842.659	24273
842.796	24285
842.933	24220
843.069	24182
843.206	24232
843.343	24319
843.479	24209
843.616	24235
843.752	24091
843.889	23965
844.025	24110
844.162	23904
844.298	24098
844.435	24018
844.571	23878
844.708	24114
844.844	24140
844.98	24209
845.117	24095
845.253	23889
845.389	23802
845.525	23973
845.661	23923
845.798	23748
845.934	23855
846.07	23798
846.206	23760
846.342	23832
846.478	23748
846.614	23398
846.75	23421
846.886	23364
847.022	23573
847.158	23490
847.294	23505
847.429	23490
847.565	23402
847.701	23608
847.837	23208
847.972	23105
848.108	23311
848.244	23166
848.379	23113
848.515	23041
848.65	22919
848.786	23048
848.921	23048
849.057	23231
849.192	23102
849.328	23086
849.463	23067
849.598	22938
849.734	22885
849.869	22908
850.004	22889
850.14	22820
850.275	22812
850.41	22793
850.545	22744
850.68	22843
850.815	22923
850.95	22809
851.085	22972
851.22	22877
851.355	22915
851.49	22801
851.625	22748
851.76	22774
851.895	22656
852.03	22850
852.165	22797
852.299	22767
852.434	22828
852.569	22843
852.703	22767
852.838	22908
852.973	22911
853.107	23003
853.242	22721
853.376	22668
853.511	22630
853.645	22523
853.78	22660
853.914	22569
854.048	22557
854.183	22736
854.317	22717
854.451	22972
854.585	22637
854.72	22565
854.854	22626
854.988	22516
855.122	22504
855.256	22607
855.39	22531
855.524	22569
855.658	22664
855.792	22653
855.926	22702
856.06	22702
856.194	22729
856.327	22649
856.461	22535
856.595	22656
856.729	22573
856.862	22759
856.996	22736
857.13	22653
857.263	22767
857.397	22820
857.53	22615
857.664	22717
857.797	22740
857.931	22782
858.064	22660
858.197	22805
858.331	22607
858.464	22565
858.597	22451
858.731	22656
858.864	22653
858.997	22592
859.13	22554
859.263	22557
859.396	22668
859.529	22481
859.662	22694
859.795	22626
859.928	22603
860.061	22679
860.194	22740
860.327	22702
860.46	22500
860.592	22805
860.725	22828
860.858	22702
860.99	22664
861.123	22516
861.256	22618
861.388	22596
861.521	23208
861.653	22535
861.786	22356
861.918	22516
862.05	22519
862.183	22493
862.315	22630
862.447	22550
862.58	22478
862.712	22303
862.844	22356
862.976	22478
863.108	22299
863.24	22778
863.372	22314
863.504	22272
863.636	22371
863.768	22413
863.9	22280
864.032	22173
864.164	22360
864.296	22299
864.428	22360
864.559	22443
864.691	22356
864.823	22402
864.954	22280
865.086	22268
865.217	22287
865.349	22162
865.48	22169
865.612	22219
865.743	22337
865.875	22291
866.006	22166
866.137	22173
866.269	22276
866.4	22238
866.531	22173
866.662	22109
866.793	22131
866.924	22131
867.055	22177
867.186	22131
867.317	22124
867.448	22090
867.579	22120
867.71	22025
867.841	22017
867.972	22253
868.103	22093
868.233	22185
868.364	22135
868.495	22268
868.625	22447
868.756	22451
868.886	22265
869.017	22276
869.147	22546
869.278	22603
869.408	22466
869.539	22417
869.669	22451
869.799	22382
869.929	22497
870.06	22569
870.19	22675
870.32	22717
870.45	22675
870.58	22752
870.71	22843
870.84	22828
870.97	22843
871.1	22873
871.23	22946
871.36	22915
871.489	22877
871.619	22862
871.749	23006
871.879	23102
872.008	23128
872.138	22972
872.267	22927
872.397	22752
872.526	22786
872.656	22816
872.785	22892
872.915	23102
873.044	23071
873.173	22942
873.303	23079
873.432	23090
873.561	23109
873.69	22961
873.819	22991
873.948	23124
874.077	23113
874.206	22877
874.335	23025
874.464	23159
874.593	23208
874.722	23064
874.851	23258
874.979	23220
875.108	23220
875.237	22991
875.365	23022
875.494	23128
875.623	23345
875.751	23159
875.88	23349
876.008	23402
876.136	23410
876.265	23676
876.393	23756
876.521	23608
876.65	23714
876.778	23531
876.906	23554
877.034	23623
877.162	23402
877.29	23562
877.418	23436
877.546	23577
877.674	23558
877.802	23558
877.93	23676
878.058	23459
878.185	23547
878.313	23493
878.441	23535
878.568	23524
878.696	23562
878.824	23619
878.951	23653
879.079	23729
879.206	23901
879.333	23638
879.461	23604
879.588	23638
879.715	23707
879.842	23882
879.97	23558
880.097	23425
880.224	23395
880.351	23356
880.478	23311
880.605	23402
880.732	23391
880.859	23570
880.986	23299
881.112	23471
881.239	23345
881.366	23018
881.493	22961
881.619	22968
881.746	22953
881.872	23044
881.999	23010
882.125	22919
882.252	22934
882.378	22900
882.505	22991
882.631	22805
882.757	22622
882.883	22679
883.01	22622
883.136	22588
883.262	22413
883.388	22303
883.514	22565
883.64	22557
883.766	22474
883.892	22402
884.018	22398
884.143	22577
884.269	22725
884.395	22398
884.52	22299
884.646	22367
884.772	22215
884.897	22036
885.023	22215
885.148	22188
885.274	22280
885.399	22459
885.524	22207
885.65	22230
885.775	22185
885.9	22207
886.025	22440
886.15	22265
886.275	22192
886.4	22078
886.525	22303
886.65	22257
886.775	22082
886.9	22363
887.025	22337
887.149	22219
887.274	22105
887.399	22101
887.523	22044
887.648	22040
887.773	21880
887.897	22017
888.021	22002
888.146	21922
888.27	22268
888.395	22090
888.519	22086
888.643	21953
888.767	22048
888.891	21926
889.015	21759
889.139	21903
889.263	21766
889.387	21850
889.511	21991
889.635	21945
889.759	21618
889.883	21747
890.006	21778
890.13	21956
890.254	21629
890.377	21816
890.501	21572
890.624	21428
890.748	21580
890.871	21405
890.995	21313
891.118	21249
891.241	21355
891.364	21260
891.488	21462
891.611	21340
891.734	21302
891.857	21355
891.98	21222
892.103	21389
892.226	21226
892.349	21325
892.471	21036
892.594	21230
892.717	21408
892.839	21173
892.962	21169
893.085	21180
893.207	21096
893.33	21089
893.452	21024
893.575	21272
893.697	21321
893.819	21454
893.941	21401
894.064	21359
894.186	21256
894.308	21214
894.43	21329
894.552	21325
894.674	21310
894.796	21081
894.918	21287
895.04	21142
895.161	21363
895.283	21207
895.405	20967
895.526	21241
895.648	21104
895.769	21211
895.891	21207
896.012	21389
896.134	21188
896.255	21184
896.376	21131
896.498	21180
896.619	21252
896.74	21165
896.861	21230
896.982	21515
897.103	21625
897.224	21363
897.345	21317
897.466	21325
897.587	21374
897.708	21576
897.828	21370
897.949	21405
898.07	21176
898.19	21249
898.311	21447
898.431	21393
898.552	21340
898.672	21599
898.792	21397
898.913	21397
899.033	21226
899.153	21173
899.273	21032
899.393	21291
899.513	21207
899.633	21028
899.753	21108
899.873	21093
899.993	21192
900.113	21055
900.232	21085
900.352	21142
900.472	20891
900.591	20830
900.711	20986
900.83	20823
900.95	21062
901.069	20933
901.189	20819
901.308	20621
901.427	20286
901.546	20434
901.665	20415
901.784	20476
901.904	20286
902.023	20180
902.141	20065
902.26	20031
902.379	20100
902.498	19921
902.617	19928
902.735	19921
902.854	19970
902.973	20001
903.091	19632
903.21	19651
903.328	19582
903.446	19559
903.565	19362
903.683	19499
903.801	19327
903.919	19403
904.038	19388
904.156	19263
904.274	19251
904.392	19031
904.51	19091
904.627	19141
904.745	19217
904.863	19240
904.981	18954
905.098	18905
905.216	18840
905.334	18878
905.451	18867
905.569	18787
905.686	18848
905.803	18840
905.921	18559
906.038	18635
906.155	18623
906.272	18521
906.389	18528
906.506	18311
906.623	18239
906.74	18350
906.857	18376
906.974	18190
907.091	18365
907.208	18418
907.324	18308
907.441	18251
907.557	18125
907.674	18076
907.79	18102
907.907	18034
908.023	18129
908.139	17946
908.256	18060
908.372	17874
908.488	17965
908.604	17748
908.72	17756
908.836	17764
908.952	17741
909.068	17851
909.184	17775
909.3	17764
909.415	17741
909.531	17703
909.647	17539
909.762	17547
909.878	17436
909.993	17429
910.108	17383
910.224	17448
910.339	17463
910.454	17337
910.57	17299
910.685	17216
910.8	17516
910.915	17474
911.03	17227
911.145	17102
911.259	17067
911.374	17010
911.489	16984
911.604	16869
911.718	16733
911.833	16854
911.947	16729
912.062	16706
912.176	16778
912.291	16763
912.405	16717
912.519	16824
912.633	16927
912.748	16892
912.862	16835
912.976	16649
913.09	16607
913.204	16558
913.318	16744
913.431	16721
913.545	16748
913.659	16611
913.772	16588
913.886	16459
914	16375
914.113	16466
914.226	16599
914.34	16394
914.453	16150
914.566	16390
914.68	16303
914.793	16291
914.906	16029
915.019	15975
915.132	15884
915.245	15922
915.358	15892
915.47	15880
915.583	15899
915.696	15941
915.809	16032
915.921	16074
916.034	15994
916.146	15857
916.259	15804
916.371	15983
916.483	15865
916.595	15816
916.708	15698
916.82	15755
916.932	15686
917.044	15751
917.156	15759
917.268	15633
917.38	15481
917.491	15557
917.603	15709
917.715	15625
917.826	15778
917.938	15473
918.049	15431
918.161	15500
918.272	15625
918.384	15504
918.495	15507
918.606	15294
918.717	15272
918.828	15264
918.939	15268
919.05	15241
919.161	15279
919.272	15116
919.383	15203
919.494	15351
919.604	15424
919.715	15230
919.826	15192
919.936	15192
920.047	15329
920.157	15233
920.267	15450
920.378	15245
920.488	15272
920.598	15405
920.708	15641
920.818	15401
920.928	15458
921.038	15603
921.148	15530
921.258	15203
921.368	15173
921.477	14971
921.587	14967
921.697	14823
921.806	14941
921.916	14849
922.025	14758
922.134	14560
922.244	14545
922.353	14727
922.462	14602
922.571	14385
922.68	14282
922.789	14309
922.898	14286
923.007	14195
923.116	14244
923.224	14252
923.333	14218
923.442	14149
923.55	14111
923.659	14096
923.767	14035
923.876	13970
923.984	14183
924.092	14005
924.201	13982
924.309	13959
924.417	13967
924.525	13921
924.633	13871
924.741	14853
924.849	13719
924.956	13936
925.064	13708
925.172	13601
925.279	13605
925.387	13708
925.494	13708
925.602	13742
925.709	13700
925.816	13518
925.924	13620
926.031	13594
926.138	13559
926.245	13620
926.352	13403
926.459	13518
926.566	13624
926.673	13514
926.779	13358
926.886	13346
926.993	13274
927.099	13126
927.206	13072
927.312	13050
927.419	13194
927.525	13133
927.631	13171
927.737	13145
927.843	13015
927.95	12856
928.056	12966
928.162	12943
928.267	13122
928.373	13575
928.479	13069
928.585	12882
928.69	12909
928.796	12939
928.901	12673
929.007	12681
929.112	12783
929.218	12833
929.323	12757
929.428	12669
929.533	12810
929.638	12681
929.743	12665
929.848	12688
929.953	12662
930.058	12502
930.163	12346
930.267	12422
930.372	12391
930.477	12308
930.581	12593
930.685	12330
930.79	12228
930.894	12129
930.998	12232
931.103	12247
931.207	11961
931.311	11878
931.415	11836
931.519	11680
931.623	11657
