Data from test_V78500241_2868.txt Node
Date: Fri Mar 25 16:01:40 CST 2022
User: usil
Spectrometer: V785-0024
Trigger mode: 0
Integration Time (sec): 4.000000E-1
Scans to average: 1
Nonlinearity correction enabled: false
Boxcar width: 0
Storing dark spectrum: false
XAxis mode: Wavelengths
Number of Pixels in Spectrum: 1024
>>>>>Begin Spectral Data<<<<<
801.071	29140
801.214	28961
801.356	28843
801.499	28744
801.641	28656
801.783	28618
801.926	28687
802.068	28561
802.211	28687
802.353	28618
802.496	28287
802.638	28405
802.78	28169
802.923	28219
803.065	28223
803.208	28249
803.35	28382
803.492	28398
803.635	28516
803.777	28519
803.919	28649
804.061	28953
804.204	28641
804.346	28493
804.488	28436
804.63	28554
804.773	28386
804.915	28710
805.057	28710
805.199	28596
805.341	28641
805.483	28736
805.626	28656
805.768	28691
805.91	28668
806.052	28904
806.194	28733
806.336	28862
806.478	28668
806.62	28736
806.762	28797
806.904	29003
807.046	29140
807.188	29189
807.33	29265
807.472	29326
807.614	29250
807.756	29223
807.898	28984
808.04	28828
808.182	28957
808.324	29060
808.465	29334
808.607	29341
808.749	29531
808.891	29520
809.033	29668
809.174	29482
809.316	29535
809.458	29349
809.6	29433
809.741	29630
809.883	29600
810.025	29779
810.166	29611
810.308	29748
810.45	29699
810.591	29596
810.733	29554
810.875	29395
811.016	29474
811.158	29391
811.299	29570
811.441	29562
811.582	29558
811.724	29436
811.865	29410
812.007	29467
812.148	29436
812.29	29570
812.431	29623
812.573	29737
812.714	29965
812.855	30079
812.997	30129
813.138	30209
813.279	29992
813.421	30057
813.562	29882
813.703	29809
813.845	29798
813.986	29417
814.127	29356
814.268	29231
814.41	29280
814.551	29090
814.692	29235
814.833	29121
814.974	29136
815.115	29155
815.256	29174
815.397	29033
815.539	29037
815.68	28980
815.821	28793
815.962	29079
816.103	28980
816.244	28793
816.385	28854
816.526	28634
816.666	28557
816.807	28443
816.948	28542
817.089	28611
817.23	28424
817.371	28432
817.512	28440
817.653	28462
817.793	28466
817.934	28379
818.075	28424
818.216	28500
818.356	28409
818.497	28382
818.638	28375
818.778	28367
818.919	28265
819.06	28280
819.2	28303
819.341	28554
819.481	28504
819.622	28622
819.762	28839
819.903	28755
820.043	28771
820.184	28748
820.324	28706
820.465	28603
820.605	28710
820.746	28615
820.886	28382
821.026	28584
821.167	28516
821.307	28694
821.447	28557
821.588	28508
821.728	28211
821.868	28322
822.008	28120
822.149	27972
822.289	27979
822.429	27614
822.569	27808
822.709	27713
822.849	27431
822.99	27515
823.13	27367
823.27	27496
823.41	27138
823.55	27195
823.69	27382
823.83	27359
823.97	27500
824.11	27089
824.25	26998
824.389	26956
824.529	27283
824.669	27089
824.809	27332
824.949	27184
825.089	27176
825.228	27237
825.368	27070
825.508	27028
825.648	27138
825.787	27055
825.927	27154
826.067	27066
826.206	27116
826.346	27024
826.485	27108
826.625	26967
826.765	27176
826.904	27142
827.044	26872
827.183	26845
827.323	26674
827.462	26842
827.601	26864
827.741	26750
827.88	26899
828.02	26773
828.159	26853
828.298	26773
828.437	26716
828.577	26731
828.716	26845
828.855	26644
828.994	26320
829.134	26484
829.273	26457
829.412	26396
829.551	26328
829.69	26434
829.829	26419
829.968	26522
830.107	26492
830.246	26404
830.385	26294
830.524	26408
830.663	26320
830.802	26225
830.941	26145
831.08	26020
831.219	26130
831.357	26115
831.496	26145
831.635	26149
831.774	25963
831.913	25963
832.051	25966
832.19	25856
832.329	26001
832.467	25738
832.606	25887
832.744	25540
832.883	25689
833.022	25719
833.16	25811
833.299	25822
833.437	25704
833.576	25753
833.714	25765
833.852	25784
833.991	25772
834.129	25875
834.267	25795
834.406	25647
834.544	25727
834.682	25818
834.821	25727
834.959	26012
835.097	25674
835.235	25685
835.373	25757
835.511	25799
835.65	25556
835.788	25613
835.926	25601
836.064	25415
836.202	25407
836.34	25548
836.478	25723
836.615	25540
836.753	25350
836.891	25556
837.029	25460
837.167	25495
837.305	25540
837.443	25476
837.58	25487
837.718	25479
837.856	25464
837.993	25396
838.131	25407
838.269	25266
838.406	25346
838.544	25187
838.681	25118
838.819	24863
838.956	24894
839.094	24886
839.231	24985
839.369	25194
839.506	25320
839.643	25156
839.781	24992
839.918	24795
840.055	24943
840.193	24825
840.33	24764
840.467	24894
840.604	24863
840.742	25076
840.879	24719
841.016	24597
841.153	24707
841.29	24924
841.427	24825
841.564	24700
841.701	24692
841.838	24734
841.975	24665
842.112	24681
842.249	24627
842.385	24494
842.522	24787
842.659	24585
842.796	24498
842.933	24513
843.069	24460
843.206	24471
843.343	24646
843.479	24540
843.616	24464
843.752	24384
843.889	24391
844.025	24521
844.162	24327
844.298	24376
844.435	24277
844.571	24319
844.708	24323
844.844	24635
844.98	24395
845.117	24296
845.253	24171
845.389	24239
845.525	24167
845.661	24163
845.798	23927
845.934	24053
846.07	24038
846.206	23973
846.342	24159
846.478	23961
846.614	23695
846.75	23676
846.886	23756
847.022	23726
847.158	23828
847.294	23786
847.429	23760
847.565	23821
847.701	24129
847.837	23554
847.972	23391
848.108	23577
848.244	23467
848.379	23284
848.515	23444
848.65	23334
848.786	23326
848.921	23406
849.057	23406
849.192	23398
849.328	23436
849.463	23391
849.598	23318
849.734	23204
849.869	23060
850.004	23060
850.14	23208
850.275	23090
850.41	23060
850.545	22972
850.68	23086
850.815	23113
850.95	23143
851.085	23277
851.22	23181
851.355	23113
851.49	23105
851.625	23018
851.76	23037
851.895	23010
852.03	22980
852.165	23098
852.299	23166
852.434	23200
852.569	23220
852.703	23037
852.838	23212
852.973	23102
853.107	23212
853.242	23044
853.376	22987
853.511	22889
853.645	22995
853.78	23048
853.914	23003
854.048	22889
854.183	22972
854.317	22987
854.451	23208
854.585	22816
854.72	22987
854.854	23014
854.988	22831
855.122	23048
855.256	22816
855.39	22881
855.524	23033
855.658	22987
855.792	22934
855.926	23071
856.06	22858
856.194	22984
856.327	22972
856.461	22968
856.595	22904
856.729	22877
856.862	23044
856.996	22976
857.13	22987
857.263	23025
857.397	22900
857.53	22972
857.664	22957
857.797	23124
857.931	22965
858.064	22968
858.197	22984
858.331	22934
858.464	22869
858.597	22968
858.731	22972
858.864	22850
858.997	22869
859.13	22980
859.263	23022
859.396	22938
859.529	22896
859.662	22862
859.795	22873
859.928	22771
860.061	23090
860.194	23117
860.327	22999
860.46	22968
860.592	22915
860.725	23041
860.858	23102
860.99	22984
861.123	22892
861.256	22847
861.388	22976
861.521	23623
861.653	22869
861.786	22691
861.918	22679
862.05	22797
862.183	22755
862.315	22782
862.447	22938
862.58	22862
862.712	22679
862.844	22615
862.976	22694
863.108	22645
863.24	23067
863.372	22440
863.504	22725
863.636	22710
863.768	22683
863.9	22725
864.032	22535
864.164	22584
864.296	22679
864.428	22706
864.559	22607
864.691	22615
864.823	22637
864.954	22565
865.086	22546
865.217	22615
865.349	22417
865.48	22405
865.612	22451
865.743	22607
865.875	22481
866.006	22565
866.137	22546
866.269	22455
866.4	22466
866.531	22428
866.662	22272
866.793	22516
866.924	22443
867.055	22363
867.186	22470
867.317	22455
867.448	22284
867.579	22352
867.71	22386
867.841	22344
867.972	22409
868.103	22409
868.233	22405
868.364	22409
868.495	22557
868.625	22656
868.756	22683
868.886	22561
869.017	22550
869.147	22729
869.278	22736
869.408	22596
869.539	22694
869.669	22710
869.799	22687
869.929	22812
870.06	22805
870.19	22942
870.32	22911
870.45	23079
870.58	22976
870.71	23143
870.84	23299
870.97	22961
871.1	23056
871.23	23223
871.36	23406
871.489	23064
871.619	23174
871.749	23166
871.879	23364
872.008	23379
872.138	23162
872.267	23189
872.397	23140
872.526	23029
872.656	23067
872.785	23128
872.915	23284
873.044	23353
873.173	23360
873.303	23356
873.432	23379
873.561	23280
873.69	23368
873.819	23280
873.948	23448
874.077	23337
874.206	23261
874.335	23345
874.464	23379
874.593	23543
874.722	23391
874.851	23554
874.979	23661
875.108	23497
875.237	23528
875.365	23433
875.494	23577
875.623	23695
875.751	23573
875.88	23539
876.008	23687
876.136	23726
876.265	23954
876.393	23961
876.521	24003
876.65	24034
876.778	23840
876.906	23908
877.034	23874
877.162	23779
877.29	23786
877.418	23916
877.546	23798
877.674	23904
877.802	23722
877.93	23813
878.058	23866
878.185	23836
878.313	23840
878.441	23863
878.568	23634
878.696	23809
878.824	23878
878.951	23863
879.079	24022
879.206	24148
879.333	24045
879.461	23950
879.588	23954
879.715	24003
879.842	24205
879.97	23885
880.097	23752
880.224	23707
880.351	23668
880.478	23672
880.605	23608
880.732	23687
880.859	23798
880.986	23676
881.112	23657
881.239	23638
881.366	23459
881.493	23387
881.619	23223
881.746	23356
881.872	23258
881.999	23223
882.125	23170
882.252	23311
882.378	23208
882.505	23280
882.631	23029
882.757	22930
882.883	22930
883.01	22965
883.136	22824
883.262	22687
883.388	22698
883.514	22949
883.64	22869
883.766	22889
883.892	22824
884.018	22599
884.143	22816
884.269	22885
884.395	22634
884.52	22637
884.646	22516
884.772	22478
884.897	22413
885.023	22523
885.148	22588
885.274	22733
885.399	22512
885.524	22478
885.65	22584
885.775	22618
885.9	22478
886.025	22710
886.15	22634
886.275	22451
886.4	22489
886.525	22527
886.65	22360
886.775	22455
886.9	22607
887.025	22653
887.149	22535
887.274	22451
887.399	22306
887.523	22150
887.648	22234
887.773	22162
887.897	22352
888.021	22299
888.146	22166
888.27	22306
888.395	22356
888.519	22246
888.643	22303
888.767	22348
888.891	22139
889.015	22280
889.139	22219
889.263	22036
889.387	22211
889.511	22257
889.635	22257
889.759	21983
889.883	22040
890.006	22196
890.13	22196
890.254	22006
890.377	21934
890.501	21880
890.624	21743
890.748	21854
890.871	21675
890.995	21686
891.118	21557
891.241	21713
891.364	21667
891.488	21762
891.611	21564
891.734	21545
891.857	21679
891.98	21538
892.103	21728
892.226	21599
892.349	21469
892.471	21340
892.594	21492
892.717	21530
892.839	21492
892.962	21485
893.085	21534
893.207	21450
893.33	21382
893.452	21420
893.575	21545
893.697	21500
893.819	21641
893.941	21698
894.064	21637
894.186	21374
894.308	21325
894.43	21488
894.552	21652
894.674	21587
894.796	21466
894.918	21466
895.04	21325
895.161	21614
895.283	21488
895.405	21428
895.526	21431
895.648	21329
895.769	21492
895.891	21462
896.012	21477
896.134	21450
896.255	21428
896.376	21420
896.498	21492
896.619	21469
896.74	21447
896.861	21534
896.982	21869
897.103	21823
897.224	21633
897.345	21709
897.466	21553
897.587	21599
897.708	21717
897.828	21591
897.949	21610
898.07	21511
898.19	21538
898.311	21785
898.431	21682
898.552	21625
898.672	21694
898.792	21739
898.913	21606
899.033	21492
899.153	21485
899.273	21351
899.393	21325
899.513	21348
899.633	21382
899.753	21367
899.873	21325
899.993	21317
900.113	21389
900.232	21313
900.352	21310
900.472	21066
900.591	21066
900.711	21230
900.83	21131
900.95	21230
901.069	21218
901.189	21024
901.308	20765
901.427	20697
901.546	20644
901.665	20667
901.784	20678
901.904	20488
902.023	20404
902.141	20278
902.26	20370
902.379	20290
902.498	20244
902.617	20218
902.735	20271
902.854	20153
902.973	20073
903.091	19818
903.21	19940
903.328	19860
903.446	19772
903.565	19666
903.683	19696
903.801	19521
903.919	19674
904.038	19559
904.156	19449
904.274	19468
904.392	19365
904.51	19339
904.627	19282
904.745	19438
904.863	19407
904.981	19228
905.098	19118
905.216	19038
905.334	19103
905.451	19129
905.569	18943
905.686	19194
905.803	19091
905.921	18901
906.038	19080
906.155	18894
906.272	18703
906.389	18810
906.506	18551
906.623	18574
906.74	18669
906.857	18429
906.974	18475
907.091	18631
907.208	18665
907.324	18661
907.441	18448
907.557	18388
907.674	18247
907.79	18270
907.907	18228
908.023	18429
908.139	18422
908.256	18289
908.372	18270
908.488	18201
908.604	18011
908.72	17935
908.836	18019
908.952	18019
909.068	18129
909.184	17988
909.3	18076
909.415	17950
909.531	17965
909.647	17748
909.762	17718
909.878	17611
909.993	17665
910.108	17684
910.224	17646
910.339	17524
910.454	17524
910.57	17562
910.685	17387
910.8	17695
910.915	17573
911.03	17395
911.145	17356
911.259	17330
911.374	17246
911.489	17193
911.604	17265
911.718	17006
911.833	17041
911.947	16892
912.062	16885
912.176	17003
912.291	17033
912.405	17090
912.519	17216
912.633	17239
912.748	17022
912.862	17022
912.976	16850
913.09	16710
913.204	16729
913.318	16736
913.431	16828
913.545	16889
913.659	16801
913.772	16767
913.886	16615
914	16698
914.113	16683
914.226	16660
914.34	16596
914.453	16577
914.566	16656
914.68	16527
914.793	16371
914.906	16303
915.019	16253
915.132	16139
915.245	16124
915.358	16181
915.47	16158
915.583	16211
915.696	16196
915.809	16276
915.921	16063
916.034	16143
916.146	16025
916.259	16128
916.371	16124
916.483	16093
916.595	15895
916.708	15991
916.82	15956
916.932	15903
917.044	15892
917.156	15827
917.268	15751
917.38	15892
917.491	15755
917.603	15762
917.715	15926
917.826	15854
917.938	15762
918.049	15641
918.161	15713
918.272	15922
918.384	15857
918.495	15690
918.606	15500
918.717	15523
918.828	15519
918.939	15564
919.05	15428
919.161	15507
919.272	15268
919.383	15355
919.494	15504
919.604	15682
919.715	15378
919.826	15382
919.936	15298
920.047	15557
920.157	15469
920.267	15652
920.378	15458
920.488	15443
920.598	15580
920.708	15766
920.818	15629
920.928	15580
921.038	15705
921.148	15728
921.258	15424
921.368	15256
921.477	15268
921.587	15150
921.697	15097
921.806	15214
921.916	15077
922.025	14868
922.134	14868
922.244	14731
922.353	14739
922.462	14655
922.571	14621
922.68	14484
922.789	14499
922.898	14514
923.007	14366
923.116	14473
923.224	14423
923.333	14469
923.442	14305
923.55	14237
923.659	14332
923.767	14366
923.876	14206
923.984	14339
924.092	14134
924.201	14153
924.309	14138
924.417	14187
924.525	14069
924.633	14050
924.741	14971
924.849	13936
924.956	14020
925.064	13795
925.172	13666
925.279	13788
925.387	13890
925.494	13772
925.602	13997
925.709	13902
925.816	13727
925.924	13655
926.031	13860
926.138	13753
926.245	13727
926.352	13567
926.459	13795
926.566	13795
926.673	13643
926.779	13529
926.886	13552
926.993	13297
927.099	13316
927.206	13320
927.312	13285
927.419	13259
927.525	13384
927.631	13278
927.737	13221
927.843	13114
927.95	13069
928.056	13141
928.162	13114
928.267	13190
928.373	13864
928.479	13259
928.585	12958
928.69	13080
928.796	13126
928.901	13008
929.007	12844
929.112	13099
929.218	12996
929.323	12875
929.428	12932
929.533	12939
929.638	12829
929.743	12757
929.848	12806
929.953	12837
930.058	12707
930.163	12479
930.267	12650
930.372	12631
930.477	12513
930.581	12726
930.685	12601
930.79	12460
930.894	12376
930.998	12296
931.103	12509
931.207	12148
931.311	11969
931.415	11958
931.519	11646
931.623	11729
