Data from test_V78500241_3167.txt Node
Date: Fri Mar 25 16:03:44 CST 2022
User: usil
Spectrometer: V785-0024
Trigger mode: 0
Integration Time (sec): 4.000000E-1
Scans to average: 1
Nonlinearity correction enabled: false
Boxcar width: 0
Storing dark spectrum: false
XAxis mode: Wavelengths
Number of Pixels in Spectrum: 1024
>>>>>Begin Spectral Data<<<<<
801.071	28554
801.214	28603
801.356	28348
801.499	28318
801.641	28169
801.783	28078
801.926	28287
802.068	28169
802.211	28192
802.353	28105
802.496	27956
802.638	27846
802.78	27755
802.923	27808
803.065	27728
803.208	27770
803.35	27911
803.492	27911
803.635	28188
803.777	27953
803.919	28010
804.061	28310
804.204	28166
804.346	27949
804.488	28002
804.63	28051
804.773	28135
804.915	28101
805.057	28226
805.199	28173
805.341	28207
805.483	28246
805.626	28143
805.768	28192
805.91	28249
806.052	28181
806.194	28051
806.336	28382
806.478	28246
806.62	28287
806.762	28249
806.904	28527
807.046	28885
807.188	28755
807.33	28626
807.472	28622
807.614	28740
807.756	28557
807.898	28573
808.04	28672
808.182	28516
808.324	28466
808.465	28596
808.607	28908
808.749	28911
808.891	28927
809.033	29083
809.174	28957
809.316	28995
809.458	29006
809.6	28923
809.741	28915
809.883	29067
810.025	29208
810.166	29235
810.308	29235
810.45	29162
810.591	29121
810.733	29014
810.875	28919
811.016	28885
811.158	28885
811.299	28999
811.441	29124
811.582	29174
811.724	29006
811.865	28934
812.007	28934
812.148	28908
812.29	28980
812.431	29246
812.573	29288
812.714	29368
812.855	29539
812.997	29596
813.138	29619
813.279	29630
813.421	29436
813.562	29452
813.703	29318
813.845	29250
813.986	28904
814.127	28854
814.268	28561
814.41	28759
814.551	28706
814.692	28611
814.833	28592
814.974	28573
815.115	28755
815.256	28485
815.397	28641
815.539	28497
815.68	28516
815.821	28535
815.962	28421
816.103	28474
816.244	28367
816.385	28226
816.526	28135
816.666	28040
816.807	27968
816.948	27994
817.089	28010
817.23	27930
817.371	27934
817.512	28029
817.653	27953
817.793	27857
817.934	27945
818.075	27835
818.216	27975
818.356	27972
818.497	27880
818.638	27717
818.778	27709
818.919	27637
819.06	27755
819.2	27964
819.341	28063
819.481	27838
819.622	28105
819.762	28318
819.903	28131
820.043	28131
820.184	28086
820.324	28006
820.465	28230
820.605	28055
820.746	28074
820.886	28074
821.026	28048
821.167	27945
821.307	28067
821.447	27918
821.588	27895
821.728	27774
821.868	27606
822.008	27431
822.149	27427
822.289	27370
822.429	27317
822.569	26914
822.709	27165
822.849	27096
822.99	26891
823.13	26872
823.27	26857
823.41	26819
823.55	26606
823.69	26819
823.83	26807
823.97	26785
824.11	26480
824.25	26545
824.389	26587
824.529	26667
824.669	26708
824.809	26785
824.949	26769
825.089	26640
825.228	26640
825.368	26541
825.508	26556
825.648	26533
825.787	26514
825.927	26560
826.067	26457
826.206	26332
826.346	26480
826.485	26556
826.625	26526
826.765	26571
826.904	26503
827.044	26221
827.183	26351
827.323	26225
827.462	26119
827.601	26164
827.741	26035
827.88	26294
828.02	26149
828.159	26149
828.298	26164
828.437	26301
828.577	26054
828.716	26214
828.855	26054
828.994	25978
829.134	25898
829.273	25818
829.412	25807
829.551	25822
829.69	25818
829.829	25951
829.968	26008
830.107	26001
830.246	25788
830.385	25738
830.524	25818
830.663	25700
830.802	25563
830.941	25609
831.08	25373
831.219	25430
831.357	25609
831.496	25712
831.635	25403
831.774	25426
831.913	25499
832.051	25213
832.19	25213
832.329	25282
832.467	25160
832.606	25137
832.744	25118
832.883	25050
833.022	25232
833.16	25164
833.299	25320
833.437	25228
833.576	25152
833.714	25206
833.852	25274
833.991	25209
834.129	25289
834.267	25270
834.406	25175
834.544	25285
834.682	25183
834.821	25133
834.959	25358
835.097	25148
835.235	25244
835.373	25156
835.511	25118
835.65	24966
835.788	24996
835.926	24943
836.064	24909
836.202	24821
836.34	24985
836.478	25274
836.615	24966
836.753	25095
836.891	25255
837.029	25126
837.167	25031
837.305	24897
837.443	24989
837.58	24833
837.718	25012
837.856	24951
837.993	24779
838.131	24772
838.269	24692
838.406	24745
838.544	24635
838.681	24525
838.819	24547
838.956	24334
839.094	24315
839.231	24296
839.369	24407
839.506	24753
839.643	24623
839.781	24391
839.918	24152
840.055	24273
840.193	24330
840.33	24372
840.467	24266
840.604	24247
840.742	24505
840.879	24159
841.016	24228
841.153	24117
841.29	24365
841.427	24213
841.564	24365
841.701	24148
841.838	24190
841.975	24140
842.112	24167
842.249	24030
842.385	24030
842.522	24235
842.659	24011
842.796	23904
842.933	23999
843.069	23977
843.206	23984
843.343	24018
843.479	24091
843.616	24060
843.752	23821
843.889	23908
844.025	24003
844.162	23977
844.298	23851
844.435	23710
844.571	23722
844.708	23847
844.844	23984
844.98	23885
845.117	23794
845.253	23699
845.389	23615
845.525	23733
845.661	23646
845.798	23486
845.934	23543
846.07	23577
846.206	23566
846.342	23764
846.478	23474
846.614	23223
846.75	23143
846.886	23216
847.022	23315
847.158	23299
847.294	23223
847.429	23235
847.565	23212
847.701	23531
847.837	23003
847.972	22949
848.108	23052
848.244	22965
848.379	22809
848.515	22721
848.65	22824
848.786	22839
848.921	22915
849.057	22862
849.192	22949
849.328	22908
849.463	22710
849.598	22641
849.734	22759
849.869	22637
850.004	22618
850.14	22455
850.275	22691
850.41	22683
850.545	22466
850.68	22474
850.815	22694
850.95	22592
851.085	22763
851.22	22656
851.355	22554
851.49	22546
851.625	22538
851.76	22664
851.895	22599
852.03	22436
852.165	22668
852.299	22618
852.434	22630
852.569	22641
852.703	22580
852.838	22641
852.973	22774
853.107	22843
853.242	22497
853.376	22443
853.511	22200
853.645	22367
853.78	22512
853.914	22424
854.048	22257
854.183	22417
854.317	22432
854.451	22615
854.585	22531
854.72	22481
854.854	22485
854.988	22356
855.122	22352
855.256	22295
855.39	22424
855.524	22512
855.658	22497
855.792	22424
855.926	22478
856.06	22443
856.194	22398
856.327	22428
856.461	22333
856.595	22265
856.729	22371
856.862	22485
856.996	22493
857.13	22413
857.263	22485
857.397	22531
857.53	22447
857.664	22577
857.797	22333
857.931	22577
858.064	22485
858.197	22523
858.331	22451
858.464	22497
858.597	22265
858.731	22504
858.864	22360
858.997	22466
859.13	22451
859.263	22519
859.396	22447
859.529	22360
859.662	22485
859.795	22329
859.928	22421
860.061	22725
860.194	22691
860.327	22390
860.46	22333
860.592	22603
860.725	22447
860.858	22474
860.99	22440
861.123	22280
861.256	22443
861.388	22432
861.521	23117
861.653	22284
861.786	22211
861.918	22200
862.05	22344
862.183	22371
862.315	22440
862.447	22421
862.58	22265
862.712	22169
862.844	22025
862.976	22284
863.108	22276
863.24	22550
863.372	22143
863.504	22219
863.636	22086
863.768	22139
863.9	22166
864.032	22158
864.164	22051
864.296	22158
864.428	22207
864.559	22249
864.691	22139
864.823	22154
864.954	22051
865.086	22093
865.217	21964
865.349	21964
865.48	22040
865.612	21972
865.743	22124
865.875	22010
866.006	21968
866.137	21994
866.269	21934
866.4	22082
866.531	21960
866.662	22006
866.793	21953
866.924	21983
867.055	21945
867.186	22063
867.317	21941
867.448	21869
867.579	21937
867.71	21888
867.841	21926
867.972	21979
868.103	21880
868.233	21865
868.364	21892
868.495	22040
868.625	22139
868.756	22207
868.886	22116
869.017	22097
869.147	22196
869.278	22341
869.408	22265
869.539	22242
869.669	22181
869.799	22287
869.929	22226
870.06	22261
870.19	22538
870.32	22428
870.45	22557
870.58	22497
870.71	22607
870.84	22706
870.97	22436
871.1	22542
871.23	22645
871.36	22698
871.489	22637
871.619	22725
871.749	22744
871.879	22740
872.008	22908
872.138	22771
872.267	22744
872.397	22683
872.526	22527
872.656	22630
872.785	22561
872.915	22767
873.044	22763
873.173	22801
873.303	22854
873.432	22961
873.561	22858
873.69	22759
873.819	22850
873.948	22790
874.077	22801
874.206	22675
874.335	22812
874.464	22877
874.593	23048
874.722	23048
874.851	23052
874.979	22972
875.108	23044
875.237	22850
875.365	22934
875.494	23067
875.623	23121
875.751	22972
875.88	22972
876.008	23231
876.136	23159
876.265	23311
876.393	23509
876.521	23395
876.65	23471
876.778	23330
876.906	23345
877.034	23467
877.162	23292
877.29	23273
877.418	23440
877.546	23284
877.674	23398
877.802	23360
877.93	23334
878.058	23258
878.185	23330
878.313	23334
878.441	23254
878.568	23235
878.696	23193
878.824	23372
878.951	23436
879.079	23604
879.206	23577
879.333	23474
879.461	23448
879.588	23436
879.715	23497
879.842	23630
879.97	23543
880.097	23246
880.224	23246
880.351	23200
880.478	23181
880.605	23071
880.732	23044
880.859	23429
880.986	23185
881.112	23174
881.239	23056
881.366	22953
881.493	22839
881.619	22759
881.746	22896
881.872	22755
881.999	22778
882.125	22759
882.252	22729
882.378	22736
882.505	22733
882.631	22565
882.757	22470
882.883	22481
883.01	22478
883.136	22455
883.262	22223
883.388	22249
883.514	22485
883.64	22413
883.766	22333
883.892	22284
884.018	22192
884.143	22398
884.269	22409
884.395	22147
884.52	22025
884.646	21956
884.772	22021
884.897	21895
885.023	21941
885.148	22158
885.274	22112
885.399	22112
885.524	22048
885.65	21934
885.775	22029
885.9	21964
886.025	22154
886.15	22055
886.275	21903
886.4	21899
886.525	22032
886.65	21808
886.775	21960
886.9	22105
887.025	22295
887.149	21922
887.274	21857
887.399	21888
887.523	21835
887.648	21747
887.773	21705
887.897	21888
888.021	21835
888.146	21762
888.27	21873
888.395	21873
888.519	21797
888.643	21759
888.767	21819
888.891	21686
889.015	21663
889.139	21606
889.263	21709
889.387	21660
889.511	21808
889.635	21743
889.759	21641
889.883	21515
890.006	21698
890.13	21679
890.254	21591
890.377	21477
890.501	21367
890.624	21313
890.748	21424
890.871	21233
890.995	21142
891.118	21074
891.241	21340
891.364	21104
891.488	21291
891.611	21184
891.734	21252
891.857	21165
891.98	21142
892.103	21245
892.226	21142
892.349	20990
892.471	20891
892.594	21020
892.717	21028
892.839	20998
892.962	21039
893.085	21089
893.207	21070
893.33	21024
893.452	20994
893.575	21089
893.697	21081
893.819	21116
893.941	21298
894.064	21116
894.186	21020
894.308	20925
894.43	21005
894.552	21150
894.674	21096
894.796	21017
894.918	20948
895.04	20944
895.161	21024
895.283	21085
895.405	20902
895.526	21036
895.648	20952
895.769	21051
895.891	21131
896.012	21020
896.134	20990
896.255	20986
896.376	20937
896.498	20994
896.619	20990
896.74	21062
896.861	21036
896.982	21332
897.103	21477
897.224	21237
897.345	21275
897.466	21245
897.587	21173
897.708	21363
897.828	21340
897.949	21070
898.07	21066
898.19	21150
898.311	21195
898.431	21230
898.552	21116
898.672	21264
898.792	21291
898.913	21252
899.033	21154
899.153	21173
899.273	20971
899.393	21017
899.513	20902
899.633	20933
899.753	20899
899.873	20864
899.993	20979
900.113	20838
900.232	20902
900.352	20887
900.472	20743
900.591	20587
900.711	20682
900.83	20571
900.95	20868
901.069	20754
901.189	20663
901.308	20377
901.427	20218
901.546	20278
901.665	20229
901.784	20237
901.904	20073
902.023	20084
902.141	20012
902.26	19803
902.379	19868
902.498	19826
902.617	19761
902.735	19742
902.854	19742
902.973	19753
903.091	19422
903.21	19335
903.328	19422
903.446	19362
903.565	19263
903.683	19293
903.801	19107
903.919	19202
904.038	19209
904.156	19072
904.274	19107
904.392	19061
904.51	19015
904.627	18928
904.745	19012
904.863	18901
904.981	18795
905.098	18612
905.216	18688
905.334	18696
905.451	18707
905.569	18631
905.686	18715
905.803	18646
905.921	18490
906.038	18536
906.155	18483
906.272	18353
906.389	18376
906.506	18129
906.623	18205
906.74	18281
906.857	18110
906.974	18091
907.091	18224
907.208	18258
907.324	18311
907.441	18098
907.557	17980
907.674	17927
907.79	17840
907.907	17927
908.023	17904
908.139	17916
908.256	17923
908.372	17726
908.488	17748
908.604	17680
908.72	17524
908.836	17646
908.952	17551
909.068	17649
909.184	17665
909.3	17615
909.415	17623
909.531	17596
909.647	17406
909.762	17258
909.878	17311
909.993	17284
910.108	17250
910.224	17231
910.339	17261
910.454	17136
910.57	17109
910.685	16965
910.8	17349
910.915	17296
911.03	17113
911.145	16961
911.259	16862
911.374	16866
911.489	16793
911.604	16847
911.718	16683
911.833	16512
911.947	16508
912.062	16459
912.176	16778
912.291	16622
912.405	16687
912.519	16774
912.633	16759
912.748	16626
912.862	16649
912.976	16516
913.09	16325
913.204	16379
913.318	16402
913.431	16432
913.545	16554
913.659	16588
913.772	16356
913.886	16226
914	16200
914.113	16272
914.226	16341
914.34	16352
914.453	16059
914.566	16322
914.68	16147
914.793	16013
914.906	15880
915.019	15804
915.132	15797
915.245	15842
915.358	15903
915.47	15857
915.583	15755
915.696	15789
915.809	15823
915.921	15926
916.034	15827
916.146	15667
916.259	15709
916.371	15713
916.483	15728
916.595	15656
916.708	15633
916.82	15545
916.932	15641
917.044	15660
917.156	15481
917.268	15424
917.38	15454
917.491	15332
917.603	15386
917.715	15587
917.826	15526
917.938	15329
918.049	15298
918.161	15344
918.272	15538
918.384	15526
918.495	15393
918.606	15241
918.717	15100
918.828	15256
918.939	15268
919.05	15085
919.161	15146
919.272	14914
919.383	15028
919.494	15165
919.604	15420
919.715	15131
919.826	15017
919.936	15142
920.047	15241
920.157	15256
920.267	15310
920.378	15150
920.488	15119
920.598	15355
920.708	15450
920.818	15275
920.928	15306
921.038	15454
921.148	15363
921.258	15020
921.368	14925
921.477	14941
921.587	14887
921.697	14670
921.806	14830
921.916	14746
922.025	14537
922.134	14507
922.244	14450
922.353	14507
922.462	14381
922.571	14385
922.68	14081
922.789	14081
922.898	14214
923.007	14157
923.116	14229
923.224	14168
923.333	13963
923.442	13997
923.55	14016
923.659	14027
923.767	13940
923.876	13875
923.984	13963
924.092	13784
924.201	13826
924.309	13909
924.417	13837
924.525	13845
924.633	13761
924.741	14575
924.849	13609
924.956	13769
925.064	13582
925.172	13491
925.279	13468
925.387	13529
925.494	13464
925.602	13639
925.709	13499
925.816	13453
925.924	13308
926.031	13491
926.138	13373
926.245	13434
926.352	13422
926.459	13434
926.566	13529
926.673	13392
926.779	13232
926.886	13282
926.993	13209
927.099	13050
927.206	13015
927.312	12920
927.419	13072
927.525	13038
927.631	13065
927.737	12951
927.843	12916
927.95	12840
928.056	12848
928.162	12909
928.267	12916
928.373	13495
928.479	12837
928.585	12688
928.69	12897
928.796	12844
928.901	12688
929.007	12635
929.112	12760
929.218	12719
929.323	12574
929.428	12547
929.533	12730
929.638	12437
929.743	12635
929.848	12506
929.953	12536
930.058	12353
930.163	12296
930.267	12365
930.372	12414
930.477	12136
930.581	12509
930.685	12292
930.79	12117
930.894	12194
930.998	12091
931.103	12209
931.207	11882
931.311	11870
931.415	11756
931.519	11505
931.623	11452
