Data from test_V78500241_2461.txt Node
Date: Fri Mar 25 15:58:50 CST 2022
User: usil
Spectrometer: V785-0024
Trigger mode: 0
Integration Time (sec): 4.000000E-1
Scans to average: 1
Nonlinearity correction enabled: false
Boxcar width: 0
Storing dark spectrum: false
XAxis mode: Wavelengths
Number of Pixels in Spectrum: 1024
>>>>>Begin Spectral Data<<<<<
801.071	28987
801.214	29056
801.356	28801
801.499	28816
801.641	28519
801.783	28573
801.926	28752
802.068	28546
802.211	28691
802.353	28550
802.496	28386
802.638	28405
802.78	28401
802.923	28295
803.065	28188
803.208	28204
803.35	28344
803.492	28554
803.635	28584
803.777	28535
803.919	28519
804.061	28972
804.204	28687
804.346	28538
804.488	28675
804.63	28565
804.773	28500
804.915	28805
805.057	28828
805.199	28535
805.341	28698
805.483	28786
805.626	28828
805.768	28740
805.91	28755
806.052	28801
806.194	28873
806.336	29003
806.478	28854
806.62	28736
806.762	29037
806.904	29113
807.046	29235
807.188	29246
807.33	29315
807.472	29395
807.614	29140
807.756	29353
807.898	29193
808.04	29094
808.182	29132
808.324	29208
808.465	29121
808.607	29448
808.749	29505
808.891	29429
809.033	29726
809.174	29539
809.316	29543
809.458	29516
809.6	29330
809.741	29558
809.883	29585
810.025	29790
810.166	29775
810.308	29676
810.45	29805
810.591	29722
810.733	29615
810.875	29497
811.016	29395
811.158	29398
811.299	29520
811.441	29638
811.582	29501
811.724	29459
811.865	29410
812.007	29520
812.148	29596
812.29	29551
812.431	29836
812.573	29893
812.714	29908
812.855	30045
812.997	30239
813.138	30270
813.279	30098
813.421	29999
813.562	29958
813.703	29843
813.845	29699
813.986	29391
814.127	29448
814.268	29337
814.41	29269
814.551	29098
814.692	29448
814.833	29216
814.974	29212
815.115	29159
815.256	29014
815.397	29155
815.539	29067
815.68	28862
815.821	28942
815.962	28965
816.103	29071
816.244	28668
816.385	28888
816.526	28767
816.666	28630
816.807	28409
816.948	28580
817.089	28538
817.23	28466
817.371	28519
817.512	28546
817.653	28470
817.793	28538
817.934	28535
818.075	28546
818.216	28588
818.356	28409
818.497	28485
818.638	28219
818.778	28398
818.919	28394
819.06	28344
819.2	28535
819.341	28489
819.481	28569
819.622	28698
819.762	28877
819.903	28843
820.043	28782
820.184	28801
820.324	28816
820.465	28774
820.605	28774
820.746	28653
820.886	28428
821.026	28599
821.167	28653
821.307	28679
821.447	28580
821.588	28382
821.728	28375
821.868	28211
822.008	28147
822.149	28063
822.289	28135
822.429	27679
822.569	27789
822.709	27736
822.849	27660
822.99	27576
823.13	27538
823.27	27462
823.41	27355
823.55	27237
823.69	27386
823.83	27397
823.97	27351
824.11	27138
824.25	27180
824.389	27135
824.529	27218
824.669	27165
824.809	27405
824.949	27389
825.089	27386
825.228	27260
825.368	27058
825.508	27058
825.648	27157
825.787	27173
825.927	27127
826.067	27077
826.206	27081
826.346	27116
826.485	27070
826.625	27104
826.765	27165
826.904	27150
827.044	26845
827.183	26899
827.323	26739
827.462	26800
827.601	26868
827.741	26739
827.88	26746
828.02	26655
828.159	26800
828.298	26811
828.437	26998
828.577	26868
828.716	26811
828.855	26667
828.994	26499
829.134	26476
829.273	26530
829.412	26526
829.551	26332
829.69	26484
829.829	26446
829.968	26549
830.107	26632
830.246	26431
830.385	26446
830.524	26336
830.663	26275
830.802	26187
830.941	26183
831.08	26142
831.219	26317
831.357	26229
831.496	26187
831.635	26176
831.774	26039
831.913	25909
832.051	25860
832.19	25860
832.329	25940
832.467	25807
832.606	25693
832.744	25746
832.883	25753
833.022	25715
833.16	25772
833.299	25963
833.437	25875
833.576	25883
833.714	25784
833.852	25841
833.991	25970
834.129	25879
834.267	25761
834.406	25769
834.544	25860
834.682	25791
834.821	25826
834.959	26043
835.097	25860
835.235	25925
835.373	25738
835.511	25769
835.65	25628
835.788	25578
835.926	25499
836.064	25400
836.202	25403
836.34	25529
836.478	25734
836.615	25666
836.753	25689
836.891	25666
837.029	25731
837.167	25544
837.305	25639
837.443	25438
837.58	25495
837.718	25476
837.856	25533
837.993	25346
838.131	25377
838.269	25228
838.406	25415
838.544	25217
838.681	25061
838.819	25175
838.956	24833
839.094	24962
839.231	25046
839.369	25152
839.506	25278
839.643	25069
839.781	24913
839.918	24787
840.055	24916
840.193	24890
840.33	24837
840.467	24829
840.604	24882
840.742	25164
840.879	24722
841.016	24730
841.153	24711
841.29	24977
841.427	24798
841.564	24692
841.701	24764
841.838	24707
841.975	24654
842.112	24658
842.249	24536
842.385	24559
842.522	24753
842.659	24661
842.796	24726
842.933	24544
843.069	24528
843.206	24521
843.343	24559
843.479	24582
843.616	24612
843.752	24319
843.889	24441
844.025	24578
844.162	24216
844.298	24376
844.435	24300
844.571	24220
844.708	24380
844.844	24490
844.98	24452
845.117	24258
845.253	24273
845.389	24129
845.525	24140
845.661	24228
845.798	24114
845.934	24129
846.07	24060
846.206	24121
846.342	24292
846.478	23984
846.614	23828
846.75	23802
846.886	23813
847.022	23802
847.158	23908
847.294	23752
847.429	23878
847.565	23684
847.701	24087
847.837	23592
847.972	23410
848.108	23535
848.244	23577
848.379	23501
848.515	23402
848.65	23356
848.786	23383
848.921	23429
849.057	23395
849.192	23425
849.328	23444
849.463	23334
849.598	23440
849.734	23303
849.869	23174
850.004	23090
850.14	23284
850.275	23128
850.41	23037
850.545	23128
850.68	23124
850.815	23239
850.95	23136
851.085	23330
851.22	23162
851.355	23155
851.49	23147
851.625	23197
851.76	23048
851.895	23109
852.03	23086
852.165	23006
852.299	23075
852.434	23250
852.569	23159
852.703	23056
852.838	23239
852.973	23345
853.107	23132
853.242	23079
853.376	22877
853.511	22816
853.645	22847
853.78	23128
853.914	22949
854.048	23071
854.183	22911
854.317	23056
854.451	23254
854.585	22987
854.72	22949
854.854	23006
854.988	22877
855.122	22949
855.256	22790
855.39	22877
855.524	23109
855.658	23147
855.792	22980
855.926	22980
856.06	22949
856.194	22984
856.327	23025
856.461	22892
856.595	22911
856.729	23022
856.862	23022
856.996	23010
857.13	23098
857.263	23136
857.397	22953
857.53	22889
857.664	22965
857.797	22995
857.931	23014
858.064	22923
858.197	23155
858.331	22854
858.464	22927
858.597	22869
858.731	22877
858.864	22885
858.997	22908
859.13	22930
859.263	22915
859.396	23060
859.529	22828
859.662	22980
859.795	22759
859.928	23029
860.061	23102
860.194	23056
860.327	23029
860.46	23083
860.592	23060
860.725	23025
860.858	22980
860.99	22965
861.123	22908
861.256	22824
861.388	22866
861.521	23771
861.653	22771
861.786	22885
861.918	22801
862.05	22839
862.183	22831
862.315	22869
862.447	22881
862.58	22774
862.712	22736
862.844	22653
862.976	22755
863.108	22748
863.24	23102
863.372	22729
863.504	22535
863.636	22611
863.768	22710
863.9	22725
864.032	22573
864.164	22618
864.296	22691
864.428	22759
864.559	22691
864.691	22736
864.823	22687
864.954	22660
865.086	22645
865.217	22516
865.349	22424
865.48	22561
865.612	22516
865.743	22736
865.875	22637
866.006	22493
866.137	22462
866.269	22424
866.4	22432
866.531	22382
866.662	22451
866.793	22455
866.924	22424
867.055	22440
867.186	22447
867.317	22398
867.448	22394
867.579	22352
867.71	22363
867.841	22390
867.972	22424
868.103	22375
868.233	22390
868.364	22367
868.495	22470
868.625	22820
868.756	22771
868.886	22554
869.017	22801
869.147	22748
869.278	22835
869.408	22592
869.539	22523
869.669	22881
869.799	22778
869.929	22645
870.06	22717
870.19	22995
870.32	22949
870.45	23105
870.58	23079
870.71	23098
870.84	23231
870.97	23056
871.1	23064
871.23	23269
871.36	23322
871.489	23197
871.619	23166
871.749	23280
871.879	23337
872.008	23307
872.138	23269
872.267	23170
872.397	23075
872.526	23185
872.656	23162
872.785	23124
872.915	23269
873.044	23315
873.173	23273
873.303	23341
873.432	23360
873.561	23512
873.69	23315
873.819	23463
873.948	23455
874.077	23425
874.206	23326
874.335	23368
874.464	23345
874.593	23604
874.722	23383
874.851	23455
874.979	23585
875.108	23596
875.237	23452
875.365	23520
875.494	23448
875.623	23520
875.751	23558
875.88	23531
876.008	23646
876.136	23714
876.265	23870
876.393	24072
876.521	23916
876.65	23961
876.778	23882
876.906	23942
877.034	23893
877.162	23771
877.29	23813
877.418	23870
877.546	23745
877.674	23805
877.802	23802
877.93	23726
878.058	23775
878.185	23824
878.313	23767
878.441	23832
878.568	23627
878.696	23718
878.824	23882
878.951	23821
879.079	23916
879.206	24068
879.333	24076
879.461	23821
879.588	24015
879.715	24121
879.842	24148
879.97	23931
880.097	23718
880.224	23790
880.351	23684
880.478	23634
880.605	23767
880.732	23680
880.859	23821
880.986	23718
881.112	23676
881.239	23467
881.366	23379
881.493	23235
881.619	23185
881.746	23387
881.872	23159
881.999	23132
882.125	23143
882.252	23307
882.378	23178
882.505	23242
882.631	23044
882.757	22915
882.883	22900
883.01	22896
883.136	22782
883.262	22786
883.388	22748
883.514	22850
883.64	22892
883.766	22740
883.892	22641
884.018	22679
884.143	22805
884.269	22957
884.395	22679
884.52	22569
884.646	22512
884.772	22447
884.897	22333
885.023	22561
885.148	22607
885.274	22618
885.399	22611
885.524	22580
885.65	22527
885.775	22607
885.9	22538
886.025	22573
886.15	22550
886.275	22474
886.4	22398
886.525	22497
886.65	22405
886.775	22421
886.9	22649
887.025	22664
887.149	22497
887.274	22371
887.399	22265
887.523	22276
887.648	22291
887.773	22253
887.897	22363
888.021	22257
888.146	22223
888.27	22303
888.395	22348
888.519	22363
888.643	22234
888.767	22310
888.891	22226
889.015	22006
889.139	22097
889.263	22036
889.387	22299
889.511	22265
889.635	22211
889.759	22131
889.883	22090
890.006	22021
890.13	22055
890.254	21964
890.377	21953
890.501	21781
890.624	21789
890.748	21949
890.871	21701
890.995	21568
891.118	21644
891.241	21447
891.364	21564
891.488	21701
891.611	21701
891.734	21682
891.857	21671
891.98	21557
892.103	21736
892.226	21698
892.349	21568
892.471	21408
892.594	21637
892.717	21682
892.839	21500
892.962	21496
893.085	21549
893.207	21408
893.33	21420
893.452	21401
893.575	21485
893.697	21507
893.819	21641
893.941	21774
894.064	21591
894.186	21374
894.308	21473
894.43	21530
894.552	21648
894.674	21466
894.796	21374
894.918	21428
895.04	21458
895.161	21397
895.283	21393
895.405	21272
895.526	21462
895.648	21485
895.769	21507
895.891	21523
896.012	21606
896.134	21428
896.255	21473
896.376	21393
896.498	21466
896.619	21435
896.74	21397
896.861	21450
896.982	21827
897.103	21880
897.224	21854
897.345	21694
897.466	21583
897.587	21770
897.708	21831
897.828	21644
897.949	21595
898.07	21599
898.19	21606
898.311	21759
898.431	21622
898.552	21690
898.672	21759
898.792	21705
898.913	21564
899.033	21614
899.153	21481
899.273	21279
899.393	21454
899.513	21374
899.633	21397
899.753	21405
899.873	21348
899.993	21412
900.113	21264
900.232	21306
900.352	21317
900.472	21195
900.591	21096
900.711	21116
900.83	21127
900.95	21237
901.069	21116
901.189	20975
901.308	20838
901.427	20689
901.546	20739
901.665	20686
901.784	20644
901.904	20415
902.023	20492
902.141	20244
902.26	20218
902.379	20396
902.498	20225
902.617	20157
902.735	20248
902.854	20218
902.973	20027
903.091	19871
903.21	19868
903.328	19811
903.446	19738
903.565	19597
903.683	19677
903.801	19502
903.919	19601
904.038	19559
904.156	19362
904.274	19384
904.392	19373
904.51	19396
904.627	19373
904.745	19392
904.863	19457
904.981	19107
905.098	19057
905.216	19069
905.334	19072
905.451	19050
905.569	19072
905.686	19015
905.803	19034
905.921	18791
906.038	18890
906.155	18833
906.272	18795
906.389	18859
906.506	18604
906.623	18669
906.74	18696
906.857	18574
906.974	18479
907.091	18585
907.208	18627
907.324	18578
907.441	18536
907.557	18289
907.674	18262
907.79	18209
907.907	18190
908.023	18388
908.139	18262
908.256	18319
908.372	18247
908.488	18110
908.604	18064
908.72	18030
908.836	17961
908.952	18003
909.068	18068
909.184	18034
909.3	17939
909.415	18049
909.531	17977
909.647	17828
909.762	17752
909.878	17661
909.993	17657
910.108	17592
910.224	17668
910.339	17707
910.454	17444
910.57	17414
910.685	17356
910.8	17733
910.915	17623
911.03	17493
911.145	17315
911.259	17235
911.374	17307
911.489	17284
911.604	17124
911.718	16999
911.833	17052
911.947	16957
912.062	16797
912.176	16999
912.291	17090
912.405	16946
912.519	17170
912.633	17147
912.748	17029
912.862	16900
912.976	16805
913.09	16733
913.204	16634
913.318	16729
913.431	16892
913.545	16991
913.659	16790
913.772	16786
913.886	16630
914	16580
914.113	16675
914.226	16599
914.34	16504
914.453	16523
914.566	16542
914.68	16428
914.793	16447
914.906	16318
915.019	16150
915.132	16128
915.245	16166
915.358	16154
915.47	16181
915.583	16188
915.696	16238
915.809	16257
915.921	16280
916.034	16048
916.146	16017
916.259	16101
916.371	16128
916.483	16090
916.595	15983
916.708	16086
916.82	15964
916.932	15991
917.044	15926
917.156	15930
917.268	15915
917.38	15816
917.491	15736
917.603	15804
917.715	15865
917.826	15838
917.938	15663
918.049	15576
918.161	15720
918.272	15755
918.384	15808
918.495	15564
918.606	15618
918.717	15473
918.828	15580
918.939	15485
919.05	15500
919.161	15462
919.272	15351
919.383	15317
919.494	15572
919.604	15610
919.715	15542
919.826	15397
919.936	15447
920.047	15545
920.157	15466
920.267	15713
920.378	15477
920.488	15431
920.598	15629
920.708	15705
920.818	15477
920.928	15538
921.038	15701
921.148	15690
921.258	15458
921.368	15260
921.477	15279
921.587	15199
921.697	14960
921.806	15173
921.916	15074
922.025	14933
922.134	14762
922.244	14815
922.353	14815
922.462	14663
922.571	14549
922.68	14427
922.789	14427
922.898	14499
923.007	14396
923.116	14514
923.224	14366
923.333	14389
923.442	14294
923.55	14221
923.659	14324
923.767	14320
923.876	14282
923.984	14301
924.092	14123
924.201	14210
924.309	14111
924.417	14180
924.525	13993
924.633	14092
924.741	14853
924.849	14001
924.956	13925
925.064	13830
925.172	13868
925.279	13746
925.387	13738
925.494	13811
925.602	13974
925.709	13887
925.816	13799
925.924	13772
926.031	13761
926.138	13666
926.245	13761
926.352	13643
926.459	13712
926.566	13856
926.673	13647
926.779	13449
926.886	13499
926.993	13403
927.099	13316
927.206	13331
927.312	13312
927.419	13407
927.525	13312
927.631	13335
927.737	13266
927.843	13129
927.95	13126
928.056	13213
928.162	13206
928.267	13129
928.373	13849
928.479	13141
928.585	12962
928.69	13076
928.796	13209
928.901	12973
929.007	12768
929.112	13015
929.218	12947
929.323	12935
929.428	12745
929.533	12973
929.638	12703
929.743	12829
929.848	12863
929.953	12768
930.058	12696
930.163	12483
930.267	12521
930.372	12635
930.477	12452
930.581	12658
930.685	12532
930.79	12448
930.894	12433
930.998	12292
931.103	12494
931.207	12079
931.311	12083
931.415	11969
931.519	11779
931.623	11726
