Data from test_V78500241_1925.txt Node
Date: Fri Mar 25 15:55:08 CST 2022
User: usil
Spectrometer: V785-0024
Trigger mode: 0
Integration Time (sec): 4.000000E-1
Scans to average: 1
Nonlinearity correction enabled: false
Boxcar width: 0
Storing dark spectrum: false
XAxis mode: Wavelengths
Number of Pixels in Spectrum: 1024
>>>>>Begin Spectral Data<<<<<
801.071	28641
801.214	28546
801.356	28398
801.499	28230
801.641	28253
801.783	28337
801.926	28280
802.068	28234
802.211	28352
802.353	28010
802.496	28036
802.638	27914
802.78	27869
802.923	27846
803.065	27865
803.208	27968
803.35	27964
803.492	28150
803.635	27994
803.777	28055
803.919	28223
804.061	28557
804.204	28242
804.346	28059
804.488	27983
804.63	28207
804.773	28120
804.915	28207
805.057	28329
805.199	28215
805.341	28310
805.483	28322
805.626	28379
805.768	28257
805.91	28257
806.052	28466
806.194	28333
806.336	28390
806.478	28409
806.62	28363
806.762	28531
806.904	28603
807.046	28771
807.188	28820
807.33	28862
807.472	28824
807.614	28698
807.756	28805
807.898	28470
808.04	28679
808.182	28618
808.324	28717
808.465	28664
808.607	28881
808.749	28911
808.891	29086
809.033	29174
809.174	29102
809.316	28896
809.458	29079
809.6	28809
809.741	29166
809.883	29117
810.025	29162
810.166	29254
810.308	29360
810.45	29086
810.591	29109
810.733	29029
810.875	28930
811.016	28763
811.158	29060
811.299	29181
811.441	29128
811.582	29254
811.724	28911
811.865	28839
812.007	29056
812.148	29105
812.29	29090
812.431	29140
812.573	29197
812.714	29459
812.855	29596
812.997	29600
813.138	29741
813.279	29577
813.421	29531
813.562	29353
813.703	29402
813.845	29387
813.986	29029
814.127	28908
814.268	28634
814.41	28683
814.551	28622
814.692	28656
814.833	28580
814.974	28805
815.115	28797
815.256	28596
815.397	28672
815.539	28599
815.68	28580
815.821	28386
815.962	28466
816.103	28611
816.244	28443
816.385	28394
816.526	28489
816.666	27998
816.807	28196
816.948	28048
817.089	28109
817.23	27987
817.371	28036
817.512	28074
817.653	28177
817.793	28029
817.934	28010
818.075	28051
818.216	28013
818.356	27903
818.497	27873
818.638	27724
818.778	27789
818.919	27850
819.06	27789
819.2	27846
819.341	28017
819.481	27968
819.622	28185
819.762	28485
819.903	28318
820.043	28230
820.184	28097
820.324	28219
820.465	28211
820.605	28124
820.746	28135
820.886	28040
821.026	28173
821.167	28116
821.307	28162
821.447	28086
821.588	27949
821.728	27975
821.868	27629
822.008	27538
822.149	27534
822.289	27496
822.429	27287
822.569	27313
822.709	27184
822.849	27055
822.99	26948
823.13	26967
823.27	26975
823.41	26830
823.55	26686
823.69	26925
823.83	26792
823.97	26743
824.11	26750
824.25	26636
824.389	26541
824.529	26636
824.669	26606
824.809	26769
824.949	26819
825.089	26769
825.228	26800
825.368	26507
825.508	26415
825.648	26469
825.787	26648
825.927	26663
826.067	26446
826.206	26571
826.346	26480
826.485	26621
826.625	26453
826.765	26594
826.904	26552
827.044	26336
827.183	26309
827.323	26286
827.462	26294
827.601	26225
827.741	26286
827.88	26278
828.02	26233
828.159	26309
828.298	26191
828.437	26351
828.577	26301
828.716	26320
828.855	26233
828.994	25898
829.134	26062
829.273	26005
829.412	25940
829.551	25913
829.69	26012
829.829	25986
829.968	25970
830.107	26084
830.246	25947
830.385	25837
830.524	25833
830.663	25917
830.802	25651
830.941	25575
831.08	25590
831.219	25582
831.357	25685
831.496	25776
831.635	25521
831.774	25533
831.913	25460
832.051	25457
832.19	25354
832.329	25384
832.467	25282
832.606	25202
832.744	25312
832.883	25251
833.022	25244
833.16	25095
833.299	25228
833.437	25232
833.576	25259
833.714	25225
833.852	25358
833.991	25312
834.129	25354
834.267	25327
834.406	25247
834.544	25285
834.682	25312
834.821	25209
834.959	25457
835.097	25236
835.235	25209
835.373	25152
835.511	25251
835.65	25198
835.788	25126
835.926	25008
836.064	24989
836.202	25012
836.34	25107
836.478	25213
836.615	25095
836.753	25179
836.891	25152
837.029	25065
837.167	25221
837.305	24996
837.443	25061
837.58	24867
837.718	25034
837.856	25008
837.993	24890
838.131	24935
838.269	24875
838.406	24848
838.544	24795
838.681	24475
838.819	24658
838.956	24391
839.094	24471
839.231	24555
839.369	24483
839.506	24829
839.643	24604
839.781	24429
839.918	24323
840.055	24448
840.193	24216
840.33	24251
840.467	24330
840.604	24304
840.742	24669
840.879	24194
841.016	24270
841.153	24338
841.29	24433
841.427	24414
841.564	24285
841.701	24380
841.838	24365
841.975	24098
842.112	24148
842.249	24167
842.385	24064
842.522	24315
842.659	24114
842.796	24060
842.933	24167
843.069	24007
843.206	24087
843.343	24106
843.479	24087
843.616	24003
843.752	24030
843.889	23813
844.025	23923
844.162	23726
844.298	24045
844.435	23707
844.571	23851
844.708	23843
844.844	23912
844.98	24007
845.117	23973
845.253	23783
845.389	23809
845.525	23668
845.661	23779
845.798	23642
845.934	23592
846.07	23627
846.206	23722
846.342	23760
846.478	23493
846.614	23410
846.75	23170
846.886	23239
847.022	23284
847.158	23280
847.294	23296
847.429	23387
847.565	23334
847.701	23463
847.837	23025
847.972	23086
848.108	23094
848.244	23178
848.379	22873
848.515	22831
848.65	22843
848.786	22908
848.921	22858
849.057	23037
849.192	23014
849.328	22923
849.463	22930
849.598	22774
849.734	22790
849.869	22660
850.004	22702
850.14	22649
850.275	22683
850.41	22577
850.545	22565
850.68	22687
850.815	22622
850.95	22668
851.085	22911
851.22	22698
851.355	22641
851.49	22668
851.625	22592
851.76	22668
851.895	22493
852.03	22489
852.165	22546
852.299	22687
852.434	22725
852.569	22710
852.703	22554
852.838	22702
852.973	22847
853.107	22721
853.242	22607
853.376	22508
853.511	22356
853.645	22390
853.78	22588
853.914	22512
854.048	22360
854.183	22398
854.317	22485
854.451	22786
854.585	22588
854.72	22424
854.854	22466
854.988	22261
855.122	22436
855.256	22337
855.39	22382
855.524	22577
855.658	22519
855.792	22474
855.926	22405
856.06	22584
856.194	22516
856.327	22451
856.461	22379
856.595	22432
856.729	22432
856.862	22611
856.996	22542
857.13	22550
857.263	22573
857.397	22542
857.53	22565
857.664	22485
857.797	22527
857.931	22489
858.064	22493
858.197	22550
858.331	22497
858.464	22375
858.597	22577
858.731	22352
858.864	22523
858.997	22417
859.13	22424
859.263	22360
859.396	22603
859.529	22375
859.662	22504
859.795	22405
859.928	22596
860.061	22584
860.194	22630
860.327	22523
860.46	22485
860.592	22531
860.725	22592
860.858	22580
860.99	22474
861.123	22314
861.256	22424
861.388	22500
861.521	23277
861.653	22299
861.786	22211
861.918	22356
862.05	22363
862.183	22424
862.315	22405
862.447	22451
862.58	22413
862.712	22147
862.844	22204
862.976	22303
863.108	22261
863.24	22622
863.372	22234
863.504	22223
863.636	22166
863.768	22154
863.9	22097
864.032	22143
864.164	22143
864.296	22150
864.428	22284
864.559	22181
864.691	22185
864.823	22219
864.954	22105
865.086	22192
865.217	22006
865.349	22074
865.48	22169
865.612	22002
865.743	22082
865.875	21991
866.006	21911
866.137	22074
866.269	22002
866.4	22002
866.531	21911
866.662	21953
866.793	21857
866.924	21945
867.055	21945
867.186	22086
867.317	21911
867.448	21911
867.579	21899
867.71	21915
867.841	21850
867.972	22063
868.103	21892
868.233	22017
868.364	21994
868.495	22112
868.625	22272
868.756	22249
868.886	22055
869.017	22230
869.147	22306
869.278	22173
869.408	22139
869.539	22371
869.669	22360
869.799	22185
869.929	22360
870.06	22352
870.19	22596
870.32	22306
870.45	22481
870.58	22618
870.71	22637
870.84	22588
870.97	22622
871.1	22603
871.23	22740
871.36	22858
871.489	22656
871.619	22702
871.749	22698
871.879	22774
872.008	22881
872.138	22835
872.267	22915
872.397	22755
872.526	22660
872.656	22497
872.785	22672
872.915	22809
873.044	22896
873.173	22889
873.303	22991
873.432	22938
873.561	22877
873.69	22858
873.819	22805
873.948	22824
874.077	22862
874.206	22675
874.335	22683
874.464	22923
874.593	23105
874.722	22972
874.851	23003
874.979	23071
875.108	23048
875.237	22999
875.365	22995
875.494	22999
875.623	23166
875.751	22942
875.88	23086
876.008	23223
876.136	23060
876.265	23566
876.393	23676
876.521	23497
876.65	23379
876.778	23463
876.906	23406
877.034	23383
877.162	23414
877.29	23364
877.418	23410
877.546	23311
877.674	23337
877.802	23356
877.93	23277
878.058	23231
878.185	23288
878.313	23292
878.441	23235
878.568	23216
878.696	23421
878.824	23414
878.951	23493
879.079	23570
879.206	23752
879.333	23455
879.461	23467
879.588	23554
879.715	23608
879.842	23596
879.97	23482
880.097	23083
880.224	23094
880.351	23296
880.478	23147
880.605	23223
880.732	23147
880.859	23410
880.986	23296
881.112	23162
881.239	23006
881.366	22850
881.493	22839
881.619	22869
881.746	22763
881.872	22786
881.999	22828
882.125	22843
882.252	22752
882.378	22767
882.505	22858
882.631	22656
882.757	22493
882.883	22497
883.01	22337
883.136	22299
883.262	22329
883.388	22169
883.514	22398
883.64	22512
883.766	22493
883.892	22124
884.018	22268
884.143	22291
884.269	22580
884.395	22196
884.52	22040
884.646	22036
884.772	22040
884.897	21960
885.023	22120
885.148	22192
885.274	22272
885.399	22097
885.524	22093
885.65	22067
885.775	22105
885.9	22188
886.025	22147
886.15	22116
886.275	22086
886.4	22017
886.525	21934
886.65	21964
886.775	21960
886.9	22226
887.025	22257
887.149	22051
887.274	21953
887.399	21842
887.523	21842
887.648	21800
887.773	21774
887.897	22021
888.021	21823
888.146	21728
888.27	21972
888.395	21903
888.519	21987
888.643	21835
888.767	21857
888.891	21854
889.015	21633
889.139	21732
889.263	21572
889.387	21774
889.511	21816
889.635	21698
889.759	21667
889.883	21622
890.006	21720
890.13	21766
890.254	21576
890.377	21591
890.501	21648
890.624	21355
890.748	21523
890.871	21256
890.995	21233
891.118	21070
891.241	21306
891.364	21241
891.488	21313
891.611	21112
891.734	21245
891.857	21264
891.98	21291
892.103	21165
892.226	21169
892.349	21112
892.471	21013
892.594	20975
892.717	21161
892.839	21005
892.962	21214
893.085	21123
893.207	21051
893.33	21089
893.452	21036
893.575	21192
893.697	21062
893.819	21184
893.941	21252
894.064	21195
894.186	21055
894.308	21089
894.43	21165
894.552	21062
894.674	21207
894.796	20948
894.918	21047
895.04	20990
895.161	21077
895.283	21131
895.405	20990
895.526	21066
895.648	20967
895.769	21070
895.891	21169
896.012	21169
896.134	21188
896.255	21085
896.376	21077
896.498	20998
896.619	21074
896.74	21081
896.861	21104
896.982	21447
897.103	21473
897.224	21329
897.345	21363
897.466	21252
897.587	21252
897.708	21370
897.828	21412
897.949	21294
898.07	21154
898.19	21119
898.311	21420
898.431	21291
898.552	21241
898.672	21302
898.792	21317
898.913	21233
899.033	21272
899.153	21077
899.273	20872
899.393	21066
899.513	21093
899.633	20906
899.753	21024
899.873	21020
899.993	21104
900.113	20933
900.232	20952
900.352	20823
900.472	20834
900.591	20720
900.711	20708
900.83	20663
900.95	20807
901.069	20883
901.189	20724
901.308	20362
901.427	20332
901.546	20275
901.665	20309
901.784	20385
901.904	20050
902.023	20134
902.141	19955
902.26	19875
902.379	20001
902.498	19746
902.617	19696
902.735	19883
902.854	19723
902.973	19776
903.091	19495
903.21	19483
903.328	19518
903.446	19354
903.565	19324
903.683	19278
903.801	19228
903.919	19202
904.038	19164
904.156	19122
904.274	19152
904.392	19072
904.51	19118
904.627	19110
904.745	19050
904.863	19050
904.981	18848
905.098	18852
905.216	18681
905.334	18749
905.451	18661
905.569	18734
905.686	18802
905.803	18623
905.921	18486
906.038	18623
906.155	18532
906.272	18414
906.389	18365
906.506	18262
906.623	18315
906.74	18182
906.857	18095
906.974	18095
907.091	18292
907.208	18357
907.324	18323
907.441	18205
907.557	17984
907.674	17939
907.79	17988
907.907	17942
908.023	17961
908.139	18022
908.256	17897
908.372	17870
908.488	17798
908.604	17687
908.72	17691
908.836	17836
908.952	17608
909.068	17699
909.184	17707
909.3	17722
909.415	17672
909.531	17592
909.647	17455
909.762	17398
909.878	17341
909.993	17516
910.108	17315
910.224	17227
910.339	17277
910.454	17261
910.57	17189
910.685	17113
910.8	17417
910.915	17318
911.03	17174
911.145	17037
911.259	16965
911.374	16946
911.489	16896
911.604	16748
911.718	16782
911.833	16675
911.947	16672
912.062	16561
912.176	16706
912.291	16710
912.405	16668
912.519	16927
912.633	16911
912.748	16611
912.862	16603
912.976	16432
913.09	16382
913.204	16489
913.318	16497
913.431	16611
913.545	16653
913.659	16634
913.772	16497
913.886	16371
914	16344
914.113	16428
914.226	16462
914.34	16394
914.453	16135
914.566	16402
914.68	16200
914.793	16169
914.906	15907
915.019	15854
915.132	15736
915.245	15827
915.358	15884
915.47	15861
915.583	15850
915.696	15869
915.809	15934
915.921	15964
916.034	15861
916.146	15751
916.259	15781
916.371	15701
916.483	15789
916.595	15724
916.708	15622
916.82	15637
916.932	15637
917.044	15622
917.156	15625
917.268	15462
917.38	15473
917.491	15450
917.603	15526
917.715	15641
917.826	15652
917.938	15435
918.049	15340
918.161	15435
918.272	15405
918.384	15542
918.495	15401
918.606	15306
918.717	15325
918.828	15317
918.939	15241
919.05	15150
919.161	15226
919.272	15024
919.383	14975
919.494	15313
919.604	15485
919.715	15192
919.826	15039
919.936	15306
920.047	15283
920.157	15138
920.267	15272
920.378	15211
920.488	15104
920.598	15310
920.708	15466
920.818	15306
920.928	15317
921.038	15473
921.148	15416
921.258	15146
921.368	15070
921.477	14986
921.587	14849
921.697	14727
921.806	14971
921.916	14781
922.025	14492
922.134	14602
922.244	14545
922.353	14606
922.462	14419
922.571	14332
922.68	14161
922.789	14187
922.898	14145
923.007	14168
923.116	14164
923.224	14187
923.333	14199
923.442	14081
923.55	14054
923.659	13993
923.767	14035
923.876	14001
923.984	14092
924.092	13871
924.201	13963
924.309	13974
924.417	13799
924.525	13818
924.633	13841
924.741	14765
924.849	13616
924.956	13719
925.064	13700
925.172	13396
925.279	13575
925.387	13620
925.494	13609
925.602	13712
925.709	13647
925.816	13457
925.924	13605
926.031	13601
926.138	13518
926.245	13514
926.352	13521
926.459	13460
926.566	13548
926.673	13415
926.779	13324
926.886	13266
926.993	13103
927.099	13069
927.206	13042
927.312	13027
927.419	13209
927.525	13091
927.631	13122
927.737	13084
927.843	12981
927.95	12776
928.056	12856
928.162	12943
928.267	12977
928.373	13597
928.479	13031
928.585	12646
928.69	12886
928.796	12848
928.901	12806
929.007	12639
929.112	12745
929.218	12722
929.323	12639
929.428	12646
929.533	12726
929.638	12612
929.743	12563
929.848	12574
929.953	12536
930.058	12544
930.163	12323
930.267	12262
930.372	12441
930.477	12281
930.581	12490
930.685	12334
930.79	12209
930.894	12140
930.998	12095
931.103	12243
931.207	11912
931.311	11817
931.415	11767
931.519	11573
931.623	11551
