Data from test_V78500241_2764.txt Node
Date: Fri Mar 25 16:00:56 CST 2022
User: usil
Spectrometer: V785-0024
Trigger mode: 0
Integration Time (sec): 4.000000E-1
Scans to average: 1
Nonlinearity correction enabled: false
Boxcar width: 0
Storing dark spectrum: false
XAxis mode: Wavelengths
Number of Pixels in Spectrum: 1024
>>>>>Begin Spectral Data<<<<<
801.071	28972
801.214	28767
801.356	28599
801.499	28508
801.641	28432
801.783	28481
801.926	28485
802.068	28493
802.211	28318
802.353	28531
802.496	28299
802.638	28249
802.78	28128
802.923	28120
803.065	28040
803.208	28185
803.35	28166
803.492	28272
803.635	28276
803.777	28284
803.919	28287
804.061	28733
804.204	28489
804.346	28341
804.488	28322
804.63	28371
804.773	28447
804.915	28443
805.057	28645
805.199	28325
805.341	28504
805.483	28527
805.626	28500
805.768	28348
805.91	28535
806.052	28557
806.194	28405
806.336	28660
806.478	28573
806.62	28519
806.762	28771
806.904	28949
807.046	29010
807.188	28908
807.33	28915
807.472	28976
807.614	28946
807.756	28953
807.898	28930
808.04	28641
808.182	28698
808.324	28828
808.465	28972
808.607	28999
808.749	29166
808.891	29337
809.033	29311
809.174	29242
809.316	29311
809.458	29220
809.6	29277
809.741	29368
809.883	29353
810.025	29455
810.166	29512
810.308	29452
810.45	29543
810.591	29433
810.733	29212
810.875	29147
811.016	29121
811.158	29162
811.299	29387
811.441	29524
811.582	29379
811.724	29337
811.865	29258
812.007	29349
812.148	29269
812.29	29436
812.431	29433
812.573	29570
812.714	29764
812.855	29760
812.997	29931
813.138	30003
813.279	29843
813.421	29790
813.562	29786
813.703	29512
813.845	29296
813.986	29280
814.127	29086
814.268	29075
814.41	29083
814.551	28953
814.692	28972
814.833	29029
814.974	28888
815.115	28946
815.256	28927
815.397	28755
815.539	28839
815.68	28691
815.821	28759
815.962	28645
816.103	28862
816.244	28694
816.385	28554
816.526	28527
816.666	28497
816.807	28215
816.948	28405
817.089	28428
817.23	28318
817.371	28341
817.512	28375
817.653	28303
817.793	28405
817.934	28211
818.075	28310
818.216	28341
818.356	28234
818.497	28150
818.638	27994
818.778	28040
818.919	28070
819.06	28188
819.2	28230
819.341	28299
819.481	28261
819.622	28341
819.762	28588
819.903	28481
820.043	28516
820.184	28405
820.324	28443
820.465	28428
820.605	28462
820.746	28428
820.886	28177
821.026	28375
821.167	28329
821.307	28417
821.447	28226
821.588	28261
821.728	28070
821.868	27899
822.008	27785
822.149	27755
822.289	27770
822.429	27492
822.569	27367
822.709	27473
822.849	27272
822.99	27275
823.13	27154
823.27	27192
823.41	27085
823.55	26918
823.69	27127
823.83	27043
823.97	26990
824.11	26994
824.25	26739
824.389	26937
824.529	27032
824.669	27013
824.809	27066
824.949	26979
825.089	26982
825.228	26967
825.368	26868
825.508	26765
825.648	26887
825.787	26880
825.927	26948
826.067	26754
826.206	26701
826.346	26929
826.485	26845
826.625	26845
826.765	26967
826.904	26887
827.044	26514
827.183	26526
827.323	26518
827.462	26537
827.601	26655
827.741	26423
827.88	26594
828.02	26499
828.159	26469
828.298	26492
828.437	26526
828.577	26469
828.716	26568
828.855	26545
828.994	26252
829.134	26149
829.273	26377
829.412	26176
829.551	26199
829.69	26138
829.829	26221
829.968	26374
830.107	26225
830.246	26187
830.385	26199
830.524	26084
830.663	25974
830.802	26024
830.941	25776
831.08	25757
831.219	25917
831.357	25852
831.496	25966
831.635	25791
831.774	25750
831.913	25780
832.051	25742
832.19	25487
832.329	25734
832.467	25597
832.606	25441
832.744	25483
832.883	25460
833.022	25518
833.16	25426
833.299	25556
833.437	25304
833.576	25685
833.714	25445
833.852	25491
833.991	25594
834.129	25521
834.267	25586
834.406	25586
834.544	25476
834.682	25426
834.821	25605
834.959	25700
835.097	25502
835.235	25567
835.373	25491
835.511	25578
835.65	25255
835.788	25270
835.926	25217
836.064	25198
836.202	25266
836.34	25377
836.478	25415
836.615	25460
836.753	25282
836.891	25464
837.029	25278
837.167	25381
837.305	25343
837.443	25289
837.58	25088
837.718	25202
837.856	25187
837.993	24989
838.131	25236
838.269	25118
838.406	25038
838.544	25050
838.681	24817
838.819	24856
838.956	24665
839.094	24703
839.231	24688
839.369	24696
839.506	25084
839.643	24825
839.781	24669
839.918	24551
840.055	24631
840.193	24597
840.33	24608
840.467	24555
840.604	24635
840.742	24859
840.879	24433
841.016	24517
841.153	24483
841.29	24635
841.427	24642
841.564	24696
841.701	24551
841.838	24486
841.975	24429
842.112	24433
842.249	24418
842.385	24285
842.522	24570
842.659	24426
842.796	24365
842.933	24319
843.069	24285
843.206	24319
843.343	24509
843.479	24365
843.616	24308
843.752	24098
843.889	24121
844.025	24209
844.162	24087
844.298	24266
844.435	24076
844.571	24125
844.708	24125
844.844	24319
844.98	24201
845.117	24273
845.253	23927
845.389	23893
845.525	24060
845.661	23958
845.798	23874
845.934	23904
846.07	23851
846.206	23984
846.342	23965
846.478	23923
846.614	23630
846.75	23440
846.886	23490
847.022	23649
847.158	23535
847.294	23570
847.429	23695
847.565	23570
847.701	23805
847.837	23246
847.972	23204
848.108	23337
848.244	23258
848.379	23083
848.515	23128
848.65	23197
848.786	23086
848.921	23140
849.057	23147
849.192	23197
849.328	23151
849.463	23128
849.598	23121
849.734	23071
849.869	22991
850.004	22892
850.14	22987
850.275	22949
850.41	22778
850.545	22904
850.68	22809
850.815	22976
850.95	22957
851.085	23239
851.22	22923
851.355	22923
851.49	22923
851.625	22896
851.76	22828
851.895	22786
852.03	22927
852.165	22873
852.299	22968
852.434	23178
852.569	22927
852.703	22858
852.838	22908
852.973	23064
853.107	23079
853.242	22713
853.376	22873
853.511	22634
853.645	22694
853.78	22892
853.914	22831
854.048	22637
854.183	22672
854.317	22774
854.451	22911
854.585	22812
854.72	22721
854.854	22904
854.988	22729
855.122	22672
855.256	22573
855.39	22816
855.524	22866
855.658	22771
855.792	22679
855.926	22763
856.06	22885
856.194	22797
856.327	22748
856.461	22752
856.595	22527
856.729	22687
856.862	22831
856.996	22683
857.13	22740
857.263	22816
857.397	22767
857.53	22683
857.664	22927
857.797	22828
857.931	22725
858.064	22759
858.197	22736
858.331	22694
858.464	22679
858.597	22641
858.731	22702
858.864	22622
858.997	22721
859.13	22557
859.263	22641
859.396	22782
859.529	22675
859.662	22679
859.795	22748
859.928	22706
860.061	22843
860.194	22908
860.327	22790
860.46	22721
860.592	22843
860.725	22812
860.858	22793
860.99	22653
861.123	22615
861.256	22637
861.388	22710
861.521	23421
861.653	22626
861.786	22436
861.918	22535
862.05	22550
862.183	22630
862.315	22641
862.447	22725
862.58	22672
862.712	22478
862.844	22253
862.976	22474
863.108	22405
863.24	22980
863.372	22478
863.504	22363
863.636	22485
863.768	22371
863.9	22443
864.032	22432
864.164	22234
864.296	22432
864.428	22485
864.559	22424
864.691	22497
864.823	22367
864.954	22462
865.086	22440
865.217	22390
865.349	22242
865.48	22219
865.612	22344
865.743	22474
865.875	22390
866.006	22238
866.137	22291
866.269	22223
866.4	22314
866.531	22268
866.662	22131
866.793	22135
866.924	22284
867.055	22196
867.186	22223
867.317	22265
867.448	22131
867.579	22101
867.71	22177
867.841	22196
867.972	22196
868.103	22234
868.233	22238
868.364	22268
868.495	22337
868.625	22459
868.756	22478
868.886	22287
869.017	22489
869.147	22584
869.278	22599
869.408	22508
869.539	22474
869.669	22523
869.799	22596
869.929	22584
870.06	22550
870.19	22949
870.32	22805
870.45	22710
870.58	22824
870.71	22934
870.84	22835
870.97	22820
871.1	22930
871.23	23041
871.36	23147
871.489	22847
871.619	23033
871.749	23117
871.879	23086
872.008	23037
872.138	23113
872.267	23140
872.397	22961
872.526	22816
872.656	22938
872.785	22858
872.915	23216
873.044	23064
873.173	23094
873.303	23052
873.432	23102
873.561	23189
873.69	22972
873.819	23014
873.948	23022
874.077	23064
874.206	23025
874.335	23083
874.464	23197
874.593	23360
874.722	23303
874.851	23356
874.979	23379
875.108	23337
875.237	23376
875.365	23178
875.494	23235
875.623	23368
875.751	23231
875.88	23360
876.008	23414
876.136	23414
876.265	23672
876.393	23874
876.521	23828
876.65	23729
876.778	23695
876.906	23539
877.034	23589
877.162	23596
877.29	23687
877.418	23638
877.546	23668
877.674	23680
877.802	23524
877.93	23676
878.058	23600
878.185	23383
878.313	23638
878.441	23551
878.568	23509
878.696	23596
878.824	23672
878.951	23756
879.079	23779
879.206	23942
879.333	23665
879.461	23703
879.588	23798
879.715	23874
879.842	23893
879.97	23619
880.097	23474
880.224	23554
880.351	23657
880.478	23429
880.605	23524
880.732	23520
880.859	23627
880.986	23505
881.112	23452
881.239	23349
881.366	23193
881.493	23010
881.619	23105
881.746	23079
881.872	22999
881.999	22976
882.125	22869
882.252	23162
882.378	22984
882.505	23132
882.631	23022
882.757	22759
882.883	22881
883.01	22702
883.136	22455
883.262	22428
883.388	22573
883.514	22660
883.64	22774
883.766	22550
883.892	22455
884.018	22531
884.143	22599
884.269	22672
884.395	22447
884.52	22306
884.646	22242
884.772	22204
884.897	22226
885.023	22379
885.148	22504
885.274	22516
885.399	22493
885.524	22280
885.65	22394
885.775	22348
885.9	22356
886.025	22390
886.15	22421
886.275	22337
886.4	22211
886.525	22356
886.65	22303
886.775	22230
886.9	22497
887.025	22428
887.149	22200
887.274	22211
887.399	22128
887.523	21994
887.648	21994
887.773	21930
887.897	22147
888.021	22109
888.146	22006
888.27	22116
888.395	22101
888.519	22029
888.643	22120
888.767	22074
888.891	21968
889.015	21926
889.139	21823
889.263	21880
889.387	21888
889.511	22032
889.635	21911
889.759	21884
889.883	21888
890.006	21983
890.13	21987
890.254	21755
890.377	21854
890.501	21648
890.624	21519
890.748	21705
890.871	21488
890.995	21386
891.118	21424
891.241	21306
891.364	21526
891.488	21572
891.611	21393
891.734	21416
891.857	21420
891.98	21298
892.103	21389
892.226	21382
892.349	21382
892.471	21157
892.594	21237
892.717	21313
892.839	21275
892.962	21310
893.085	21325
893.207	21192
893.33	21302
893.452	21241
893.575	21378
893.697	21340
893.819	21458
893.941	21488
894.064	21515
894.186	21241
894.308	21272
894.43	21351
894.552	21469
894.674	21272
894.796	21355
894.918	21310
895.04	21283
895.161	21317
895.283	21351
895.405	21108
895.526	21222
895.648	21256
895.769	21268
895.891	21252
896.012	21317
896.134	21241
896.255	21450
896.376	21199
896.498	21329
896.619	21428
896.74	21310
896.861	21275
896.982	21576
897.103	21816
897.224	21542
897.345	21469
897.466	21389
897.587	21511
897.708	21648
897.828	21504
897.949	21443
898.07	21363
898.19	21386
898.311	21561
898.431	21507
898.552	21450
898.672	21549
898.792	21545
898.913	21526
899.033	21386
899.153	21310
899.273	21199
899.393	21214
899.513	21222
899.633	21313
899.753	21192
899.873	21062
899.993	21195
900.113	21081
900.232	21154
900.352	21138
900.472	20994
900.591	20944
900.711	20967
900.83	20937
900.95	21051
901.069	21093
901.189	20777
901.308	20598
901.427	20526
901.546	20537
901.665	20530
901.784	20594
901.904	20469
902.023	20259
902.141	20142
902.26	20134
902.379	20252
902.498	20046
902.617	20012
902.735	20062
902.854	19928
902.973	20043
903.091	19738
903.21	19780
903.328	19704
903.446	19628
903.565	19556
903.683	19457
903.801	19320
903.919	19487
904.038	19362
904.156	19194
904.274	19415
904.392	19221
904.51	19247
904.627	19236
904.745	19255
904.863	19263
904.981	19110
905.098	19008
905.216	18932
905.334	18916
905.451	18886
905.569	18920
905.686	18924
905.803	18897
905.921	18711
906.038	18901
906.155	18745
906.272	18593
906.389	18642
906.506	18456
906.623	18475
906.74	18555
906.857	18292
906.974	18384
907.091	18471
907.208	18445
907.324	18540
907.441	18319
907.557	18155
907.674	18144
907.79	18159
907.907	18148
908.023	18174
908.139	18155
908.256	18110
908.372	18007
908.488	17977
908.604	17897
908.72	17824
908.836	17851
908.952	17885
909.068	17840
909.184	17939
909.3	17771
909.415	17847
909.531	17805
909.647	17680
909.762	17589
909.878	17509
909.993	17642
910.108	17558
910.224	17406
910.339	17532
910.454	17379
910.57	17345
910.685	17265
910.8	17509
910.915	17539
911.03	17376
911.145	17170
911.259	17113
911.374	17162
911.489	17094
911.604	17006
911.718	16885
911.833	16767
911.947	16729
912.062	16713
912.176	16904
912.291	16900
912.405	16900
912.519	17079
912.633	16984
912.748	16873
912.862	16782
912.976	16740
913.09	16497
913.204	16603
913.318	16736
913.431	16805
913.545	16725
913.659	16698
913.772	16740
913.886	16459
914	16626
914.113	16481
914.226	16577
914.34	16451
914.453	16360
914.566	16519
914.68	16405
914.793	16291
914.906	16105
915.019	16021
915.132	16082
915.245	16105
915.358	16013
915.47	16055
915.583	16139
915.696	16086
915.809	16101
915.921	16188
916.034	15922
916.146	16013
916.259	15884
916.371	16032
916.483	15941
916.595	15861
916.708	15800
916.82	15873
916.932	15778
917.044	15663
917.156	15759
917.268	15675
917.38	15587
917.491	15709
917.603	15606
917.715	15698
917.826	15747
917.938	15534
918.049	15477
918.161	15500
918.272	15682
918.384	15762
918.495	15492
918.606	15458
918.717	15378
918.828	15447
918.939	15355
919.05	15313
919.161	15321
919.272	15112
919.383	15237
919.494	15382
919.604	15519
919.715	15313
919.826	15313
919.936	15313
920.047	15374
920.157	15363
920.267	15576
920.378	15389
920.488	15233
920.598	15538
920.708	15679
920.818	15481
920.928	15401
921.038	15591
921.148	15595
921.258	15317
921.368	15230
921.477	15108
921.587	15089
921.697	15036
921.806	14971
921.916	14944
922.025	14746
922.134	14746
922.244	14533
922.353	14716
922.462	14606
922.571	14499
922.68	14457
922.789	14381
922.898	14309
923.007	14298
923.116	14317
923.224	14271
923.333	14275
923.442	14191
923.55	14149
923.659	14195
923.767	14172
923.876	14138
923.984	14225
924.092	14100
924.201	14020
924.309	13959
924.417	14043
924.525	13936
924.633	13955
924.741	14937
924.849	13750
924.956	14020
925.064	13814
925.172	13700
925.279	13765
925.387	13628
925.494	13677
925.602	13841
925.709	13700
925.816	13597
925.924	13601
926.031	13727
926.138	13647
926.245	13757
926.352	13544
926.459	13708
926.566	13734
926.673	13647
926.779	13415
926.886	13476
926.993	13202
927.099	13255
927.206	13274
927.312	13217
927.419	13304
927.525	13187
927.631	13316
927.737	13065
927.843	13114
927.95	13004
928.056	13034
928.162	13152
928.267	13053
928.373	13628
928.479	13015
928.585	12859
928.69	13053
928.796	13110
928.901	12894
929.007	12795
929.112	12875
929.218	12779
929.323	12760
929.428	12719
929.533	12856
929.638	12673
929.743	12620
929.848	12734
929.953	12623
930.058	12540
930.163	12433
930.267	12475
930.372	12551
930.477	12380
930.581	12574
930.685	12498
930.79	12327
930.894	12270
930.998	12201
931.103	12376
931.207	12129
931.311	11923
931.415	11843
931.519	11695
931.623	11688
