Data from test_V78500241_3141.txt Node
Date: Fri Mar 25 16:03:33 CST 2022
User: usil
Spectrometer: V785-0024
Trigger mode: 0
Integration Time (sec): 4.000000E-1
Scans to average: 1
Nonlinearity correction enabled: false
Boxcar width: 0
Storing dark spectrum: false
XAxis mode: Wavelengths
Number of Pixels in Spectrum: 1024
>>>>>Begin Spectral Data<<<<<
801.071	28580
801.214	28607
801.356	28284
801.499	28242
801.641	28207
801.783	28261
801.926	28116
802.068	28192
802.211	28086
802.353	27972
802.496	27812
802.638	27922
802.78	27819
802.923	27720
803.065	27679
803.208	27732
803.35	27926
803.492	27937
803.635	28147
803.777	27903
803.919	28048
804.061	28185
804.204	28013
804.346	28002
804.488	27983
804.63	28063
804.773	28086
804.915	28166
805.057	28204
805.199	28097
805.341	28124
805.483	28147
805.626	28257
805.768	28196
805.91	28223
806.052	28188
806.194	28097
806.336	28443
806.478	28337
806.62	28105
806.762	28645
806.904	28527
807.046	28713
807.188	28797
807.33	28599
807.472	28839
807.614	28725
807.756	28516
807.898	28596
808.04	28428
808.182	28489
808.324	28535
808.465	28645
808.607	28637
808.749	28801
808.891	28953
809.033	29242
809.174	28896
809.316	29006
809.458	28850
809.6	28896
809.741	29155
809.883	29060
810.025	29162
810.166	29136
810.308	29185
810.45	29250
810.591	29208
810.733	28927
810.875	28930
811.016	28854
811.158	28763
811.299	29029
811.441	29014
811.582	29003
811.724	28839
811.865	28923
812.007	28793
812.148	28797
812.29	29033
812.431	29334
812.573	29292
812.714	29395
812.855	29577
812.997	29623
813.138	29840
813.279	29665
813.421	29448
813.562	29414
813.703	29185
813.845	29170
813.986	28869
814.127	28755
814.268	28668
814.41	28561
814.551	28565
814.692	28622
814.833	28660
814.974	28649
815.115	28557
815.256	28710
815.397	28588
815.539	28386
815.68	28356
815.821	28417
815.962	28344
816.103	28474
816.244	28192
816.385	28128
816.526	28188
816.666	28109
816.807	27899
816.948	28063
817.089	28067
817.23	27994
817.371	28010
817.512	27793
817.653	27941
817.793	27766
817.934	27983
818.075	27956
818.216	28021
818.356	27770
818.497	27926
818.638	27781
818.778	27694
818.919	27610
819.06	27755
819.2	27899
819.341	27724
819.481	27876
819.622	27956
819.762	28230
819.903	28249
820.043	28116
820.184	28112
820.324	28188
820.465	28295
820.605	28154
820.746	28143
820.886	27934
821.026	28185
821.167	28051
821.307	28120
821.447	27892
821.588	27964
821.728	27850
821.868	27637
822.008	27511
822.149	27363
822.289	27405
822.429	27146
822.569	26982
822.709	27188
822.849	26952
822.99	26971
823.13	26975
823.27	26853
823.41	26636
823.55	26701
823.69	26682
823.83	26644
823.97	26769
824.11	26438
824.25	26465
824.389	26522
824.529	26556
824.669	26583
824.809	26651
824.949	26602
825.089	26716
825.228	26530
825.368	26412
825.508	26495
825.648	26393
825.787	26568
825.927	26640
826.067	26431
826.206	26374
826.346	26533
826.485	26484
826.625	26419
826.765	26533
826.904	26514
827.044	26100
827.183	26320
827.323	26218
827.462	26290
827.601	26043
827.741	26214
827.88	26172
828.02	26058
828.159	26202
828.298	26180
828.437	26195
828.577	26103
828.716	26126
828.855	26218
828.994	25860
829.134	25913
829.273	25989
829.412	25928
829.551	25883
829.69	25833
829.829	25940
829.968	25822
830.107	25978
830.246	25986
830.385	25898
830.524	25734
830.663	25723
830.802	25658
830.941	25346
831.08	25502
831.219	25643
831.357	25605
831.496	25689
831.635	25468
831.774	25377
831.913	25316
832.051	25335
832.19	25282
832.329	25285
832.467	25164
832.606	25076
832.744	25080
832.883	25065
833.022	25069
833.16	25168
833.299	25274
833.437	25190
833.576	25255
833.714	25236
833.852	25324
833.991	25301
834.129	25266
834.267	25350
834.406	25213
834.544	25213
834.682	25285
834.821	25225
834.959	25293
835.097	25206
835.235	25270
835.373	25198
835.511	25171
835.65	24958
835.788	25050
835.926	24935
836.064	24779
836.202	24920
836.34	25042
836.478	25103
836.615	25069
836.753	24985
836.891	25107
837.029	24985
837.167	24939
837.305	24985
837.443	24913
837.58	24726
837.718	24875
837.856	24844
837.993	24875
838.131	24848
838.269	24684
838.406	24795
838.544	24707
838.681	24563
838.819	24612
838.956	24388
839.094	24266
839.231	24369
839.369	24426
839.506	24768
839.643	24498
839.781	24292
839.918	24235
840.055	24422
840.193	24342
840.33	24300
840.467	24258
840.604	24194
840.742	24460
840.879	24205
841.016	24167
841.153	24095
841.29	24224
841.427	24148
841.564	24235
841.701	24232
841.838	24053
841.975	24015
842.112	24087
842.249	24159
842.385	23958
842.522	24197
842.659	24041
842.796	24076
842.933	24011
843.069	23927
843.206	23920
843.343	24049
843.479	23946
843.616	23992
843.752	23859
843.889	23859
844.025	23885
844.162	23840
844.298	23882
844.435	23771
844.571	23821
844.708	23775
844.844	23866
844.98	23969
845.117	23874
845.253	23649
845.389	23596
845.525	23661
845.661	23638
845.798	23501
845.934	23554
846.07	23577
846.206	23554
846.342	23623
846.478	23493
846.614	23284
846.75	23060
846.886	23269
847.022	23162
847.158	23216
847.294	23292
847.429	23250
847.565	23212
847.701	23474
847.837	22957
847.972	22790
848.108	22995
848.244	23044
848.379	22782
848.515	22733
848.65	22691
848.786	22729
848.921	22927
849.057	22885
849.192	22934
849.328	22919
849.463	22881
849.598	22748
849.734	22725
849.869	22672
850.004	22481
850.14	22546
850.275	22565
850.41	22481
850.545	22508
850.68	22478
850.815	22626
850.95	22451
851.085	22763
851.22	22599
851.355	22771
851.49	22462
851.625	22546
851.76	22512
851.895	22398
852.03	22485
852.165	22523
852.299	22596
852.434	22630
852.569	22504
852.703	22523
852.838	22615
852.973	22698
853.107	22630
853.242	22497
853.376	22322
853.511	22371
853.645	22322
853.78	22550
853.914	22470
854.048	22337
854.183	22314
854.317	22447
854.451	22653
854.585	22196
854.72	22417
854.854	22512
854.988	22379
855.122	22432
855.256	22344
855.39	22272
855.524	22493
855.658	22405
855.792	22417
855.926	22405
856.06	22436
856.194	22523
856.327	22265
856.461	22398
856.595	22367
856.729	22379
856.862	22554
856.996	22516
857.13	22481
857.263	22481
857.397	22470
857.53	22557
857.664	22508
857.797	22466
857.931	22557
858.064	22474
858.197	22630
858.331	22497
858.464	22310
858.597	22348
858.731	22356
858.864	22462
858.997	22306
859.13	22409
859.263	22386
859.396	22455
859.529	22451
859.662	22470
859.795	22382
859.928	22474
860.061	22516
860.194	22630
860.327	22500
860.46	22455
860.592	22645
860.725	22664
860.858	22478
860.99	22478
861.123	22291
861.256	22375
861.388	22402
861.521	22953
861.653	22265
861.786	22147
861.918	22314
862.05	22405
862.183	22280
862.315	22318
862.447	22322
862.58	22402
862.712	22097
862.844	22086
862.976	22185
863.108	22143
863.24	22607
863.372	22055
863.504	22074
863.636	22090
863.768	22177
863.9	22082
864.032	22124
864.164	22109
864.296	22109
864.428	22120
864.559	22131
864.691	22200
864.823	22109
864.954	22013
865.086	22090
865.217	22029
865.349	21975
865.48	22048
865.612	22044
865.743	22116
865.875	22021
866.006	21888
866.137	22017
866.269	21991
866.4	22002
866.531	21915
866.662	21884
866.793	21892
866.924	21953
867.055	21915
867.186	21941
867.317	21861
867.448	21823
867.579	22040
867.71	21873
867.841	21888
867.972	22006
868.103	21972
868.233	21846
868.364	21888
868.495	22116
868.625	22143
868.756	22238
868.886	22002
869.017	22078
869.147	22382
869.278	22246
869.408	22284
869.539	22097
869.669	22299
869.799	22162
869.929	22234
870.06	22325
870.19	22500
870.32	22413
870.45	22500
870.58	22580
870.71	22641
870.84	22683
870.97	22519
871.1	22478
871.23	22733
871.36	22824
871.489	22691
871.619	22759
871.749	22767
871.879	22664
872.008	22831
872.138	22721
872.267	22774
872.397	22611
872.526	22710
872.656	22607
872.785	22630
872.915	22774
873.044	22930
873.173	22812
873.303	22733
873.432	22843
873.561	23071
873.69	22816
873.819	22694
873.948	22828
874.077	22816
874.206	22645
874.335	22786
874.464	22930
874.593	22987
874.722	22965
874.851	23094
874.979	23048
875.108	23083
875.237	23010
875.365	22976
875.494	22911
875.623	23071
875.751	22923
875.88	23162
876.008	23143
876.136	23197
876.265	23433
876.393	23448
876.521	23421
876.65	23478
876.778	23433
876.906	23227
877.034	23452
877.162	23311
877.29	23284
877.418	23311
877.546	23334
877.674	23436
877.802	23242
877.93	23334
878.058	23296
878.185	23117
878.313	23322
878.441	23208
878.568	23162
878.696	23402
878.824	23368
878.951	23566
879.079	23448
879.206	23611
879.333	23554
879.461	23273
879.588	23524
879.715	23520
879.842	23665
879.97	23429
880.097	23166
880.224	23246
880.351	23197
880.478	23197
880.605	23193
880.732	23197
880.859	23349
880.986	22999
881.112	23223
881.239	23037
881.366	22911
881.493	22889
881.619	22763
881.746	22919
881.872	22763
881.999	22626
882.125	22599
882.252	22672
882.378	22721
882.505	22843
882.631	22649
882.757	22474
882.883	22470
883.01	22348
883.136	22291
883.262	22348
883.388	22268
883.514	22447
883.64	22390
883.766	22215
883.892	22242
884.018	22246
884.143	22382
884.269	22360
884.395	22048
884.52	22078
884.646	21972
884.772	21991
884.897	21804
885.023	22082
885.148	22101
885.274	22291
885.399	22131
885.524	22063
885.65	22051
885.775	22128
885.9	22036
886.025	22162
886.15	22185
886.275	22010
886.4	21991
886.525	21953
886.65	21949
886.775	22013
886.9	22048
887.025	22162
887.149	21922
887.274	21774
887.399	21705
887.523	21812
887.648	21865
887.773	21656
887.897	21861
888.021	21789
888.146	21652
888.27	21907
888.395	21895
888.519	21717
888.643	21869
888.767	21945
888.891	21797
889.015	21561
889.139	21759
889.263	21610
889.387	21743
889.511	21800
889.635	21682
889.759	21652
889.883	21656
890.006	21526
890.13	21701
890.254	21511
890.377	21488
890.501	21294
890.624	21287
890.748	21252
890.871	21214
890.995	21062
891.118	21119
891.241	21096
891.364	21119
891.488	21116
891.611	21112
891.734	21161
891.857	21249
891.98	21116
892.103	21131
892.226	21131
892.349	21028
892.471	20902
892.594	21058
892.717	21112
892.839	21051
892.962	21116
893.085	21066
893.207	20918
893.33	20952
893.452	20956
893.575	21161
893.697	20982
893.819	21233
893.941	21336
894.064	21176
894.186	20910
894.308	20982
894.43	21081
894.552	21260
894.674	21108
894.796	20960
894.918	21005
895.04	20891
895.161	21085
895.283	21104
895.405	20986
895.526	21104
895.648	21009
895.769	21108
895.891	21013
896.012	21169
896.134	21001
896.255	21161
896.376	20918
896.498	21024
896.619	21043
896.74	20986
896.861	20982
896.982	21298
897.103	21553
897.224	21241
897.345	21245
897.466	21036
897.587	21161
897.708	21332
897.828	21214
897.949	21127
898.07	21005
898.19	21180
898.311	21264
898.431	21165
898.552	21157
898.672	21283
898.792	21275
898.913	21154
899.033	21058
899.153	20948
899.273	20800
899.393	20994
899.513	20944
899.633	20948
899.753	20918
899.873	20899
899.993	21009
900.113	20838
900.232	20994
900.352	20883
900.472	20712
900.591	20670
900.711	20754
900.83	20743
900.95	20792
901.069	20830
901.189	20659
901.308	20408
901.427	20351
901.546	20206
901.665	20248
901.784	20301
901.904	20145
902.023	19993
902.141	19925
902.26	19868
902.379	19845
902.498	19887
902.617	19784
902.735	19811
902.854	19666
902.973	19746
903.091	19441
903.21	19419
903.328	19308
903.446	19346
903.565	19301
903.683	19263
903.801	19080
903.919	19278
904.038	19198
904.156	19057
904.274	19065
904.392	18932
904.51	18985
904.627	19076
904.745	18996
904.863	19053
904.981	18779
905.098	18631
905.216	18696
905.334	18753
905.451	18684
905.569	18563
905.686	18730
905.803	18616
905.921	18372
906.038	18566
906.155	18536
906.272	18327
906.389	18456
906.506	18247
906.623	18178
906.74	18228
906.857	18110
906.974	17939
907.091	18311
907.208	18243
907.324	18285
907.441	18079
907.557	17999
907.674	17942
907.79	17946
907.907	17821
908.023	17942
908.139	17870
908.256	17923
908.372	17832
908.488	17798
908.604	17623
908.72	17608
908.836	17672
908.952	17577
909.068	17608
909.184	17676
909.3	17551
909.415	17623
909.531	17623
909.647	17368
909.762	17368
909.878	17299
909.993	17284
910.108	17246
910.224	17208
910.339	17318
910.454	17113
910.57	17067
910.685	16976
910.8	17254
910.915	17315
911.03	17102
911.145	16984
911.259	16923
911.374	16873
911.489	16793
911.604	16801
911.718	16733
911.833	16634
911.947	16584
912.062	16485
912.176	16615
912.291	16656
912.405	16615
912.519	16812
912.633	16763
912.748	16607
912.862	16459
912.976	16523
913.09	16390
913.204	16421
913.318	16508
913.431	16493
913.545	16493
913.659	16481
913.772	16428
913.886	16295
914	16344
914.113	16246
914.226	16219
914.34	16223
914.453	16158
914.566	16109
914.68	16051
914.793	16025
914.906	15926
915.019	15797
915.132	15831
915.245	15774
915.358	15812
915.47	15846
915.583	15857
915.696	15892
915.809	15892
915.921	15979
916.034	15717
916.146	15656
916.259	15701
916.371	15778
916.483	15705
916.595	15698
916.708	15648
916.82	15572
916.932	15641
917.044	15564
917.156	15485
917.268	15492
917.38	15511
917.491	15355
917.603	15389
917.715	15466
917.826	15469
917.938	15367
918.049	15336
918.161	15374
918.272	15416
918.384	15492
918.495	15511
918.606	15329
918.717	15184
918.828	15195
918.939	15287
919.05	15157
919.161	15180
919.272	15001
919.383	15070
919.494	15214
919.604	15321
919.715	15108
919.826	15036
919.936	15131
920.047	15184
920.157	15249
920.267	15199
920.378	15169
920.488	15116
920.598	15241
920.708	15557
920.818	15150
920.928	15222
921.038	15367
921.148	15515
921.258	15142
921.368	14986
921.477	14914
921.587	14883
921.697	14689
921.806	14823
921.916	14765
922.025	14617
922.134	14446
922.244	14385
922.353	14518
922.462	14434
922.571	14400
922.68	14176
922.789	14065
922.898	14157
923.007	14100
923.116	14088
923.224	14157
923.333	14073
923.442	13906
923.55	13940
923.659	13955
923.767	13963
923.876	13894
923.984	13955
924.092	13799
924.201	13909
924.309	13852
924.417	13883
924.525	13898
924.633	13731
924.741	14514
924.849	13548
924.956	13670
925.064	13468
925.172	13381
925.279	13495
925.387	13434
925.494	13575
925.602	13597
925.709	13605
925.816	13365
925.924	13457
926.031	13590
926.138	13438
926.245	13476
926.352	13354
926.459	13514
926.566	13548
926.673	13327
926.779	13289
926.886	13301
926.993	13091
927.099	13069
927.206	13027
927.312	12989
927.419	13076
927.525	13065
927.631	12981
927.737	12863
927.843	12951
927.95	12684
928.056	12882
928.162	12935
928.267	12875
928.373	13514
928.479	12871
928.585	12757
928.69	12837
928.796	12760
928.901	12768
929.007	12532
929.112	12722
929.218	12753
929.323	12593
929.428	12513
929.533	12753
929.638	12467
929.743	12506
929.848	12570
929.953	12578
930.058	12399
930.163	12209
930.267	12296
930.372	12376
930.477	12167
930.581	12551
930.685	12251
930.79	12213
930.894	12125
930.998	12041
931.103	12175
931.207	11866
931.311	11794
931.415	11661
931.519	11501
931.623	11436
