Data from test_V78500241_93.txt Node
Date: Fri Mar 25 15:42:26 CST 2022
User: usil
Spectrometer: V785-0024
Trigger mode: 0
Integration Time (sec): 4.000000E-1
Scans to average: 1
Nonlinearity correction enabled: false
Boxcar width: 0
Storing dark spectrum: false
XAxis mode: Wavelengths
Number of Pixels in Spectrum: 1024
>>>>>Begin Spectral Data<<<<<
801.071	29299
801.214	29474
801.356	29174
801.499	29064
801.641	28892
801.783	28968
801.926	29079
802.068	28812
802.211	28793
802.353	28790
802.496	28508
802.638	28565
802.78	28432
802.923	28417
803.065	28382
803.208	28474
803.35	28474
803.492	28649
803.635	28793
803.777	28493
803.919	28698
804.061	28984
804.204	28698
804.346	28485
804.488	28447
804.63	28535
804.773	28466
804.915	28546
805.057	28721
805.199	28497
805.341	28713
805.483	28630
805.626	28675
805.768	28527
805.91	28736
806.052	28744
806.194	28546
806.336	28831
806.478	28824
806.62	28672
806.762	28748
806.904	28797
807.046	29014
807.188	29075
807.33	29147
807.472	29041
807.614	28930
807.756	28972
807.898	28816
808.04	28820
808.182	28896
808.324	28980
808.465	29037
808.607	28927
808.749	29261
808.891	29296
809.033	29375
809.174	29254
809.316	29265
809.458	29204
809.6	29044
809.741	29311
809.883	29261
810.025	29368
810.166	29372
810.308	29383
810.45	29406
810.591	29299
810.733	29193
810.875	29090
811.016	29121
811.158	29037
811.299	29273
811.441	29391
811.582	29265
811.724	29098
811.865	28968
812.007	29052
812.148	29155
812.29	29284
812.431	29395
812.573	29509
812.714	29509
812.855	29737
812.997	29665
813.138	29767
813.279	29748
813.421	29649
813.562	29672
813.703	29299
813.845	29292
813.986	28984
814.127	28786
814.268	28721
814.41	28873
814.551	28786
814.692	28976
814.833	28790
814.974	28698
815.115	28793
815.256	28519
815.397	28493
815.539	28436
815.68	28443
815.821	28432
815.962	28356
816.103	28459
816.244	28276
816.385	28215
816.526	28143
816.666	28032
816.807	27854
816.948	28017
817.089	27888
817.23	27831
817.371	28029
817.512	27930
817.653	27717
817.793	27698
817.934	27850
818.075	27808
818.216	27842
818.356	27838
818.497	27633
818.638	27656
818.778	27454
818.919	27523
819.06	27576
819.2	27675
819.341	27637
819.481	27709
819.622	27846
819.762	28139
819.903	27968
820.043	27953
820.184	27884
820.324	27861
820.465	27827
820.605	27987
820.746	27865
820.886	27679
821.026	27671
821.167	27797
821.307	27770
821.447	27823
821.588	27637
821.728	27542
821.868	27275
822.008	27199
822.149	27157
822.289	27085
822.429	26796
822.569	27032
822.709	26727
822.849	26640
822.99	26682
823.13	26549
823.27	26552
823.41	26541
823.55	26377
823.69	26385
823.83	26419
823.97	26408
824.11	26191
824.25	26187
824.389	26294
824.529	26214
824.669	26183
824.809	26328
824.949	26278
825.089	26286
825.228	26267
825.368	26054
825.508	26016
825.648	26069
825.787	26119
825.927	26031
826.067	26073
826.206	25978
826.346	26088
826.485	26062
826.625	25982
826.765	26092
826.904	26100
827.044	25651
827.183	25696
827.323	25586
827.462	25674
827.601	25757
827.741	25670
827.88	25666
828.02	25601
828.159	25674
828.298	25757
828.437	25662
828.577	25502
828.716	25700
828.855	25552
828.994	25327
829.134	25419
829.273	25259
829.412	25422
829.551	25247
829.69	25289
829.829	25221
829.968	25373
830.107	25365
830.246	25289
830.385	25293
830.524	25228
830.663	25285
830.802	24913
830.941	24844
831.08	24814
831.219	24802
831.357	24848
831.496	25023
831.635	24760
831.774	24688
831.913	24932
832.051	24620
832.19	24604
832.329	24513
832.467	24521
832.606	24418
832.744	24464
832.883	24547
833.022	24410
833.16	24445
833.299	24570
833.437	24452
833.576	24475
833.714	24498
833.852	24467
833.991	24490
834.129	24661
834.267	24521
834.406	24483
834.544	24486
834.682	24460
834.821	24418
834.959	24654
835.097	24410
835.235	24505
835.373	24532
835.511	24448
835.65	24254
835.788	24292
835.926	24209
836.064	23965
836.202	24091
836.34	24273
836.478	24266
836.615	24167
836.753	24273
836.891	24361
837.029	24194
837.167	24235
837.305	24148
837.443	24190
837.58	24136
837.718	24148
837.856	24133
837.993	24049
838.131	24091
838.269	23939
838.406	24003
838.544	23965
838.681	23680
838.819	23604
838.956	23566
839.094	23471
839.231	23661
839.369	23653
839.506	23942
839.643	23805
839.781	23562
839.918	23440
840.055	23490
840.193	23356
840.33	23448
840.467	23471
840.604	23516
840.742	23562
840.879	23185
841.016	23398
841.153	23284
841.29	23452
841.427	23421
841.564	23455
841.701	23265
841.838	23185
841.975	23212
842.112	23162
842.249	23048
842.385	23083
842.522	23360
842.659	23193
842.796	23060
842.933	23025
843.069	22942
843.206	22942
843.343	23117
843.479	23071
843.616	23018
843.752	22725
843.889	22949
844.025	23044
844.162	22733
844.298	22927
844.435	22854
844.571	22809
844.708	22847
844.844	22911
844.98	22904
845.117	23018
845.253	22683
845.389	22538
845.525	22660
845.661	22618
845.798	22462
845.934	22569
846.07	22516
846.206	22489
846.342	22645
846.478	22451
846.614	22238
846.75	22219
846.886	22154
847.022	22287
847.158	22242
847.294	22109
847.429	22200
847.565	22093
847.701	22504
847.837	22021
847.972	21861
848.108	22029
848.244	22029
848.379	21812
848.515	21720
848.65	21778
848.786	21808
848.921	21736
849.057	21800
849.192	21884
849.328	21751
849.463	21949
849.598	21641
849.734	21720
849.869	21660
850.004	21496
850.14	21507
850.275	21496
850.41	21439
850.545	21428
850.68	21530
850.815	21481
850.95	21439
851.085	21610
851.22	21595
851.355	21530
851.49	21389
851.625	21412
851.76	21340
851.895	21382
852.03	21397
852.165	21424
852.299	21561
852.434	21603
852.569	21370
852.703	21355
852.838	21462
852.973	21610
853.107	21481
853.242	21355
853.376	21317
853.511	21260
853.645	21195
853.78	21336
853.914	21294
854.048	21252
854.183	21241
854.317	21237
854.451	21439
854.585	21302
854.72	21325
854.854	21359
854.988	21093
855.122	21195
855.256	21062
855.39	21268
855.524	21321
855.658	21211
855.792	21359
855.926	21211
856.06	21317
856.194	21230
856.327	21275
856.461	21135
856.595	21077
856.729	21321
856.862	21435
856.996	21176
857.13	21386
857.263	21332
857.397	21351
857.53	21214
857.664	21184
857.797	21302
857.931	21431
858.064	21226
858.197	21176
858.331	21173
858.464	21161
858.597	21039
858.731	21176
858.864	21192
858.997	21146
859.13	21230
859.263	21176
859.396	21264
859.529	21233
859.662	21119
859.795	21131
859.928	21112
860.061	21389
860.194	21173
860.327	21245
860.46	21135
860.592	21275
860.725	21294
860.858	21313
860.99	21154
861.123	21032
861.256	21119
861.388	21207
861.521	21599
861.653	21001
861.786	20960
861.918	21039
862.05	21081
862.183	21203
862.315	21313
862.447	21230
862.58	21207
862.712	20986
862.844	20902
862.976	21017
863.108	21009
863.24	21275
863.372	20876
863.504	20918
863.636	20979
863.768	20952
863.9	20788
864.032	20933
864.164	20838
864.296	20887
864.428	20948
864.559	20971
864.691	20891
864.823	20781
864.954	20750
865.086	20792
865.217	20758
865.349	20667
865.48	20746
865.612	20773
865.743	20868
865.875	20834
866.006	20819
866.137	20667
866.269	20640
866.4	20686
866.531	20617
866.662	20606
866.793	20670
866.924	20716
867.055	20720
867.186	20678
867.317	20735
867.448	20507
867.579	20621
867.71	20522
867.841	20693
867.972	20708
868.103	20689
868.233	20720
868.364	20632
868.495	20765
868.625	20883
868.756	21024
868.886	20762
869.017	20986
869.147	20963
869.278	20986
869.408	20921
869.539	20914
869.669	20979
869.799	20910
869.929	20944
870.06	20929
870.19	21241
870.32	21226
870.45	21180
870.58	21351
870.71	21450
870.84	21462
870.97	21355
871.1	21408
871.23	21382
871.36	21466
871.489	21428
871.619	21325
871.749	21450
871.879	21568
872.008	21686
872.138	21420
872.267	21568
872.397	21332
872.526	21344
872.656	21226
872.785	21348
872.915	21530
873.044	21496
873.173	21477
873.303	21496
873.432	21507
873.561	21603
873.69	21530
873.819	21500
873.948	21606
874.077	21511
874.206	21530
874.335	21576
874.464	21641
874.593	21652
874.722	21660
874.851	21918
874.979	21743
875.108	21831
875.237	21755
875.365	21682
875.494	21694
875.623	21831
875.751	21656
875.88	21781
876.008	21956
876.136	22017
876.265	22150
876.393	22314
876.521	22253
876.65	22360
876.778	22112
876.906	22284
877.034	22021
877.162	22097
877.29	22029
877.418	22150
877.546	22139
877.674	22086
877.802	22090
877.93	22105
878.058	22109
878.185	22017
878.313	21888
878.441	22048
878.568	21934
878.696	22101
878.824	21975
878.951	22204
879.079	22276
879.206	22436
879.333	22204
879.461	22124
879.588	22246
879.715	22284
879.842	22565
879.97	22120
880.097	21983
880.224	21827
880.351	21949
880.478	22013
880.605	21918
880.732	21987
880.859	22082
880.986	21873
881.112	21907
881.239	21835
881.366	21739
881.493	21614
881.619	21488
881.746	21515
881.872	21557
881.999	21610
882.125	21523
882.252	21515
882.378	21401
882.505	21603
882.631	21386
882.757	21249
882.883	21443
883.01	21313
883.136	21222
883.262	21108
883.388	21131
883.514	21150
883.64	21249
883.766	21188
883.892	21005
884.018	21138
884.143	21081
884.269	21401
884.395	21032
884.52	20883
884.646	20960
884.772	20823
884.897	20815
885.023	20929
885.148	20929
885.274	21123
885.399	21051
885.524	20838
885.65	20910
885.775	20868
885.9	20765
886.025	21028
886.15	20925
886.275	20739
886.4	20921
886.525	20807
886.65	20796
886.775	20792
886.9	20929
887.025	21070
887.149	20811
887.274	20492
887.399	20674
887.523	20594
887.648	20689
887.773	20522
887.897	20640
888.021	20602
888.146	20533
888.27	20708
888.395	20750
888.519	20724
888.643	20705
888.767	20644
888.891	20533
889.015	20404
889.139	20492
889.263	20442
889.387	20461
889.511	20606
889.635	20465
889.759	20457
889.883	20358
890.006	20469
890.13	20339
890.254	20286
890.377	20229
890.501	20096
890.624	20050
890.748	20214
890.871	20024
890.995	19868
891.118	19906
891.241	19868
891.364	20016
891.488	20039
891.611	20024
891.734	19963
891.857	20005
891.98	19887
892.103	20035
892.226	19944
892.349	19970
892.471	19803
892.594	19845
892.717	19883
892.839	19826
892.962	19959
893.085	19887
893.207	19769
893.33	19765
893.452	19753
893.575	19921
893.697	19875
893.819	20039
893.941	20039
894.064	19928
894.186	19833
894.308	19826
894.43	19974
894.552	20039
894.674	19906
894.796	19780
894.918	19852
895.04	19738
895.161	19921
895.283	20001
895.405	19772
895.526	19795
895.648	19860
895.769	19921
895.891	19963
896.012	20039
896.134	19917
896.255	19898
896.376	19944
896.498	19856
896.619	19936
896.74	20001
896.861	19982
896.982	20298
897.103	20442
897.224	20328
897.345	20126
897.466	20206
897.587	20092
897.708	20252
897.828	20161
897.949	20103
898.07	19906
898.19	20096
898.311	20294
898.431	20035
898.552	20176
898.672	20191
898.792	20046
898.913	20107
899.033	19894
899.153	19818
899.273	19738
899.393	19887
899.513	19719
899.633	19932
899.753	19811
899.873	19670
899.993	19799
900.113	19902
900.232	19826
900.352	19700
900.472	19670
900.591	19556
900.711	19590
900.83	19529
900.95	19689
901.069	19712
901.189	19670
901.308	19312
901.427	19129
901.546	19316
901.665	19297
901.784	19202
901.904	19027
902.023	19034
902.141	18749
902.26	18684
902.379	18760
902.498	18730
902.617	18673
902.735	18749
902.854	18616
902.973	18566
903.091	18528
903.21	18369
903.328	18296
903.446	18300
903.565	18121
903.683	18228
903.801	18083
903.919	18098
904.038	18022
904.156	17942
904.274	17931
904.392	17885
904.51	17866
904.627	17824
904.745	17935
904.863	17954
904.981	17729
905.098	17657
905.216	17646
905.334	17547
905.451	17524
905.569	17429
905.686	17634
905.803	17638
905.921	17307
906.038	17505
906.155	17395
906.272	17250
906.389	17311
906.506	17109
906.623	16961
906.74	17041
906.857	16991
906.974	16957
907.091	17147
907.208	17223
907.324	17159
907.441	17071
907.557	16843
907.674	16801
907.79	16721
907.907	16869
908.023	16805
908.139	16611
908.256	16717
908.372	16660
908.488	16596
908.604	16470
908.72	16508
908.836	16485
908.952	16440
909.068	16573
909.184	16535
909.3	16500
909.415	16489
909.531	16485
909.647	16265
909.762	16131
909.878	16192
909.993	16181
910.108	16185
910.224	16162
910.339	16120
910.454	16109
910.57	15994
910.685	15911
910.8	16261
910.915	16044
911.03	15884
911.145	15743
911.259	15720
911.374	15701
911.489	15641
911.604	15561
911.718	15534
911.833	15618
911.947	15428
912.062	15344
912.176	15614
912.291	15572
912.405	15538
912.519	15717
912.633	15671
912.748	15625
912.862	15435
912.976	15306
913.09	15249
913.204	15188
913.318	15268
913.431	15481
913.545	15382
913.659	15306
913.772	15218
913.886	15123
914	15058
914.113	15199
914.226	15264
914.34	15108
914.453	14887
914.566	15199
914.68	15028
914.793	15009
914.906	14830
915.019	14651
915.132	14613
915.245	14735
915.358	14765
915.47	14746
915.583	14746
915.696	14720
915.809	14853
915.921	14842
916.034	14705
916.146	14640
916.259	14545
916.371	14727
916.483	14754
916.595	14488
916.708	14507
916.82	14537
916.932	14461
917.044	14511
917.156	14419
917.268	14438
917.38	14514
917.491	14374
917.603	14336
917.715	14480
917.826	14423
917.938	14339
918.049	14218
918.161	14385
918.272	14446
918.384	14469
918.495	14271
918.606	14267
918.717	14062
918.828	14199
918.939	14183
919.05	14092
919.161	14164
919.272	13947
919.383	13909
919.494	14096
919.604	14309
919.715	14084
919.826	14035
919.936	14043
920.047	14172
920.157	14100
920.267	14259
920.378	14016
920.488	14062
920.598	14244
920.708	14362
920.818	14164
920.928	14237
921.038	14415
921.148	14317
921.258	14088
921.368	13860
921.477	13845
921.587	13655
921.697	13712
921.806	13841
921.916	13734
922.025	13540
922.134	13476
922.244	13392
922.353	13510
922.462	13335
922.571	13304
922.68	13110
922.789	13145
922.898	13118
923.007	13072
923.116	13133
923.224	13034
923.333	12996
923.442	12886
923.55	12928
923.659	12962
923.767	13000
923.876	12795
923.984	12973
924.092	12810
924.201	12951
924.309	12798
924.417	12757
924.525	12791
924.633	12825
924.741	13502
924.849	12574
924.956	12665
925.064	12540
925.172	12471
925.279	12422
925.387	12525
925.494	12479
925.602	12631
925.709	12563
925.816	12429
925.924	12502
926.031	12665
926.138	12464
926.245	12445
926.352	12418
926.459	12525
926.566	12486
926.673	12452
926.779	12251
926.886	12311
926.993	12095
927.099	12083
927.206	12019
927.312	11992
927.419	12106
927.525	12057
927.631	12087
927.737	12015
927.843	11931
927.95	11920
928.056	11977
928.162	11897
928.267	11961
928.373	12559
928.479	12064
928.585	11752
928.69	11923
928.796	11870
928.901	11786
929.007	11619
929.112	11691
929.218	11691
929.323	11707
929.428	11596
929.533	11745
929.638	11615
929.743	11623
929.848	11684
929.953	11528
930.058	11493
930.163	11318
930.267	11429
930.372	11505
930.477	11246
930.581	11516
930.685	11379
930.79	11334
930.894	11288
930.998	11189
931.103	11356
931.207	10968
931.311	10946
931.415	10820
931.519	10660
931.623	10618
