Data from test_V78500241_1967.txt Node
Date: Fri Mar 25 15:55:25 CST 2022
User: usil
Spectrometer: V785-0024
Trigger mode: 0
Integration Time (sec): 4.000000E-1
Scans to average: 1
Nonlinearity correction enabled: false
Boxcar width: 0
Storing dark spectrum: false
XAxis mode: Wavelengths
Number of Pixels in Spectrum: 1024
>>>>>Begin Spectral Data<<<<<
801.071	28531
801.214	28592
801.356	28485
801.499	28329
801.641	28272
801.783	28090
801.926	28325
802.068	28226
802.211	28112
802.353	28074
802.496	27914
802.638	28032
802.78	27914
802.923	27873
803.065	27751
803.208	27751
803.35	28036
803.492	28135
803.635	28219
803.777	28200
803.919	28154
804.061	28421
804.204	28166
804.346	28135
804.488	28040
804.63	28291
804.773	28120
804.915	28109
805.057	28223
805.199	28284
805.341	28238
805.483	28386
805.626	28401
805.768	28204
805.91	28401
806.052	28318
806.194	28242
806.336	28546
806.478	28265
806.62	28493
806.762	28459
806.904	28668
807.046	28873
807.188	28702
807.33	28873
807.472	28805
807.614	28854
807.756	28774
807.898	28641
808.04	28622
808.182	28702
808.324	28615
808.465	28828
808.607	28809
808.749	28968
808.891	29121
809.033	29109
809.174	29044
809.316	29044
809.458	29155
809.6	28965
809.741	29067
809.883	29254
810.025	29200
810.166	29246
810.308	29337
810.45	29223
810.591	29277
810.733	29105
810.875	29025
811.016	28888
811.158	28965
811.299	29109
811.441	29113
811.582	29178
811.724	28980
811.865	29098
812.007	29033
812.148	28999
812.29	29083
812.431	29326
812.573	29391
812.714	29318
812.855	29524
812.997	29695
813.138	29764
813.279	29710
813.421	29684
813.562	29497
813.703	29265
813.845	29265
813.986	28972
814.127	28797
814.268	28778
814.41	28847
814.551	28630
814.692	28706
814.833	28645
814.974	28660
815.115	28748
815.256	28557
815.397	28592
815.539	28660
815.68	28519
815.821	28557
815.962	28535
816.103	28691
816.244	28432
816.385	28284
816.526	28329
816.666	28215
816.807	28124
816.948	28200
817.089	28090
817.23	27983
817.371	27998
817.512	27911
817.653	28082
817.793	27880
817.934	28101
818.075	27998
818.216	27972
818.356	28040
818.497	27937
818.638	27770
818.778	27705
818.919	27964
819.06	27975
819.2	27956
819.341	27956
819.481	28097
819.622	28284
819.762	28249
819.903	28421
820.043	28257
820.184	28295
820.324	28150
820.465	28234
820.605	28223
820.746	28051
820.886	28192
821.026	28158
821.167	28051
821.307	28200
821.447	28196
821.588	28139
821.728	27899
821.868	27831
822.008	27564
822.149	27496
822.289	27557
822.429	27340
822.569	27180
822.709	27180
822.849	27074
822.99	27066
823.13	27043
823.27	27020
823.41	26849
823.55	26765
823.69	26872
823.83	26864
823.97	26906
824.11	26613
824.25	26773
824.389	26651
824.529	26845
824.669	26686
824.809	26849
824.949	26910
825.089	26667
825.228	26731
825.368	26640
825.508	26682
825.648	26590
825.787	26568
825.927	26655
826.067	26526
826.206	26727
826.346	26640
826.485	26773
826.625	26537
826.765	26674
826.904	26609
827.044	26320
827.183	26282
827.323	26294
827.462	26404
827.601	26309
827.741	26339
827.88	26332
828.02	26263
828.159	26233
828.298	26446
828.437	26351
828.577	26214
828.716	26404
828.855	26191
828.994	26050
829.134	26027
829.273	26012
829.412	25982
829.551	26024
829.69	26012
829.829	26035
829.968	26157
830.107	26119
830.246	25993
830.385	25856
830.524	25928
830.663	25864
830.802	25769
830.941	25674
831.08	25479
831.219	25696
831.357	25738
831.496	25864
831.635	25624
831.774	25601
831.913	25594
832.051	25350
832.19	25358
832.329	25510
832.467	25400
832.606	25213
832.744	25228
832.883	25217
833.022	25255
833.16	25209
833.299	25324
833.437	25266
833.576	25358
833.714	25301
833.852	25392
833.991	25365
834.129	25430
834.267	25499
834.406	25209
834.544	25297
834.682	25297
834.821	25285
834.959	25495
835.097	25244
835.235	25350
835.373	25365
835.511	25263
835.65	25095
835.788	25213
835.926	25107
836.064	24901
836.202	24992
836.34	25107
836.478	25209
836.615	25194
836.753	25190
836.891	25110
837.029	25293
837.167	25061
837.305	25156
837.443	24981
837.58	24992
837.718	25072
837.856	25023
837.993	24932
838.131	24951
838.269	24905
838.406	24749
838.544	24757
838.681	24859
838.819	24578
838.956	24418
839.094	24433
839.231	24490
839.369	24620
839.506	24798
839.643	24681
839.781	24502
839.918	24365
840.055	24513
840.193	24376
840.33	24300
840.467	24315
840.604	24483
840.742	24783
840.879	24254
841.016	24410
841.153	24190
841.29	24448
841.427	24289
841.564	24388
841.701	24266
841.838	24277
841.975	24201
842.112	24281
842.249	24190
842.385	24174
842.522	24323
842.659	24133
842.796	24186
842.933	24190
843.069	24049
843.206	24018
843.343	24095
843.479	24144
843.616	24030
843.752	23885
843.889	23882
844.025	24064
844.162	23931
844.298	23988
844.435	23832
844.571	23745
844.708	23954
844.844	24064
844.98	23912
845.117	24007
845.253	23847
845.389	23741
845.525	23710
845.661	23619
845.798	23649
845.934	23676
846.07	23627
846.206	23672
846.342	23726
846.478	23486
846.614	23459
846.75	23277
846.886	23406
847.022	23318
847.158	23406
847.294	23406
847.429	23455
847.565	23402
847.701	23646
847.837	23105
847.972	23174
848.108	23227
848.244	23151
848.379	23067
848.515	22896
848.65	22934
848.786	22915
848.921	22953
849.057	23105
849.192	22927
849.328	22999
849.463	22942
849.598	22801
849.734	22809
849.869	22721
850.004	22611
850.14	22725
850.275	22706
850.41	22580
850.545	22584
850.68	22485
850.815	22733
850.95	22774
851.085	22809
851.22	22828
851.355	22683
851.49	22790
851.625	22611
851.76	22786
851.895	22478
852.03	22512
852.165	22675
852.299	22729
852.434	22713
852.569	22752
852.703	22710
852.838	22763
852.973	22717
853.107	22812
853.242	22645
853.376	22557
853.511	22542
853.645	22421
853.78	22729
853.914	22527
854.048	22409
854.183	22557
854.317	22535
854.451	22618
854.585	22546
854.72	22493
854.854	22535
854.988	22356
855.122	22535
855.256	22447
855.39	22470
855.524	22611
855.658	22497
855.792	22310
855.926	22531
856.06	22637
856.194	22630
856.327	22337
856.461	22580
856.595	22493
856.729	22455
856.862	22622
856.996	22615
857.13	22679
857.263	22527
857.397	22668
857.53	22493
857.664	22527
857.797	22459
857.931	22485
858.064	22474
858.197	22535
858.331	22519
858.464	22443
858.597	22306
858.731	22466
858.864	22569
858.997	22478
859.13	22478
859.263	22500
859.396	22603
859.529	22519
859.662	22341
859.795	22478
859.928	22432
860.061	22588
860.194	22649
860.327	22603
860.46	22489
860.592	22542
860.725	22759
860.858	22546
860.99	22451
861.123	22325
861.256	22432
861.388	22508
861.521	23265
861.653	22200
861.786	22284
861.918	22295
862.05	22367
862.183	22356
862.315	22314
862.447	22512
862.58	22386
862.712	22299
862.844	22059
862.976	22261
863.108	22276
863.24	22744
863.372	22150
863.504	22268
863.636	22295
863.768	22139
863.9	22124
864.032	22166
864.164	22169
864.296	22230
864.428	22215
864.559	22295
864.691	22246
864.823	22166
864.954	22276
865.086	22154
865.217	22169
865.349	22044
865.48	22025
865.612	21994
865.743	22169
865.875	22128
866.006	22040
866.137	22135
866.269	22048
866.4	21983
866.531	22002
866.662	21926
866.793	21994
866.924	21941
867.055	21937
867.186	22048
867.317	21915
867.448	21911
867.579	21873
867.71	21838
867.841	21918
867.972	22006
868.103	21922
868.233	21987
868.364	22059
868.495	22067
868.625	22314
868.756	22322
868.886	22166
869.017	22242
869.147	22314
869.278	22424
869.408	22322
869.539	22242
869.669	22375
869.799	22211
869.929	22413
870.06	22325
870.19	22713
870.32	22569
870.45	22592
870.58	22523
870.71	22656
870.84	22801
870.97	22580
871.1	22611
871.23	22847
871.36	22858
871.489	22679
871.619	22828
871.749	22763
871.879	22847
872.008	22934
872.138	22919
872.267	22946
872.397	22668
872.526	22694
872.656	22736
872.785	22618
872.915	22881
873.044	22999
873.173	22915
873.303	22873
873.432	22873
873.561	22862
873.69	22835
873.819	22816
873.948	22949
874.077	22854
874.206	22767
874.335	22908
874.464	22873
874.593	23155
874.722	23086
874.851	23083
874.979	22984
875.108	23159
875.237	23181
875.365	22976
875.494	22938
875.623	23121
875.751	22896
875.88	23067
876.008	23151
876.136	23269
876.265	23440
876.393	23535
876.521	23512
876.65	23417
876.778	23414
876.906	23444
877.034	23254
877.162	23459
877.29	23292
877.418	23474
877.546	23528
877.674	23303
877.802	23429
877.93	23433
878.058	23315
878.185	23277
878.313	23349
878.441	23387
878.568	23113
878.696	23307
878.824	23387
878.951	23482
879.079	23661
879.206	23619
879.333	23604
879.461	23436
879.588	23509
879.715	23570
879.842	23691
879.97	23448
880.097	23223
880.224	23288
880.351	23273
880.478	23269
880.605	23246
880.732	23235
880.859	23372
880.986	23273
881.112	23056
881.239	23132
881.366	22812
881.493	22885
881.619	22782
881.746	22759
881.872	22953
881.999	22740
882.125	22687
882.252	22820
882.378	22725
882.505	22889
882.631	22634
882.757	22577
882.883	22489
883.01	22512
883.136	22363
883.262	22379
883.388	22299
883.514	22451
883.64	22363
883.766	22432
883.892	22185
884.018	22348
884.143	22459
884.269	22382
884.395	22093
884.52	22074
884.646	22143
884.772	22051
884.897	22036
885.023	22166
885.148	22226
885.274	22226
885.399	22188
885.524	21956
885.65	22074
885.775	22143
885.9	22093
886.025	22219
886.15	22162
886.275	22032
886.4	22082
886.525	22032
886.65	21922
886.775	21956
886.9	22044
887.025	22166
887.149	22131
887.274	21918
887.399	21953
887.523	21892
887.648	21770
887.773	21793
887.897	21797
888.021	21861
888.146	21823
888.27	21903
888.395	22002
888.519	21899
888.643	21789
888.767	21827
888.891	21888
889.015	21580
889.139	21637
889.263	21660
889.387	21713
889.511	21842
889.635	21789
889.759	21614
889.883	21698
890.006	21538
890.13	21690
890.254	21629
890.377	21538
890.501	21428
890.624	21370
890.748	21397
890.871	21306
890.995	21192
891.118	21135
891.241	21192
891.364	21294
891.488	21226
891.611	21279
891.734	21142
891.857	21294
891.98	21249
892.103	21237
892.226	21203
892.349	21150
892.471	20921
892.594	21047
892.717	21146
892.839	21047
892.962	20948
893.085	21188
893.207	20986
893.33	20952
893.452	20941
893.575	21058
893.697	20956
893.819	21260
893.941	21363
894.064	21241
894.186	21047
894.308	20994
894.43	21127
894.552	21180
894.674	21127
894.796	20944
894.918	20982
895.04	21013
895.161	21112
895.283	20902
895.405	20937
895.526	21108
895.648	21020
895.769	21039
895.891	21032
896.012	21051
896.134	21108
896.255	21036
896.376	21051
896.498	21112
896.619	21089
896.74	20971
896.861	21203
896.982	21439
897.103	21530
897.224	21378
897.345	21180
897.466	21161
897.587	21291
897.708	21462
897.828	21256
897.949	21214
898.07	21123
898.19	21294
898.311	21374
898.431	21169
898.552	21249
898.672	21329
898.792	21275
898.913	21260
899.033	21112
899.153	20956
899.273	21017
899.393	20891
899.513	20986
899.633	20998
899.753	21062
899.873	20918
899.993	20960
900.113	20895
900.232	20960
900.352	20864
900.472	20861
900.591	20735
900.711	20777
900.83	20712
900.95	20819
901.069	20788
901.189	20564
901.308	20469
901.427	20366
901.546	20313
901.665	20328
901.784	20332
901.904	20100
902.023	20096
902.141	19879
902.26	19917
902.379	19997
902.498	19864
902.617	19818
902.735	19887
902.854	19780
902.973	19715
903.091	19521
903.21	19556
903.328	19392
903.446	19483
903.565	19247
903.683	19388
903.801	19255
903.919	19278
904.038	19187
904.156	19000
904.274	19080
904.392	19008
904.51	18993
904.627	18844
904.745	19080
904.863	19065
904.981	18897
905.098	18726
905.216	18749
905.334	18764
905.451	18707
905.569	18791
905.686	18798
905.803	18719
905.921	18506
906.038	18506
906.155	18403
906.272	18410
906.389	18338
906.506	18213
906.623	18163
906.74	18304
906.857	18125
906.974	18144
907.091	18163
907.208	18410
907.324	18209
907.441	18068
907.557	18015
907.674	17996
907.79	17843
907.907	17897
908.023	17939
908.139	18019
908.256	17779
908.372	17707
908.488	17847
908.604	17729
908.72	17570
908.836	17672
908.952	17657
909.068	17600
909.184	17783
909.3	17551
909.415	17619
909.531	17699
909.647	17280
909.762	17296
909.878	17368
909.993	17231
910.108	17258
910.224	17246
910.339	17406
910.454	17250
910.57	17193
910.685	17067
910.8	17326
910.915	17280
911.03	17140
911.145	17041
911.259	16980
911.374	16991
911.489	16885
911.604	16850
911.718	16592
911.833	16668
911.947	16664
912.062	16519
912.176	16717
912.291	16740
912.405	16710
912.519	16862
912.633	16774
912.748	16694
912.862	16672
912.976	16462
913.09	16371
913.204	16531
913.318	16478
913.431	16554
913.545	16622
913.659	16516
913.772	16417
913.886	16257
914	16310
914.113	16474
914.226	16261
914.34	16318
914.453	16147
914.566	16329
914.68	16185
914.793	16116
914.906	15823
915.019	15930
915.132	15816
915.245	15876
915.358	15911
915.47	15812
915.583	15850
915.696	15892
915.809	15972
915.921	16010
916.034	15800
916.146	15652
916.259	15842
916.371	15857
916.483	15717
916.595	15580
916.708	15698
916.82	15660
916.932	15641
917.044	15580
917.156	15447
917.268	15450
917.38	15462
917.491	15504
917.603	15431
917.715	15542
917.826	15443
917.938	15359
918.049	15283
918.161	15382
918.272	15599
918.384	15496
918.495	15382
918.606	15203
918.717	15157
918.828	15150
918.939	15272
919.05	15058
919.161	15173
919.272	15024
919.383	15036
919.494	15264
919.604	15321
919.715	15184
919.826	15093
919.936	15097
920.047	15237
920.157	15112
920.267	15370
920.378	15260
920.488	15036
920.598	15374
920.708	15466
920.818	15355
920.928	15264
921.038	15469
921.148	15466
921.258	15070
921.368	15001
921.477	14845
921.587	14861
921.697	14815
921.806	14792
921.916	14781
922.025	14514
922.134	14488
922.244	14381
922.353	14621
922.462	14313
922.571	14385
922.68	14172
922.789	14134
922.898	14130
923.007	14062
923.116	14237
923.224	14134
923.333	14107
923.442	14046
923.55	13986
923.659	13947
923.767	14046
923.876	13967
923.984	14073
924.092	13913
924.201	13986
924.309	13925
924.417	13887
924.525	13807
924.633	13822
924.741	14773
924.849	13643
924.956	13765
925.064	13616
925.172	13537
925.279	13601
925.387	13480
925.494	13548
925.602	13639
925.709	13662
925.816	13499
925.924	13472
926.031	13620
926.138	13449
926.245	13594
926.352	13308
926.459	13419
926.566	13506
926.673	13377
926.779	13308
926.886	13316
926.993	13076
927.099	13129
927.206	12996
927.312	13072
927.419	13152
927.525	13110
927.631	13168
927.737	12935
927.843	12913
927.95	12837
928.056	12878
928.162	12951
928.267	12996
928.373	13521
928.479	13000
928.585	12677
928.69	12825
928.796	12890
928.901	12745
929.007	12650
929.112	12814
929.218	12764
929.323	12616
929.428	12570
929.533	12776
929.638	12521
929.743	12551
929.848	12616
929.953	12585
930.058	12388
930.163	12209
930.267	12277
930.372	12410
930.477	12163
930.581	12521
930.685	12357
930.79	12087
930.894	12197
930.998	12087
931.103	12232
931.207	11870
931.311	11920
931.415	11760
931.519	11547
931.623	11543
