Data from test_V78500241_2893.txt Node
Date: Fri Mar 25 16:01:50 CST 2022
User: usil
Spectrometer: V785-0024
Trigger mode: 0
Integration Time (sec): 4.000000E-1
Scans to average: 1
Nonlinearity correction enabled: false
Boxcar width: 0
Storing dark spectrum: false
XAxis mode: Wavelengths
Number of Pixels in Spectrum: 1024
>>>>>Begin Spectral Data<<<<<
801.071	28771
801.214	28797
801.356	28565
801.499	28462
801.641	28592
801.783	28436
801.926	28329
802.068	28379
802.211	28421
802.353	28291
802.496	28196
802.638	28093
802.78	28112
802.923	28029
803.065	27941
803.208	28006
803.35	28154
803.492	28242
803.635	28356
803.777	28112
803.919	28398
804.061	28691
804.204	28432
804.346	28204
804.488	28284
804.63	28128
804.773	28344
804.915	28379
805.057	28497
805.199	28352
805.341	28360
805.483	28497
805.626	28318
805.768	28382
805.91	28466
806.052	28527
806.194	28470
806.336	28573
806.478	28531
806.62	28500
806.762	28565
806.904	28653
807.046	28965
807.188	28831
807.33	29014
807.472	28915
807.614	28915
807.756	28892
807.898	28694
808.04	28744
808.182	28694
808.324	28858
808.465	28839
808.607	29250
808.749	29170
808.891	29193
809.033	29364
809.174	29200
809.316	29109
809.458	29174
809.6	29113
809.741	29337
809.883	29292
810.025	29497
810.166	29429
810.308	29444
810.45	29368
810.591	29307
810.733	29083
810.875	29151
811.016	29121
811.158	29220
811.299	29375
811.441	29307
811.582	29467
811.724	29235
811.865	29166
812.007	29269
812.148	29090
812.29	29334
812.431	29356
812.573	29585
812.714	29642
812.855	29661
812.997	29779
813.138	29904
813.279	29817
813.421	29756
813.562	29638
813.703	29592
813.845	29505
813.986	29159
814.127	29109
814.268	28850
814.41	28858
814.551	28755
814.692	28805
814.833	28854
814.974	28771
815.115	28953
815.256	28828
815.397	28710
815.539	28641
815.68	28786
815.821	28557
815.962	28797
816.103	28675
816.244	28554
816.385	28535
816.526	28432
816.666	28401
816.807	28124
816.948	28314
817.089	28497
817.23	28211
817.371	28185
817.512	28280
817.653	28211
817.793	28097
817.934	28143
818.075	28074
818.216	28150
818.356	28185
818.497	28143
818.638	28051
818.778	27960
818.919	27941
819.06	28048
819.2	28021
819.341	28196
819.481	28211
819.622	28455
819.762	28516
819.903	28447
820.043	28519
820.184	28287
820.324	28303
820.465	28356
820.605	28295
820.746	28291
820.886	28192
821.026	28223
821.167	28295
821.307	28219
821.447	28101
821.588	28226
821.728	28025
821.868	27797
822.008	27732
822.149	27614
822.289	27587
822.429	27382
822.569	27427
822.709	27473
822.849	27272
822.99	27024
823.13	27283
823.27	27169
823.41	27020
823.55	26872
823.69	26979
823.83	26902
823.97	27077
824.11	26720
824.25	26701
824.389	26758
824.529	26887
824.669	26918
824.809	26933
824.949	26933
825.089	27028
825.228	26762
825.368	26800
825.508	26705
825.648	26663
825.787	26743
825.927	26762
826.067	26724
826.206	26918
826.346	26606
826.485	26857
826.625	26887
826.765	26872
826.904	26785
827.044	26484
827.183	26446
827.323	26484
827.462	26476
827.601	26530
827.741	26415
827.88	26423
828.02	26362
828.159	26469
828.298	26484
828.437	26530
828.577	26320
828.716	26587
828.855	26229
828.994	26084
829.134	26107
829.273	26149
829.412	26081
829.551	26092
829.69	26122
829.829	26073
829.968	26248
830.107	26176
830.246	26069
830.385	26035
830.524	26073
830.663	25963
830.802	25791
830.941	25731
831.08	25689
831.219	25750
831.357	25917
831.496	25845
831.635	25814
831.774	25674
831.913	25620
832.051	25453
832.19	25571
832.329	25510
832.467	25400
832.606	25499
832.744	25301
832.883	25331
833.022	25350
833.16	25434
833.299	25339
833.437	25483
833.576	25419
833.714	25422
833.852	25487
833.991	25499
834.129	25552
834.267	25575
834.406	25445
834.544	25575
834.682	25472
834.821	25575
834.959	25567
835.097	25381
835.235	25552
835.373	25499
835.511	25514
835.65	25407
835.788	25225
835.926	25152
836.064	25152
836.202	25274
836.34	25354
836.478	25373
836.615	25221
836.753	25422
836.891	25285
837.029	25282
837.167	25251
837.305	25103
837.443	25069
837.58	25114
837.718	25171
837.856	25110
837.993	24985
838.131	25065
838.269	24935
838.406	25065
838.544	24924
838.681	24776
838.819	24597
838.956	24505
839.094	24521
839.231	24612
839.369	24886
839.506	25012
839.643	24840
839.781	24635
839.918	24536
840.055	24582
840.193	24448
840.33	24532
840.467	24486
840.604	24509
840.742	24665
840.879	24361
841.016	24559
841.153	24460
841.29	24665
841.427	24369
841.564	24460
841.701	24490
841.838	24490
841.975	24350
842.112	24330
842.249	24380
842.385	24258
842.522	24467
842.659	24429
842.796	24292
842.933	24087
843.069	24152
843.206	24171
843.343	24357
843.479	24209
843.616	24239
843.752	24083
843.889	24072
844.025	24174
844.162	23992
844.298	24011
844.435	24011
844.571	24022
844.708	24136
844.844	24209
844.98	24083
845.117	24186
845.253	23958
845.389	23828
845.525	23863
845.661	23832
845.798	23798
845.934	23885
846.07	23665
846.206	23779
846.342	23802
846.478	23741
846.614	23642
846.75	23360
846.886	23391
847.022	23512
847.158	23368
847.294	23486
847.429	23535
847.565	23448
847.701	23619
847.837	23239
847.972	23147
848.108	23265
848.244	23174
848.379	23143
848.515	23060
848.65	22980
848.786	23014
848.921	23025
849.057	23197
849.192	23155
849.328	23044
849.463	23140
849.598	23086
849.734	22843
849.869	22927
850.004	22805
850.14	22828
850.275	22839
850.41	22691
850.545	22679
850.68	22710
850.815	22961
850.95	22839
851.085	22965
851.22	22968
851.355	22900
851.49	22759
851.625	22752
851.76	22755
851.895	22820
852.03	22733
852.165	22774
852.299	22847
852.434	22923
852.569	22801
852.703	22809
852.838	22889
852.973	22850
853.107	22927
853.242	22816
853.376	22759
853.511	22546
853.645	22573
853.78	22698
853.914	22786
854.048	22500
854.183	22588
854.317	22592
854.451	22987
854.585	22573
854.72	22607
854.854	22717
854.988	22588
855.122	22584
855.256	22512
855.39	22622
855.524	22809
855.658	22641
855.792	22668
855.926	22752
856.06	22733
856.194	22683
856.327	22630
856.461	22561
856.595	22523
856.729	22740
856.862	22767
856.996	22740
857.13	22733
857.263	22816
857.397	22786
857.53	22599
857.664	22630
857.797	22683
857.931	22721
858.064	22672
858.197	22816
858.331	22687
858.464	22637
858.597	22588
858.731	22615
858.864	22634
858.997	22637
859.13	22713
859.263	22611
859.396	22721
859.529	22622
859.662	22660
859.795	22649
859.928	22672
860.061	22771
860.194	22900
860.327	22675
860.46	22778
860.592	22862
860.725	22809
860.858	22778
860.99	22615
861.123	22660
861.256	22550
861.388	22634
861.521	23376
861.653	22577
861.786	22470
861.918	22443
862.05	22550
862.183	22546
862.315	22630
862.447	22645
862.58	22523
862.712	22413
862.844	22394
862.976	22348
863.108	22508
863.24	22839
863.372	22318
863.504	22405
863.636	22394
863.768	22447
863.9	22367
864.032	22287
864.164	22363
864.296	22299
864.428	22500
864.559	22386
864.691	22379
864.823	22428
864.954	22337
865.086	22413
865.217	22207
865.349	22158
865.48	22147
865.612	22242
865.743	22394
865.875	22257
866.006	22181
866.137	22242
866.269	22188
866.4	22234
866.531	22200
866.662	22101
866.793	22234
866.924	22226
867.055	22124
867.186	22169
867.317	22124
867.448	22101
867.579	22139
867.71	21994
867.841	22169
867.972	22211
868.103	22173
868.233	22143
868.364	22112
868.495	22246
868.625	22485
868.756	22519
868.886	22402
869.017	22451
869.147	22478
869.278	22569
869.408	22516
869.539	22440
869.669	22466
869.799	22402
869.929	22470
870.06	22462
870.19	22763
870.32	22748
870.45	22778
870.58	22862
870.71	22915
870.84	22923
870.97	22771
871.1	22854
871.23	22946
871.36	23003
871.489	22957
871.619	22892
871.749	23064
871.879	23010
872.008	23048
872.138	22968
872.267	23083
872.397	22869
872.526	22885
872.656	22866
872.785	22790
872.915	22987
873.044	23094
873.173	22976
873.303	23044
873.432	23124
873.561	23231
873.69	22957
873.819	22991
873.948	23064
874.077	23079
874.206	23037
874.335	22961
874.464	23197
874.593	23288
874.722	23181
874.851	23162
874.979	23227
875.108	23417
875.237	23212
875.365	23265
875.494	23136
875.623	23212
875.751	23254
875.88	23250
876.008	23410
876.136	23444
876.265	23657
876.393	23760
876.521	23676
876.65	23627
876.778	23566
876.906	23627
877.034	23573
877.162	23604
877.29	23676
877.418	23516
877.546	23608
877.674	23608
877.802	23608
877.93	23554
878.058	23539
878.185	23448
878.313	23478
878.441	23448
878.568	23349
878.696	23402
878.824	23581
878.951	23642
879.079	23805
879.206	23809
879.333	23668
879.461	23585
879.588	23821
879.715	23722
879.842	23707
879.97	23684
880.097	23372
880.224	23315
880.351	23341
880.478	23364
880.605	23315
880.732	23360
880.859	23611
880.986	23452
881.112	23471
881.239	23265
881.366	22984
881.493	23037
881.619	22930
881.746	22984
881.872	23025
881.999	22911
882.125	22915
882.252	23079
882.378	22942
882.505	22961
882.631	22820
882.757	22786
882.883	22748
883.01	22653
883.136	22615
883.262	22512
883.388	22485
883.514	22531
883.64	22618
883.766	22474
883.892	22341
884.018	22405
884.143	22523
884.269	22618
884.395	22394
884.52	22261
884.646	22287
884.772	22147
884.897	22200
885.023	22356
885.148	22333
885.274	22261
885.399	22428
885.524	22325
885.65	22204
885.775	22318
885.9	22139
886.025	22333
886.15	22474
886.275	22200
886.4	22124
886.525	22295
886.65	22097
886.775	22238
886.9	22390
887.025	22451
887.149	22265
887.274	22093
887.399	22006
887.523	21937
887.648	21922
887.773	21899
887.897	22150
888.021	22036
888.146	21903
888.27	22048
888.395	21922
888.519	22040
888.643	22013
888.767	22143
888.891	21937
889.015	21793
889.139	21892
889.263	21831
889.387	21850
889.511	22055
889.635	21850
889.759	21865
889.883	21728
890.006	21838
890.13	21865
890.254	21743
890.377	21736
890.501	21660
890.624	21511
890.748	21618
890.871	21466
890.995	21450
891.118	21382
891.241	21507
891.364	21378
891.488	21511
891.611	21332
891.734	21355
891.857	21462
891.98	21340
892.103	21401
892.226	21173
892.349	21310
892.471	21131
892.594	21310
892.717	21336
892.839	21260
892.962	21195
893.085	21344
893.207	21138
893.33	21070
893.452	21051
893.575	21310
893.697	21222
893.819	21370
893.941	21428
894.064	21382
894.186	21146
894.308	21207
894.43	21218
894.552	21298
894.674	21329
894.796	21047
894.918	21237
895.04	21241
895.161	21287
895.283	21279
895.405	21077
895.526	21230
895.648	21154
895.769	21211
895.891	21260
896.012	21233
896.134	21142
896.255	21241
896.376	21184
896.498	21211
896.619	21313
896.74	21161
896.861	21214
896.982	21576
897.103	21656
897.224	21542
897.345	21469
897.466	21279
897.587	21447
897.708	21564
897.828	21355
897.949	21530
898.07	21165
898.19	21420
898.311	21405
898.431	21344
898.552	21222
898.672	21492
898.792	21450
898.913	21447
899.033	21397
899.153	21138
899.273	21230
899.393	21119
899.513	21192
899.633	21074
899.753	21249
899.873	21058
899.993	21184
900.113	21032
900.232	21192
900.352	21043
900.472	20990
900.591	20914
900.711	21005
900.83	20891
900.95	20925
901.069	21135
901.189	20716
901.308	20636
901.427	20427
901.546	20560
901.665	20366
901.784	20400
901.904	20328
902.023	20328
902.141	19997
902.26	20115
902.379	20046
902.498	19940
902.617	19814
902.735	20096
902.854	19906
902.973	19940
903.091	19666
903.21	19582
903.328	19681
903.446	19635
903.565	19552
903.683	19441
903.801	19274
903.919	19392
904.038	19331
904.156	19148
904.274	19297
904.392	19168
904.51	19133
904.627	19133
904.745	19194
904.863	19160
904.981	18989
905.098	18840
905.216	18825
905.334	18825
905.451	18810
905.569	18829
905.686	18741
905.803	18844
905.921	18620
906.038	18684
906.155	18684
906.272	18479
906.389	18623
906.506	18330
906.623	18403
906.74	18353
906.857	18247
906.974	18285
907.091	18407
907.208	18441
907.324	18369
907.441	18281
907.557	18152
907.674	18057
907.79	18026
907.907	17977
908.023	18178
908.139	18064
908.256	18114
908.372	18022
908.488	17821
908.604	17840
908.72	17847
908.836	17813
908.952	17691
909.068	17775
909.184	17912
909.3	17866
909.415	17863
909.531	17794
909.647	17585
909.762	17516
909.878	17512
909.993	17463
910.108	17368
910.224	17436
910.339	17573
910.454	17421
910.57	17280
910.685	17254
910.8	17512
910.915	17455
911.03	17337
911.145	17200
911.259	17033
911.374	17083
911.489	17071
911.604	16923
911.718	16885
911.833	16733
911.947	16793
912.062	16694
912.176	16778
912.291	16778
912.405	16812
912.519	17113
912.633	16923
912.748	16923
912.862	16683
912.976	16622
913.09	16474
913.204	16504
913.318	16675
913.431	16656
913.545	16683
913.659	16778
913.772	16546
913.886	16386
914	16523
914.113	16538
914.226	16546
914.34	16424
914.453	16284
914.566	16405
914.68	16230
914.793	16242
914.906	16078
915.019	15945
915.132	15918
915.245	15964
915.358	16067
915.47	16032
915.583	16059
915.696	15956
915.809	16059
915.921	16162
916.034	15888
916.146	15926
916.259	15854
916.371	15930
916.483	15903
916.595	15816
916.708	15861
916.82	15922
916.932	15728
917.044	15724
917.156	15743
917.268	15580
917.38	15656
917.491	15538
917.603	15530
917.715	15698
917.826	15610
917.938	15511
918.049	15481
918.161	15549
918.272	15701
918.384	15637
918.495	15367
918.606	15374
918.717	15302
918.828	15458
918.939	15332
919.05	15233
919.161	15218
919.272	15135
919.383	15161
919.494	15332
919.604	15450
919.715	15310
919.826	15237
919.936	15184
920.047	15283
920.157	15268
920.267	15469
920.378	15283
920.488	15268
920.598	15454
920.708	15633
920.818	15325
920.928	15420
921.038	15622
921.148	15542
921.258	15256
921.368	15192
921.477	15100
921.587	14967
921.697	14834
921.806	14971
921.916	14880
922.025	14560
922.134	14720
922.244	14545
922.353	14659
922.462	14568
922.571	14431
922.68	14339
922.789	14256
922.898	14290
923.007	14142
923.116	14214
923.224	14168
923.333	14218
923.442	14168
923.55	14073
923.659	14100
923.767	14233
923.876	13944
923.984	14164
924.092	14020
924.201	14077
924.309	13970
924.417	13936
924.525	13795
924.633	13917
924.741	14876
924.849	13719
924.956	13837
925.064	13715
925.172	13636
925.279	13651
925.387	13685
925.494	13700
925.602	13746
925.709	13590
925.816	13495
925.924	13518
926.031	13658
926.138	13518
926.245	13639
926.352	13487
926.459	13495
926.566	13563
926.673	13491
926.779	13480
926.886	13441
926.993	13217
927.099	13274
927.206	13012
927.312	13160
927.419	13251
927.525	13217
927.631	13171
927.737	13072
927.843	12916
927.95	12856
928.056	12924
928.162	13046
928.267	13050
928.373	13712
928.479	13053
928.585	12825
928.69	12897
928.796	12977
928.901	12924
929.007	12658
929.112	12863
929.218	12817
929.323	12692
929.428	12757
929.533	12848
929.638	12700
929.743	12642
929.848	12669
929.953	12726
930.058	12460
930.163	12380
930.267	12350
930.372	12517
930.477	12353
930.581	12547
930.685	12388
930.79	12190
930.894	12254
930.998	12247
931.103	12254
931.207	11992
931.311	12049
931.415	11847
931.519	11611
931.623	11577
