Data from test_V78500241_2414.txt Node
Date: Fri Mar 25 15:58:31 CST 2022
User: usil
Spectrometer: V785-0024
Trigger mode: 0
Integration Time (sec): 4.000000E-1
Scans to average: 1
Nonlinearity correction enabled: false
Boxcar width: 0
Storing dark spectrum: false
XAxis mode: Wavelengths
Number of Pixels in Spectrum: 1024
>>>>>Begin Spectral Data<<<<<
801.071	28523
801.214	28615
801.356	28421
801.499	28207
801.641	28295
801.783	28173
801.926	28215
802.068	28192
802.211	28173
802.353	28048
802.496	27983
802.638	27808
802.78	27755
802.923	27926
803.065	27827
803.208	27789
803.35	27850
803.492	28002
803.635	28124
803.777	27968
803.919	28124
804.061	28462
804.204	28139
804.346	28120
804.488	27918
804.63	28109
804.773	28226
804.915	28131
805.057	28341
805.199	28139
805.341	28128
805.483	28238
805.626	28166
805.768	28173
805.91	28295
806.052	28265
806.194	28188
806.336	28485
806.478	28181
806.62	28166
806.762	28318
806.904	28455
807.046	28774
807.188	28733
807.33	28512
807.472	28729
807.614	28664
807.756	28615
807.898	28668
808.04	28405
808.182	28470
808.324	28474
808.465	28485
808.607	28908
808.749	28888
808.891	29102
809.033	29090
809.174	28987
809.316	28987
809.458	28820
809.6	28896
809.741	29033
809.883	29064
810.025	29147
810.166	29197
810.308	29254
810.45	29140
810.591	29170
810.733	28968
810.875	28927
811.016	28809
811.158	28752
811.299	29128
811.441	29189
811.582	29090
811.724	28873
811.865	28961
812.007	28854
812.148	29067
812.29	28995
812.431	29124
812.573	29220
812.714	29368
812.855	29364
812.997	29566
813.138	29783
813.279	29539
813.421	29410
813.562	29398
813.703	29250
813.845	29212
813.986	28885
814.127	28713
814.268	28809
814.41	28778
814.551	28694
814.692	28717
814.833	28569
814.974	28527
815.115	28626
815.256	28569
815.397	28565
815.539	28424
815.68	28344
815.821	28379
815.962	28546
816.103	28314
816.244	28306
816.385	28082
816.526	28154
816.666	28162
816.807	27941
816.948	27922
817.089	28097
817.23	27972
817.371	28017
817.512	27899
817.653	28036
817.793	27888
817.934	27850
818.075	28010
818.216	28002
818.356	28029
818.497	27884
818.638	27660
818.778	27633
818.919	27709
819.06	27793
819.2	27884
819.341	27880
819.481	27945
819.622	28200
819.762	28200
819.903	28185
820.043	28131
820.184	28070
820.324	28196
820.465	28192
820.605	28131
820.746	28116
820.886	28051
821.026	28029
821.167	28032
821.307	28013
821.447	27903
821.588	27987
821.728	27785
821.868	27568
822.008	27405
822.149	27389
822.289	27389
822.429	27096
822.569	27207
822.709	27252
822.849	26921
822.99	27020
823.13	26914
823.27	27150
823.41	26701
823.55	26571
823.69	26708
823.83	26861
823.97	26842
824.11	26606
824.25	26552
824.389	26587
824.529	26842
824.669	26571
824.809	26598
824.949	26609
825.089	26731
825.228	26769
825.368	26431
825.508	26408
825.648	26419
825.787	26537
825.927	26598
826.067	26457
826.206	26499
826.346	26507
826.485	26446
826.625	26533
826.765	26606
826.904	26469
827.044	26263
827.183	26370
827.323	26225
827.462	26195
827.601	26419
827.741	26168
827.88	26172
828.02	26183
828.159	26180
828.298	26176
828.437	26256
828.577	26157
828.716	26187
828.855	26100
828.994	25989
829.134	25928
829.273	26050
829.412	25826
829.551	25936
829.69	25841
829.829	25978
829.968	25890
830.107	26016
830.246	25864
830.385	25780
830.524	25928
830.663	25734
830.802	25628
830.941	25441
831.08	25438
831.219	25571
831.357	25567
831.496	25845
831.635	25601
831.774	25445
831.913	25373
832.051	25331
832.19	25217
832.329	25358
832.467	25274
832.606	25099
832.744	25152
832.883	25137
833.022	25194
833.16	25198
833.299	25225
833.437	25156
833.576	25362
833.714	25228
833.852	25327
833.991	25225
834.129	25460
834.267	25282
834.406	25377
834.544	25206
834.682	25190
834.821	25247
834.959	25434
835.097	25171
835.235	25274
835.373	25301
835.511	25213
835.65	25118
835.788	25091
835.926	24913
836.064	24954
836.202	24852
836.34	25023
836.478	25282
836.615	25099
836.753	25031
836.891	24962
837.029	24977
837.167	24966
837.305	25000
837.443	25004
837.58	24966
837.718	25034
837.856	24954
837.993	24837
838.131	24947
838.269	24791
838.406	24787
838.544	24623
838.681	24669
838.819	24513
838.956	24388
839.094	24399
839.231	24483
839.369	24502
839.506	24692
839.643	24688
839.781	24384
839.918	24414
840.055	24391
840.193	24342
840.33	24289
840.467	24311
840.604	24277
840.742	24566
840.879	24076
841.016	24254
841.153	24186
841.29	24380
841.427	24182
841.564	24273
841.701	24159
841.838	24323
841.975	24041
842.112	24308
842.249	24026
842.385	24068
842.522	24323
842.659	24049
842.796	24163
842.933	23992
843.069	24018
843.206	23942
843.343	23973
843.479	24045
843.616	23889
843.752	23912
843.889	23798
844.025	24007
844.162	23771
844.298	23942
844.435	23805
844.571	23832
844.708	23847
844.844	23954
844.98	24022
845.117	23920
845.253	23695
845.389	23684
845.525	23680
845.661	23642
845.798	23433
845.934	23608
846.07	23425
846.206	23474
846.342	23547
846.478	23528
846.614	23258
846.75	23140
846.886	23239
847.022	23345
847.158	23330
847.294	23189
847.429	23204
847.565	23174
847.701	23421
847.837	23010
847.972	22927
848.108	22949
848.244	22961
848.379	22915
848.515	22854
848.65	22900
848.786	22816
848.921	22862
849.057	23018
849.192	22877
849.328	22889
849.463	22862
849.598	22854
849.734	22687
849.869	22702
850.004	22641
850.14	22641
850.275	22569
850.41	22599
850.545	22569
850.68	22577
850.815	22675
850.95	22470
851.085	22881
851.22	22599
851.355	22611
851.49	22573
851.625	22527
851.76	22436
851.895	22447
852.03	22478
852.165	22660
852.299	22622
852.434	22763
852.569	22599
852.703	22618
852.838	22557
852.973	22622
853.107	22618
853.242	22622
853.376	22440
853.511	22219
853.645	22402
853.78	22611
853.914	22478
854.048	22322
854.183	22394
854.317	22409
854.451	22683
854.585	22493
854.72	22337
854.854	22611
854.988	22352
855.122	22455
855.256	22280
855.39	22207
855.524	22398
855.658	22554
855.792	22440
855.926	22299
856.06	22500
856.194	22459
856.327	22504
856.461	22299
856.595	22341
856.729	22478
856.862	22535
856.996	22421
857.13	22379
857.263	22664
857.397	22371
857.53	22462
857.664	22504
857.797	22455
857.931	22538
858.064	22375
858.197	22554
858.331	22424
858.464	22257
858.597	22284
858.731	22474
858.864	22360
858.997	22295
859.13	22333
859.263	22432
859.396	22481
859.529	22432
859.662	22405
859.795	22268
859.928	22341
860.061	22733
860.194	22596
860.327	22462
860.46	22455
860.592	22371
860.725	22493
860.858	22630
860.99	22459
861.123	22265
861.256	22390
861.388	22508
861.521	23174
861.653	22265
861.786	22188
861.918	22299
862.05	22215
862.183	22322
862.315	22360
862.447	22485
862.58	22287
862.712	22173
862.844	22048
862.976	22093
863.108	22181
863.24	22561
863.372	22078
863.504	22177
863.636	22082
863.768	22105
863.9	22185
864.032	22029
864.164	22131
864.296	22063
864.428	22261
864.559	22234
864.691	22200
864.823	22086
864.954	22036
865.086	22021
865.217	22090
865.349	21918
865.48	21968
865.612	21884
865.743	22204
865.875	22048
866.006	22055
866.137	21987
866.269	21895
866.4	22051
866.531	21884
866.662	21953
866.793	21797
866.924	21907
867.055	21964
867.186	21873
867.317	22021
867.448	21880
867.579	21838
867.71	21850
867.841	21846
867.972	21838
868.103	21850
868.233	21949
868.364	21960
868.495	21968
868.625	22207
868.756	22249
868.886	22150
869.017	22242
869.147	22173
869.278	22356
869.408	22223
869.539	22188
869.669	22219
869.799	22272
869.929	22276
870.06	22128
870.19	22417
870.32	22470
870.45	22451
870.58	22554
870.71	22694
870.84	22637
870.97	22554
871.1	22660
871.23	22698
871.36	22824
871.489	22687
871.619	22656
871.749	22634
871.879	22835
872.008	22919
872.138	22805
872.267	22812
872.397	22634
872.526	22596
872.656	22474
872.785	22596
872.915	22877
873.044	22763
873.173	22812
873.303	22801
873.432	22858
873.561	22843
873.69	22771
873.819	22820
873.948	22927
874.077	22828
874.206	22713
874.335	22782
874.464	22873
874.593	22968
874.722	22858
874.851	22984
874.979	23006
875.108	23064
875.237	23006
875.365	23006
875.494	22881
875.623	22991
875.751	23098
875.88	22923
876.008	23197
876.136	23117
876.265	23459
876.393	23334
876.521	23341
876.65	23417
876.778	23398
876.906	23277
877.034	23379
877.162	23429
877.29	23277
877.418	23349
877.546	23239
877.674	23235
877.802	23284
877.93	23326
878.058	23277
878.185	23140
878.313	23239
878.441	23284
878.568	23064
878.696	23258
878.824	23311
878.951	23417
879.079	23425
879.206	23703
879.333	23444
879.461	23516
879.588	23299
879.715	23455
879.842	23714
879.97	23436
880.097	23170
880.224	23121
880.351	23277
880.478	23239
880.605	23109
880.732	23284
880.859	23311
880.986	23117
881.112	23216
881.239	23060
881.366	22953
881.493	22763
881.619	22694
881.746	22809
881.872	22740
881.999	22694
882.125	22641
882.252	22786
882.378	22649
882.505	22862
882.631	22561
882.757	22386
882.883	22459
883.01	22405
883.136	22356
883.262	22242
883.388	22185
883.514	22497
883.64	22390
883.766	22249
883.892	22230
884.018	22048
884.143	22295
884.269	22386
884.395	22120
884.52	21991
884.646	22002
884.772	22002
884.897	21884
885.023	22067
885.148	22162
885.274	22139
885.399	22067
885.524	22002
885.65	22131
885.775	21979
885.9	21937
886.025	22101
886.15	22124
886.275	21934
886.4	22017
886.525	21991
886.65	22048
886.775	21907
886.9	22128
887.025	22196
887.149	21953
887.274	21861
887.399	21747
887.523	21770
887.648	21774
887.773	21720
887.897	21911
888.021	21884
888.146	21652
888.27	21759
888.395	21819
888.519	21888
888.643	21865
888.767	21831
888.891	21618
889.015	21583
889.139	21648
889.263	21466
889.387	21614
889.511	21732
889.635	21679
889.759	21572
889.883	21515
890.006	21580
890.13	21652
890.254	21576
890.377	21416
890.501	21249
890.624	21264
890.748	21393
890.871	21131
890.995	21096
891.118	21093
891.241	21195
891.364	21112
891.488	21256
891.611	21157
891.734	21161
891.857	21203
891.98	21241
892.103	21135
892.226	21195
892.349	20971
892.471	21058
892.594	21119
892.717	21066
892.839	21039
892.962	21169
893.085	21062
893.207	20891
893.33	20941
893.452	20864
893.575	20982
893.697	21043
893.819	21207
893.941	21279
894.064	21214
894.186	21009
894.308	21024
894.43	21043
894.552	21135
894.674	21028
894.796	20853
894.918	20956
895.04	21017
895.161	21085
895.283	21055
895.405	21028
895.526	20986
895.648	21074
895.769	20883
895.891	21127
896.012	21062
896.134	21039
896.255	21062
896.376	20956
896.498	21138
896.619	21043
896.74	20975
896.861	21043
896.982	21241
897.103	21435
897.224	21241
897.345	21142
897.466	21173
897.587	21150
897.708	21306
897.828	21230
897.949	21192
898.07	21146
898.19	21058
898.311	21268
898.431	21146
898.552	21157
898.672	21233
898.792	21237
898.913	21237
899.033	21123
899.153	20952
899.273	20956
899.393	20944
899.513	20963
899.633	20979
899.753	20838
899.873	20834
899.993	20853
900.113	20910
900.232	20921
900.352	21028
900.472	20621
900.591	20754
900.711	20686
900.83	20606
900.95	20777
901.069	20693
901.189	20583
901.308	20343
901.427	20332
901.546	20206
901.665	20286
901.784	20317
901.904	20100
902.023	19978
902.141	19841
902.26	19750
902.379	19913
902.498	19750
902.617	19776
902.735	19780
902.854	19727
902.973	19670
903.091	19506
903.21	19487
903.328	19502
903.446	19304
903.565	19213
903.683	19304
903.801	19168
903.919	19175
904.038	19145
904.156	19027
904.274	19019
904.392	18985
904.51	18958
904.627	19012
904.745	18958
904.863	18947
904.981	18810
905.098	18684
905.216	18734
905.334	18669
905.451	18627
905.569	18726
905.686	18673
905.803	18696
905.921	18467
906.038	18646
906.155	18498
906.272	18342
906.389	18346
906.506	18110
906.623	18304
906.74	18155
906.857	17954
906.974	18133
907.091	18277
907.208	18232
907.324	18239
907.441	18079
907.557	17882
907.674	17908
907.79	17851
907.907	17901
908.023	17954
908.139	17897
908.256	17718
908.372	17771
908.488	17764
908.604	17642
908.72	17551
908.836	17581
908.952	17577
909.068	17608
909.184	17684
909.3	17554
909.415	17687
909.531	17600
909.647	17455
909.762	17318
909.878	17250
909.993	17246
910.108	17318
910.224	17193
910.339	17261
910.454	17006
910.57	17109
910.685	17075
910.8	17292
910.915	17208
911.03	17124
911.145	16961
911.259	16866
911.374	16908
911.489	16763
911.604	16797
911.718	16569
911.833	16512
911.947	16554
912.062	16542
912.176	16729
912.291	16584
912.405	16618
912.519	16809
912.633	16824
912.748	16706
912.862	16569
912.976	16390
913.09	16303
913.204	16447
913.318	16462
913.431	16523
913.545	16542
913.659	16489
913.772	16314
913.886	16181
914	16306
914.113	16268
914.226	16348
914.34	16219
914.453	16207
914.566	16242
914.68	16097
914.793	16040
914.906	15869
915.019	15922
915.132	15739
915.245	15751
915.358	15915
915.47	15789
915.583	15778
915.696	15903
915.809	15869
915.921	15934
916.034	15686
916.146	15762
916.259	15682
916.371	15667
916.483	15736
916.595	15568
916.708	15545
916.82	15671
916.932	15488
917.044	15660
917.156	15519
917.268	15435
917.38	15534
917.491	15485
917.603	15355
917.715	15603
917.826	15591
917.938	15386
918.049	15279
918.161	15355
918.272	15504
918.384	15481
918.495	15416
918.606	15283
918.717	15138
918.828	15298
918.939	15173
919.05	15097
919.161	15161
919.272	14990
919.383	15017
919.494	15195
919.604	15355
919.715	15173
919.826	15074
919.936	15157
920.047	15058
920.157	15241
920.267	15401
920.378	15138
920.488	15150
920.598	15302
920.708	15291
920.818	15249
920.928	15287
921.038	15378
921.148	15359
921.258	15093
921.368	15085
921.477	14891
921.587	14929
921.697	14758
921.806	14891
921.916	14804
922.025	14537
922.134	14476
922.244	14366
922.353	14434
922.462	14355
922.571	14244
922.68	14123
922.789	14073
922.898	14172
923.007	14100
923.116	14130
923.224	14157
923.333	14149
923.442	14016
923.55	13967
923.659	13940
923.767	13997
923.876	13925
923.984	13944
924.092	13852
924.201	13860
924.309	13822
924.417	13833
924.525	13723
924.633	13776
924.741	14564
924.849	13601
924.956	13685
925.064	13636
925.172	13510
925.279	13533
925.387	13605
925.494	13556
925.602	13609
925.709	13609
925.816	13460
925.924	13358
926.031	13491
926.138	13491
926.245	13476
926.352	13362
926.459	13491
926.566	13506
926.673	13343
926.779	13206
926.886	13297
926.993	13118
927.099	13053
927.206	13000
927.312	13046
927.419	13042
927.525	13023
927.631	13122
927.737	12947
927.843	12989
927.95	12764
928.056	12829
928.162	12848
928.267	12905
928.373	13502
928.479	12962
928.585	12738
928.69	12734
928.796	12894
928.901	12764
929.007	12502
929.112	12768
929.218	12760
929.323	12635
929.428	12555
929.533	12616
929.638	12521
929.743	12551
929.848	12566
929.953	12536
930.058	12338
930.163	12338
930.267	12228
930.372	12464
930.477	12186
930.581	12426
930.685	12266
930.79	12091
930.894	12205
930.998	12102
931.103	12213
931.207	11931
931.311	11760
931.415	11733
931.519	11547
931.623	11414
