Data from test_V78500241_190.txt Node
Date: Fri Mar 25 15:43:07 CST 2022
User: usil
Spectrometer: V785-0024
Trigger mode: 0
Integration Time (sec): 4.000000E-1
Scans to average: 1
Nonlinearity correction enabled: false
Boxcar width: 0
Storing dark spectrum: false
XAxis mode: Wavelengths
Number of Pixels in Spectrum: 1024
>>>>>Begin Spectral Data<<<<<
801.071	29771
801.214	29551
801.356	29337
801.499	29444
801.641	29322
801.783	29345
801.926	29235
802.068	29200
802.211	29159
802.353	29242
802.496	28965
802.638	28961
802.78	29010
802.923	28892
803.065	28793
803.208	28877
803.35	28965
803.492	29044
803.635	29037
803.777	28984
803.919	29067
804.061	29284
804.204	29079
804.346	29079
804.488	28831
804.63	29006
804.773	28847
804.915	28984
805.057	29102
805.199	29052
805.341	29170
805.483	29181
805.626	29010
805.768	29102
805.91	29147
806.052	29280
806.194	29189
806.336	29311
806.478	29246
806.62	29067
806.762	29170
806.904	29391
807.046	29649
807.188	29547
807.33	29608
807.472	29615
807.614	29478
807.756	29486
807.898	29345
808.04	29334
808.182	29231
808.324	29292
808.465	29311
808.607	29589
808.749	29657
808.891	30060
809.033	29843
809.174	29813
809.316	29661
809.458	29619
809.6	29714
809.741	29824
809.883	29741
810.025	29889
810.166	29931
810.308	29923
810.45	29843
810.591	29916
810.733	29847
810.875	29828
811.016	29604
811.158	29577
811.299	29790
811.441	29828
811.582	29916
811.724	29657
811.865	29691
812.007	29665
812.148	29608
812.29	29821
812.431	29756
812.573	30083
812.714	29942
812.855	30114
812.997	30125
813.138	30327
813.279	30239
813.421	30251
813.562	30186
813.703	29897
813.845	29870
813.986	29630
814.127	29547
814.268	29356
814.41	29391
814.551	29311
814.692	29486
814.833	29288
814.974	29189
815.115	29223
815.256	29178
815.397	29258
815.539	29094
815.68	29075
815.821	28919
815.962	29105
816.103	29090
816.244	28892
816.385	28717
816.526	28694
816.666	28618
816.807	28481
816.948	28519
817.089	28603
817.23	28557
817.371	28527
817.512	28478
817.653	28390
817.793	28462
817.934	28432
818.075	28443
818.216	28379
818.356	28303
818.497	28280
818.638	28105
818.778	28265
818.919	28192
819.06	28306
819.2	28299
819.341	28481
819.481	28344
819.622	28519
819.762	28801
819.903	28744
820.043	28527
820.184	28436
820.324	28489
820.465	28603
820.605	28398
820.746	28447
820.886	28356
821.026	28310
821.167	28424
821.307	28550
821.447	28371
821.588	28215
821.728	28101
821.868	28044
822.008	27793
822.149	27823
822.289	27797
822.429	27576
822.569	27496
822.709	27519
822.849	27306
822.99	27340
823.13	27188
823.27	27272
823.41	27085
823.55	27047
823.69	27058
823.83	27135
823.97	27039
824.11	26902
824.25	26921
824.389	26933
824.529	27150
824.669	26948
824.809	26956
824.949	26921
825.089	27081
825.228	26864
825.368	26777
825.508	26788
825.648	26636
825.787	26670
825.927	26785
826.067	26659
826.206	26746
826.346	26758
826.485	26781
826.625	26720
826.765	26788
826.904	26731
827.044	26537
827.183	26446
827.323	26419
827.462	26442
827.601	26434
827.741	26256
827.88	26328
828.02	26244
828.159	26328
828.298	26290
828.437	26408
828.577	26294
828.716	26423
828.855	26282
828.994	26214
829.134	25989
829.273	26149
829.412	26062
829.551	25932
829.69	26081
829.829	26031
829.968	26081
830.107	26058
830.246	26001
830.385	25894
830.524	25909
830.663	25837
830.802	25685
830.941	25567
831.08	25628
831.219	25681
831.357	25750
831.496	25856
831.635	25674
831.774	25487
831.913	25544
832.051	25365
832.19	25316
832.329	25346
832.467	25259
832.606	25171
832.744	25148
832.883	25270
833.022	25217
833.16	25175
833.299	25244
833.437	25236
833.576	25289
833.714	25285
833.852	25259
833.991	25156
834.129	25419
834.267	25297
834.406	25168
834.544	25190
834.682	25145
834.821	25107
834.959	25168
835.097	25232
835.235	25240
835.373	25152
835.511	25152
835.65	24962
835.788	25053
835.926	24875
836.064	24817
836.202	24894
836.34	25076
836.478	25099
836.615	25069
836.753	24989
836.891	25065
837.029	24996
837.167	25027
837.305	24878
837.443	25050
837.58	24833
837.718	24897
837.856	24878
837.993	24916
838.131	24768
838.269	24837
838.406	24757
838.544	24722
838.681	24486
838.819	24490
838.956	24422
839.094	24380
839.231	24224
839.369	24456
839.506	24525
839.643	24452
839.781	24190
839.918	24102
840.055	24182
840.193	24232
840.33	24098
840.467	24190
840.604	24254
840.742	24323
840.879	23988
841.016	24194
841.153	24087
841.29	24079
841.427	24110
841.564	24095
841.701	24182
841.838	24095
841.975	24022
842.112	24133
842.249	23927
842.385	23931
842.522	24117
842.659	23984
842.796	23802
842.933	23745
843.069	23718
843.206	23691
843.343	23859
843.479	23832
843.616	23935
843.752	23672
843.889	23581
844.025	23672
844.162	23653
844.298	23672
844.435	23558
844.571	23566
844.708	23619
844.844	23726
844.98	23771
845.117	23657
845.253	23516
845.389	23512
845.525	23383
845.661	23414
845.798	23303
845.934	23288
846.07	23277
846.206	23208
846.342	23387
846.478	23193
846.614	23003
846.75	22953
846.886	22896
847.022	23006
847.158	22904
847.294	22957
847.429	23033
847.565	22892
847.701	23284
847.837	22778
847.972	22622
848.108	22774
848.244	22767
848.379	22698
848.515	22531
848.65	22497
848.786	22645
848.921	22592
849.057	22622
849.192	22584
849.328	22512
849.463	22550
849.598	22580
849.734	22394
849.869	22409
850.004	22234
850.14	22287
850.275	22242
850.41	22230
850.545	22211
850.68	22211
850.815	22238
850.95	22154
851.085	22413
851.22	22344
851.355	22188
851.49	22169
851.625	22226
851.76	22230
851.895	22124
852.03	22166
852.165	22337
852.299	22295
852.434	22375
852.569	22284
852.703	22314
852.838	22200
852.973	22341
853.107	22310
853.242	22162
853.376	22051
853.511	22097
853.645	22036
853.78	22112
853.914	22109
854.048	22124
854.183	22124
854.317	22097
854.451	22337
854.585	22006
854.72	22029
854.854	22185
854.988	21964
855.122	21972
855.256	21937
855.39	22044
855.524	22143
855.658	22036
855.792	22063
855.926	22032
856.06	22029
856.194	22200
856.327	21899
856.461	22036
856.595	21899
856.729	22025
856.862	22158
856.996	22025
857.13	22093
857.263	22093
857.397	22082
857.53	22051
857.664	22032
857.797	22044
857.931	22070
858.064	21975
858.197	22181
858.331	21937
858.464	21880
858.597	21899
858.731	22010
858.864	21778
858.997	21975
859.13	21945
859.263	21972
859.396	22006
859.529	21964
859.662	21956
859.795	21861
859.928	21994
860.061	22211
860.194	22242
860.327	21949
860.46	22010
860.592	21998
860.725	22063
860.858	22093
860.99	21979
861.123	21827
861.256	21987
861.388	21975
861.521	22497
861.653	21854
861.786	21747
861.918	21743
862.05	21941
862.183	21934
862.315	22067
862.447	21987
862.58	22074
862.712	21736
862.844	21759
862.976	21641
863.108	21774
863.24	22173
863.372	21690
863.504	21603
863.636	21644
863.768	21652
863.9	21675
864.032	21625
864.164	21606
864.296	21648
864.428	21732
864.559	21717
864.691	21663
864.823	21705
864.954	21610
865.086	21622
865.217	21481
865.349	21393
865.48	21618
865.612	21458
865.743	21663
865.875	21591
866.006	21397
866.137	21576
866.269	21610
866.4	21500
866.531	21473
866.662	21447
866.793	21469
866.924	21401
867.055	21424
867.186	21466
867.317	21382
867.448	21351
867.579	21420
867.71	21466
867.841	21397
867.972	21450
868.103	21534
868.233	21416
868.364	21481
868.495	21576
868.625	21717
868.756	21835
868.886	21633
869.017	21705
869.147	21728
869.278	21846
869.408	21675
869.539	21747
869.669	21682
869.799	21690
869.929	21964
870.06	21709
870.19	22070
870.32	22059
870.45	21994
870.58	22017
870.71	22150
870.84	22211
870.97	22188
871.1	22287
871.23	22295
871.36	22276
871.489	22196
871.619	22265
871.749	22341
871.879	22268
872.008	22485
872.138	22371
872.267	22306
872.397	22169
872.526	22173
872.656	22204
872.785	22329
872.915	22234
873.044	22295
873.173	22265
873.303	22356
873.432	22341
873.561	22405
873.69	22360
873.819	22409
873.948	22436
874.077	22314
874.206	22276
874.335	22386
874.464	22470
874.593	22611
874.722	22580
874.851	22645
874.979	22702
875.108	22577
875.237	22527
875.365	22413
875.494	22508
875.623	22557
875.751	22386
875.88	22668
876.008	22702
876.136	22733
876.265	22809
876.393	22984
876.521	22995
876.65	23083
876.778	22953
876.906	23003
877.034	22873
877.162	22927
877.29	22820
877.418	22934
877.546	22835
877.674	22908
877.802	22900
877.93	22991
878.058	22809
878.185	22771
878.313	22820
878.441	22915
878.568	22656
878.696	22904
878.824	22961
878.951	22904
879.079	23094
879.206	23208
879.333	23098
879.461	22805
879.588	22991
879.715	23159
879.842	23296
879.97	22908
880.097	22710
880.224	22687
880.351	22805
880.478	22729
880.605	22672
880.732	22706
880.859	22934
880.986	22687
881.112	22752
881.239	22698
881.366	22440
881.493	22341
881.619	22318
881.746	22363
881.872	22363
881.999	22226
882.125	22188
882.252	22295
882.378	22246
882.505	22421
882.631	22147
882.757	22154
882.883	22150
883.01	22074
883.136	21998
883.262	21903
883.388	21941
883.514	21979
883.64	22082
883.766	21884
883.892	21873
884.018	21895
884.143	22040
884.269	22067
884.395	21736
884.52	21671
884.646	21747
884.772	21500
884.897	21580
885.023	21762
885.148	21709
885.274	21804
885.399	21667
885.524	21614
885.65	21595
885.775	21736
885.9	21736
886.025	21648
886.15	21648
886.275	21641
886.4	21485
886.525	21576
886.65	21599
886.775	21405
886.9	21614
887.025	21842
887.149	21606
887.274	21378
887.399	21245
887.523	21389
887.648	21321
887.773	21397
887.897	21488
888.021	21393
888.146	21294
888.27	21481
888.395	21564
888.519	21477
888.643	21382
888.767	21351
888.891	21294
889.015	21214
889.139	21161
889.263	21192
889.387	21348
889.511	21317
889.635	21306
889.759	21096
889.883	21077
890.006	21123
890.13	21157
890.254	21028
890.377	21112
890.501	20906
890.624	20830
890.748	20883
890.871	20800
890.995	20583
891.118	20613
891.241	20663
891.364	20689
891.488	20792
891.611	20648
891.734	20629
891.857	20727
891.98	20674
892.103	20804
892.226	20758
892.349	20712
892.471	20526
892.594	20674
892.717	20659
892.839	20571
892.962	20541
893.085	20735
893.207	20667
893.33	20438
893.452	20518
893.575	20541
893.697	20602
893.819	20735
893.941	20769
894.064	20758
894.186	20640
894.308	20533
894.43	20686
894.552	20644
894.674	20636
894.796	20431
894.918	20530
895.04	20488
895.161	20613
895.283	20579
895.405	20640
895.526	20678
895.648	20568
895.769	20629
895.891	20785
896.012	20678
896.134	20625
896.255	20602
896.376	20549
896.498	20636
896.619	20579
896.74	20682
896.861	20811
896.982	20906
897.103	21154
897.224	20941
897.345	20876
897.466	20792
897.587	20838
897.708	21070
897.828	20739
897.949	20777
898.07	20655
898.19	20849
898.311	20902
898.431	20754
898.552	20758
898.672	20804
898.792	20804
898.913	20826
899.033	20625
899.153	20533
899.273	20457
899.393	20511
899.513	20442
899.633	20408
899.753	20575
899.873	20423
899.993	20594
900.113	20286
900.232	20476
900.352	20442
900.472	20259
900.591	20271
900.711	20328
900.83	20328
900.95	20259
901.069	20385
901.189	20065
901.308	19982
901.427	19921
901.546	19917
901.665	19864
901.784	19860
901.904	19826
902.023	19586
902.141	19453
902.26	19464
902.379	19426
902.498	19430
902.617	19274
902.735	19369
902.854	19327
902.973	19343
903.091	18993
903.21	19061
903.328	19027
903.446	18814
903.565	18772
903.683	18578
903.801	18700
903.919	18852
904.038	18772
904.156	18612
904.274	18730
904.392	18593
904.51	18494
904.627	18555
904.745	18707
904.863	18521
904.981	18391
905.098	18323
905.216	18163
905.334	18201
905.451	18182
905.569	18216
905.686	18235
905.803	18235
905.921	18038
906.038	18022
906.155	17939
906.272	17897
906.389	17980
906.506	17885
906.623	17741
906.74	17771
906.857	17611
906.974	17691
907.091	17931
907.208	17904
907.324	17809
907.441	17554
907.557	17391
907.674	17444
907.79	17326
907.907	17467
908.023	17520
908.139	17421
908.256	17383
908.372	17398
908.488	17269
908.604	17227
908.72	17090
908.836	17174
908.952	17090
909.068	17132
909.184	17132
909.3	17128
909.415	17178
909.531	17136
909.647	16904
909.762	16790
909.878	16691
909.993	16752
910.108	16752
910.224	16752
910.339	16759
910.454	16538
910.57	16542
910.685	16523
910.8	16782
910.915	16774
911.03	16569
911.145	16474
911.259	16333
911.374	16249
911.489	16344
911.604	16200
911.718	16082
911.833	16082
911.947	16032
912.062	16017
912.176	16158
912.291	16223
912.405	16215
912.519	16295
912.633	16295
912.748	16116
912.862	16097
912.976	15998
913.09	15789
913.204	15835
913.318	15850
913.431	15930
913.545	15915
913.659	16063
913.772	15793
913.886	15793
914	15694
914.113	15835
914.226	15869
914.34	15743
914.453	15641
914.566	15808
914.68	15679
914.793	15538
914.906	15382
915.019	15397
915.132	15268
915.245	15313
915.358	15336
915.47	15348
915.583	15283
915.696	15370
915.809	15466
915.921	15469
916.034	15230
916.146	15268
916.259	15211
916.371	15336
916.483	15249
916.595	15142
916.708	15207
916.82	15214
916.932	15131
917.044	15028
917.156	15116
917.268	15043
917.38	15009
917.491	15024
917.603	14975
917.715	15100
917.826	14967
917.938	14842
918.049	14762
918.161	14918
918.272	14979
918.384	14982
918.495	14925
918.606	14724
918.717	14686
918.828	14731
918.939	14727
919.05	14632
919.161	14640
919.272	14431
919.383	14484
919.494	14667
919.604	14800
919.715	14648
919.826	14514
919.936	14587
920.047	14762
920.157	14697
920.267	14819
920.378	14606
920.488	14549
920.598	14800
920.708	14986
920.818	14708
920.928	14800
921.038	15017
921.148	14792
921.258	14564
921.368	14476
921.477	14374
921.587	14374
921.697	14233
921.806	14351
921.916	14103
922.025	14005
922.134	14001
922.244	13925
922.353	14020
922.462	13906
922.571	13830
922.68	13658
922.789	13708
922.898	13639
923.007	13499
923.116	13655
923.224	13575
923.333	13556
923.442	13464
923.55	13464
923.659	13472
923.767	13460
923.876	13358
923.984	13499
924.092	13282
924.201	13354
924.309	13384
924.417	13365
924.525	13301
924.633	13335
924.741	14180
924.849	13065
924.956	13266
925.064	12973
925.172	13046
925.279	13023
925.387	13038
925.494	13057
925.602	13164
925.709	13160
925.816	12890
925.924	12924
926.031	13065
926.138	13012
926.245	12935
926.352	12894
926.459	13057
926.566	13004
926.673	12749
926.779	12779
926.886	12837
926.993	12616
927.099	12540
927.206	12540
927.312	12585
927.419	12665
927.525	12707
927.631	12654
927.737	12471
927.843	12437
927.95	12350
928.056	12388
928.162	12448
928.267	12448
928.373	13122
928.479	12467
928.585	12152
928.69	12300
928.796	12315
928.901	12311
929.007	12087
929.112	12205
929.218	12205
929.323	12239
929.428	12022
929.533	12251
929.638	12083
929.743	12019
929.848	12076
929.953	12034
930.058	11950
930.163	11847
930.267	11840
930.372	11980
930.477	11779
930.581	12011
930.685	11802
930.79	11657
930.894	11657
930.998	11547
931.103	11783
931.207	11455
931.311	11391
931.415	11277
931.519	11048
931.623	10999
