Data from test_V78500241_3547.txt Node
Date: Fri Mar 25 16:06:22 CST 2022
User: usil
Spectrometer: V785-0024
Trigger mode: 0
Integration Time (sec): 4.000000E-1
Scans to average: 1
Nonlinearity correction enabled: false
Boxcar width: 0
Storing dark spectrum: false
XAxis mode: Wavelengths
Number of Pixels in Spectrum: 1024
>>>>>Begin Spectral Data<<<<<
801.071	29014
801.214	28888
801.356	28527
801.499	28580
801.641	28550
801.783	28428
801.926	28615
802.068	28546
802.211	28493
802.353	28485
802.496	28284
802.638	28272
802.78	28192
802.923	27941
803.065	28063
803.208	28055
803.35	28268
803.492	28325
803.635	28379
803.777	28299
803.919	28470
804.061	28881
804.204	28535
804.346	28367
804.488	28356
804.63	28398
804.773	28390
804.915	28557
805.057	28580
805.199	28573
805.341	28622
805.483	28550
805.626	28618
805.768	28451
805.91	28592
806.052	28519
806.194	28538
806.336	28698
806.478	28516
806.62	28698
806.762	28915
806.904	28885
807.046	29003
807.188	29136
807.33	29094
807.472	29174
807.614	29090
807.756	29102
807.898	28934
808.04	28828
808.182	28991
808.324	28957
808.465	29079
808.607	29246
808.749	29284
808.891	29414
809.033	29463
809.174	29345
809.316	29395
809.458	29417
809.6	29318
809.741	29482
809.883	29261
810.025	29520
810.166	29585
810.308	29684
810.45	29623
810.591	29433
810.733	29402
810.875	29334
811.016	29265
811.158	29349
811.299	29360
811.441	29535
811.582	29421
811.724	29474
811.865	29349
812.007	29398
812.148	29307
812.29	29318
812.431	29623
812.573	29737
812.714	29790
812.855	29840
812.997	29946
813.138	30129
813.279	29950
813.421	29821
813.562	29939
813.703	29634
813.845	29604
813.986	29288
814.127	29223
814.268	29075
814.41	29041
814.551	29162
814.692	29189
814.833	28915
814.974	29086
815.115	29067
815.256	29025
815.397	29041
815.539	28995
815.68	28767
815.821	28835
815.962	28888
816.103	28908
816.244	28824
816.385	28736
816.526	28759
816.666	28607
816.807	28246
816.948	28527
817.089	28546
817.23	28390
817.371	28379
817.512	28303
817.653	28470
817.793	28249
817.934	28405
818.075	28462
818.216	28382
818.356	28280
818.497	28238
818.638	28188
818.778	28207
818.919	28116
819.06	28238
819.2	28318
819.341	28363
819.481	28299
819.622	28557
819.762	28733
819.903	28603
820.043	28504
820.184	28569
820.324	28500
820.465	28493
820.605	28634
820.746	28580
820.886	28318
821.026	28493
821.167	28363
821.307	28462
821.447	28489
821.588	28432
821.728	28139
821.868	28173
822.008	28002
822.149	27812
822.289	27903
822.429	27641
822.569	27656
822.709	27515
822.849	27435
822.99	27435
823.13	27291
823.27	27359
823.41	27154
823.55	27180
823.69	27119
823.83	27154
823.97	27192
824.11	27100
824.25	27081
824.389	27024
824.529	27245
824.669	27081
824.809	27157
824.949	27112
825.089	27116
825.228	27055
825.368	26952
825.508	26853
825.648	26826
825.787	27020
825.927	26948
826.067	26872
826.206	26895
826.346	27051
826.485	27020
826.625	26796
826.765	27127
826.904	27039
827.044	26746
827.183	26750
827.323	26632
827.462	26777
827.601	26765
827.741	26682
827.88	26735
828.02	26476
828.159	26651
828.298	26659
828.437	26712
828.577	26522
828.716	26712
828.855	26575
828.994	26332
829.134	26480
829.273	26377
829.412	26259
829.551	26347
829.69	26408
829.829	26328
829.968	26400
830.107	26419
830.246	26412
830.385	26168
830.524	26157
830.663	26111
830.802	26073
830.941	25947
831.08	25925
831.219	26039
831.357	26054
831.496	26073
831.635	25860
831.774	25784
831.913	25921
832.051	25666
832.19	25601
832.329	25666
832.467	25575
832.606	25544
832.744	25445
832.883	25624
833.022	25472
833.16	25556
833.299	25708
833.437	25712
833.576	25723
833.714	25681
833.852	25616
833.991	25719
834.129	25769
834.267	25807
834.406	25616
834.544	25746
834.682	25696
834.821	25674
834.959	25917
835.097	25563
835.235	25670
835.373	25700
835.511	25662
835.65	25479
835.788	25571
835.926	25289
836.064	25270
836.202	25396
836.34	25506
836.478	25460
836.615	25403
836.753	25700
836.891	25647
837.029	25487
837.167	25384
837.305	25362
837.443	25327
837.58	25304
837.718	25327
837.856	25327
837.993	25171
838.131	25221
838.269	25156
838.406	25255
838.544	25088
838.681	25008
838.819	24939
838.956	24711
839.094	24768
839.231	24882
839.369	25023
839.506	25137
839.643	24981
839.781	24711
839.918	24692
840.055	24753
840.193	24798
840.33	24715
840.467	24741
840.604	24760
840.742	25031
840.879	24536
841.016	24646
841.153	24509
841.29	24798
841.427	24646
841.564	24627
841.701	24620
841.838	24658
841.975	24597
842.112	24639
842.249	24627
842.385	24566
842.522	24635
842.659	24654
842.796	24521
842.933	24483
843.069	24452
843.206	24429
843.343	24372
843.479	24536
843.616	24441
843.752	24361
843.889	24357
844.025	24315
844.162	24167
844.298	24311
844.435	24148
844.571	24106
844.708	24292
844.844	24380
844.98	24361
845.117	24334
845.253	24247
845.389	24087
845.525	24251
845.661	24034
845.798	23885
845.934	24026
846.07	23851
846.206	23996
846.342	24034
846.478	24041
846.614	23779
846.75	23699
846.886	23684
847.022	23790
847.158	23714
847.294	23619
847.429	23611
847.565	23821
847.701	23882
847.837	23315
847.972	23391
848.108	23482
848.244	23474
848.379	23216
848.515	23246
848.65	23258
848.786	23220
848.921	23246
849.057	23379
849.192	23284
849.328	23307
849.463	23307
849.598	23193
849.734	23105
849.869	23159
850.004	22968
850.14	23235
850.275	23064
850.41	22968
850.545	22930
850.68	22946
850.815	23022
850.95	23029
851.085	23147
851.22	23079
851.355	23121
851.49	23025
851.625	22942
851.76	22984
851.895	22896
852.03	22900
852.165	23060
852.299	23018
852.434	23071
852.569	23067
852.703	23079
852.838	22972
852.973	23105
853.107	23143
853.242	23025
853.376	22843
853.511	22721
853.645	22850
853.78	23010
853.914	22892
854.048	22774
854.183	22847
854.317	22816
854.451	22991
854.585	22869
854.72	22812
854.854	22854
854.988	22771
855.122	22755
855.256	22805
855.39	22702
855.524	22968
855.658	22911
855.792	22904
855.926	22915
856.06	22919
856.194	22816
856.327	22873
856.461	22687
856.595	22702
856.729	22850
856.862	22896
856.996	22828
857.13	22782
857.263	22984
857.397	22869
857.53	22847
857.664	22938
857.797	22866
857.931	22984
858.064	22915
858.197	22847
858.331	22869
858.464	22854
858.597	22713
858.731	22828
858.864	22748
858.997	22854
859.13	22877
859.263	22797
859.396	22919
859.529	22915
859.662	22763
859.795	22778
859.928	22816
860.061	22949
860.194	23067
860.327	22835
860.46	23003
860.592	23029
860.725	22835
860.858	22919
860.99	22892
861.123	22858
861.256	22873
861.388	22847
861.521	23535
861.653	22717
861.786	22565
861.918	22565
862.05	22706
862.183	22797
862.315	22710
862.447	22790
862.58	22835
862.712	22440
862.844	22577
862.976	22615
863.108	22649
863.24	22987
863.372	22550
863.504	22538
863.636	22622
863.768	22637
863.9	22550
864.032	22500
864.164	22531
864.296	22561
864.428	22611
864.559	22672
864.691	22565
864.823	22538
864.954	22504
865.086	22516
865.217	22596
865.349	22287
865.48	22500
865.612	22371
865.743	22531
865.875	22337
866.006	22466
866.137	22424
866.269	22451
866.4	22398
866.531	22230
866.662	22226
866.793	22356
866.924	22375
867.055	22538
867.186	22459
867.317	22272
867.448	22204
867.579	22310
867.71	22337
867.841	22337
867.972	22432
868.103	22306
868.233	22443
868.364	22246
868.495	22394
868.625	22615
868.756	22664
868.886	22630
869.017	22603
869.147	22656
869.278	22736
869.408	22679
869.539	22504
869.669	22675
869.799	22725
869.929	22603
870.06	22694
870.19	22896
870.32	22778
870.45	22927
870.58	22938
870.71	23029
870.84	23052
870.97	23044
871.1	23086
871.23	23178
871.36	23162
871.489	23056
871.619	23048
871.749	23033
871.879	23223
872.008	23185
872.138	23098
872.267	23231
872.397	23178
872.526	22953
872.656	23037
872.785	23018
872.915	23166
873.044	23250
873.173	23227
873.303	23288
873.432	23246
873.561	23299
873.69	23349
873.819	23235
873.948	23349
874.077	23246
874.206	23143
874.335	23250
874.464	23284
874.593	23478
874.722	23360
874.851	23463
874.979	23459
875.108	23395
875.237	23459
875.365	23417
875.494	23334
875.623	23531
875.751	23364
875.88	23299
876.008	23531
876.136	23531
876.265	23741
876.393	23878
876.521	23874
876.65	23840
876.778	23775
876.906	23604
877.034	23642
877.162	23824
877.29	23596
877.418	23790
877.546	23832
877.674	23775
877.802	23760
877.93	23718
878.058	23794
878.185	23646
878.313	23627
878.441	23745
878.568	23554
878.696	23608
878.824	23737
878.951	23874
879.079	23874
879.206	24053
879.333	23908
879.461	23771
879.588	23722
879.715	23954
879.842	23916
879.97	23878
880.097	23440
880.224	23638
880.351	23615
880.478	23535
880.605	23543
880.732	23497
880.859	23794
880.986	23512
881.112	23566
881.239	23398
881.366	23261
881.493	23250
881.619	23223
881.746	23254
881.872	23269
881.999	23079
882.125	22991
882.252	23170
882.378	23204
882.505	23193
882.631	22934
882.757	22755
882.883	22968
883.01	22858
883.136	22702
883.262	22672
883.388	22653
883.514	22824
883.64	22885
883.766	22755
883.892	22500
884.018	22580
884.143	22691
884.269	22755
884.395	22455
884.52	22470
884.646	22443
884.772	22367
884.897	22265
885.023	22550
885.148	22443
885.274	22573
885.399	22478
885.524	22424
885.65	22303
885.775	22428
885.9	22390
886.025	22470
886.15	22470
886.275	22341
886.4	22318
886.525	22512
886.65	22329
886.775	22299
886.9	22497
887.025	22557
887.149	22382
887.274	22181
887.399	22139
887.523	22230
887.648	22188
887.773	22059
887.897	22226
888.021	22154
888.146	22086
888.27	22230
888.395	22234
888.519	22242
888.643	22181
888.767	22257
888.891	22257
889.015	22010
889.139	21987
889.263	21953
889.387	22101
889.511	22021
889.635	22124
889.759	21918
889.883	21873
890.006	21956
890.13	21964
890.254	21892
890.377	21899
890.501	21701
890.624	21545
890.748	21713
890.871	21614
890.995	21507
891.118	21515
891.241	21637
891.364	21511
891.488	21663
891.611	21625
891.734	21477
891.857	21545
891.98	21534
892.103	21633
892.226	21492
892.349	21466
892.471	21249
892.594	21485
892.717	21424
892.839	21435
892.962	21378
893.085	21439
893.207	21405
893.33	21420
893.452	21298
893.575	21412
893.697	21378
893.819	21481
893.941	21511
894.064	21526
894.186	21355
894.308	21195
894.43	21622
894.552	21644
894.674	21332
894.796	21389
894.918	21359
895.04	21287
895.161	21447
895.283	21386
895.405	21473
895.526	21344
895.648	21405
895.769	21401
895.891	21401
896.012	21485
896.134	21336
896.255	21408
896.376	21332
896.498	21382
896.619	21359
896.74	21321
896.861	21469
896.982	21800
897.103	21816
897.224	21652
897.345	21481
897.466	21515
897.587	21542
897.708	21690
897.828	21610
897.949	21504
898.07	21291
898.19	21458
898.311	21709
898.431	21545
898.552	21545
898.672	21523
898.792	21656
898.913	21580
899.033	21530
899.153	21329
899.273	21249
899.393	21268
899.513	21336
899.633	21214
899.753	21252
899.873	21241
899.993	21367
900.113	21081
900.232	21142
900.352	21165
900.472	21100
900.591	21032
900.711	21089
900.83	21081
900.95	21077
901.069	21093
901.189	20998
901.308	20781
901.427	20655
901.546	20541
901.665	20651
901.784	20678
901.904	20419
902.023	20355
902.141	20183
902.26	20168
902.379	20313
902.498	20107
902.617	20062
902.735	20157
902.854	20168
902.973	20024
903.091	19864
903.21	19772
903.328	19791
903.446	19647
903.565	19597
903.683	19597
903.801	19563
903.919	19556
904.038	19472
904.156	19350
904.274	19396
904.392	19369
904.51	19354
904.627	19217
904.745	19373
904.863	19365
904.981	19145
905.098	18962
905.216	18935
905.334	18981
905.451	18958
905.569	18958
905.686	18977
905.803	18951
905.921	18791
906.038	18852
906.155	18719
906.272	18639
906.389	18745
906.506	18650
906.623	18555
906.74	18574
906.857	18388
906.974	18414
907.091	18513
907.208	18597
907.324	18532
907.441	18422
907.557	18308
907.674	18216
907.79	18201
907.907	18186
908.023	18292
908.139	18266
908.256	18235
908.372	17969
908.488	17984
908.604	17988
908.72	17912
908.836	17996
908.952	17809
909.068	17863
909.184	18015
909.3	17935
909.415	17889
909.531	17958
909.647	17714
909.762	17619
909.878	17630
909.993	17589
910.108	17558
910.224	17543
910.339	17573
910.454	17585
910.57	17482
910.685	17364
910.8	17646
910.915	17619
911.03	17410
911.145	17231
911.259	17155
911.374	17261
911.489	17025
911.604	17056
911.718	17041
911.833	16961
911.947	16927
912.062	16729
912.176	16923
912.291	16984
912.405	16908
912.519	17174
912.633	17086
912.748	16908
912.862	16866
912.976	16702
913.09	16702
913.204	16672
913.318	16763
913.431	16839
913.545	16843
913.659	16820
913.772	16774
913.886	16497
914	16538
914.113	16656
914.226	16622
914.34	16535
914.453	16322
914.566	16451
914.68	16451
914.793	16226
914.906	16120
915.019	16139
915.132	16120
915.245	16086
915.358	16154
915.47	16090
915.583	16131
915.696	16131
915.809	16185
915.921	16238
916.034	16017
916.146	15926
916.259	16013
916.371	16078
916.483	16086
916.595	15953
916.708	15892
916.82	15869
916.932	15827
917.044	15766
917.156	15789
917.268	15778
917.38	15819
917.491	15743
917.603	15625
917.715	15865
917.826	15682
917.938	15682
918.049	15519
918.161	15663
918.272	15854
918.384	15755
918.495	15591
918.606	15454
918.717	15496
918.828	15488
918.939	15561
919.05	15370
919.161	15424
919.272	15218
919.383	15397
919.494	15523
919.604	15648
919.715	15367
919.826	15351
919.936	15313
920.047	15420
920.157	15466
920.267	15526
920.378	15416
920.488	15370
920.598	15595
920.708	15652
920.818	15549
920.928	15603
921.038	15701
921.148	15519
921.258	15367
921.368	15211
921.477	15173
921.587	15085
921.697	14910
921.806	15291
921.916	14990
922.025	14811
922.134	14788
922.244	14716
922.353	14792
922.462	14644
922.571	14575
922.68	14317
922.789	14415
922.898	14385
923.007	14415
923.116	14450
923.224	14374
923.333	14313
923.442	14233
923.55	14286
923.659	14195
923.767	14298
923.876	14138
923.984	14172
924.092	14161
924.201	14176
924.309	14115
924.417	14069
924.525	13978
924.633	14001
924.741	14971
924.849	13750
924.956	14016
925.064	13875
925.172	13742
925.279	13849
925.387	13788
925.494	13738
925.602	13913
925.709	13826
925.816	13666
925.924	13647
926.031	13734
926.138	13670
926.245	13753
926.352	13639
926.459	13795
926.566	13750
926.673	13597
926.779	13468
926.886	13616
926.993	13293
927.099	13270
927.206	13285
927.312	13247
927.419	13327
927.525	13240
927.631	13247
927.737	13240
927.843	13126
927.95	12977
928.056	13118
928.162	13149
928.267	13171
928.373	13708
928.479	13190
928.585	12951
928.69	13050
928.796	13076
928.901	13012
929.007	12779
929.112	13000
929.218	12894
929.323	12867
929.428	12749
929.533	12905
929.638	12620
929.743	12753
929.848	12829
929.953	12738
930.058	12639
930.163	12540
930.267	12528
930.372	12627
930.477	12365
930.581	12582
930.685	12483
930.79	12350
930.894	12395
930.998	12357
931.103	12452
931.207	12053
931.311	12022
931.415	11935
931.519	11688
931.623	11710
