Data from test_V78500241_1420.txt Node
Date: Fri Mar 25 15:51:38 CST 2022
User: usil
Spectrometer: V785-0024
Trigger mode: 0
Integration Time (sec): 4.000000E-1
Scans to average: 1
Nonlinearity correction enabled: false
Boxcar width: 0
Storing dark spectrum: false
XAxis mode: Wavelengths
Number of Pixels in Spectrum: 1024
>>>>>Begin Spectral Data<<<<<
801.071	27975
801.214	27854
801.356	27660
801.499	27534
801.641	27420
801.783	27466
801.926	27355
802.068	27393
802.211	27427
802.353	27226
802.496	27154
802.638	27173
802.78	27157
802.923	27074
803.065	26910
803.208	26952
803.35	27169
803.492	27249
803.635	27279
803.777	27123
803.919	27233
804.061	27526
804.204	27427
804.346	27214
804.488	27245
804.63	27131
804.773	27096
804.915	27268
805.057	27492
805.199	27070
805.341	27359
805.483	27389
805.626	27515
805.768	27397
805.91	27408
806.052	27344
806.194	27359
806.336	27667
806.478	27473
806.62	27523
806.762	27526
806.904	27675
807.046	28010
807.188	27804
807.33	27873
807.472	27987
807.614	27800
807.756	27816
807.898	27774
808.04	27652
808.182	27713
808.324	27739
808.465	27774
808.607	27869
808.749	28128
808.891	28097
809.033	28242
809.174	28067
809.316	27964
809.458	28139
809.6	28048
809.741	28230
809.883	28265
810.025	28246
810.166	28219
810.308	28268
810.45	28226
810.591	28287
810.733	28093
810.875	28150
811.016	27945
811.158	27926
811.299	28032
811.441	28185
811.582	28173
811.724	27991
811.865	28055
812.007	27960
812.148	28036
812.29	28070
812.431	28291
812.573	28344
812.714	28398
812.855	28573
812.997	28691
813.138	28778
813.279	28607
813.421	28535
813.562	28596
813.703	28306
813.845	28219
813.986	27926
814.127	27873
814.268	27785
814.41	27755
814.551	27705
814.692	27861
814.833	27671
814.974	27778
815.115	27686
815.256	27591
815.397	27641
815.539	27515
815.68	27519
815.821	27530
815.962	27557
816.103	27492
816.244	27260
816.385	27302
816.526	27348
816.666	27112
816.807	27001
816.948	27123
817.089	27184
817.23	27096
817.371	26940
817.512	27047
817.653	26990
817.793	26918
817.934	27005
818.075	27081
818.216	27096
818.356	26918
818.497	26872
818.638	26705
818.778	26674
818.919	26754
819.06	26735
819.2	26967
819.341	27032
819.481	26887
819.622	27093
819.762	27374
819.903	27291
820.043	27203
820.184	27161
820.324	27100
820.465	27081
820.605	27055
820.746	27138
820.886	27096
821.026	27066
821.167	27138
821.307	27260
821.447	26914
821.588	26960
821.728	26849
821.868	26842
822.008	26575
822.149	26549
822.289	26503
822.429	26183
822.569	26240
822.709	26157
822.849	26065
822.99	25940
823.13	25921
823.27	25940
823.41	25784
823.55	25700
823.69	25860
823.83	25788
823.97	25791
824.11	25563
824.25	25590
824.389	25575
824.529	25620
824.669	25601
824.809	25750
824.949	25715
825.089	25677
825.228	25670
825.368	25445
825.508	25567
825.648	25510
825.787	25567
825.927	25449
826.067	25533
826.206	25415
826.346	25533
826.485	25537
826.625	25575
826.765	25594
826.904	25419
827.044	25266
827.183	25221
827.323	25168
827.462	25278
827.601	25278
827.741	25240
827.88	25133
828.02	25023
828.159	25225
828.298	25194
828.437	25301
828.577	25126
828.716	25160
828.855	25099
828.994	24909
829.134	24985
829.273	24973
829.412	24840
829.551	24825
829.69	25053
829.829	24890
829.968	24977
830.107	24943
830.246	24951
830.385	24734
830.524	24787
830.663	24620
830.802	24726
830.941	24433
831.08	24456
831.219	24456
831.357	24578
831.496	24604
831.635	24528
831.774	24384
831.913	24350
832.051	24388
832.19	24376
832.329	24289
832.467	24228
832.606	24079
832.744	24057
832.883	24121
833.022	24174
833.16	24178
833.299	24174
833.437	24197
833.576	24247
833.714	24190
833.852	24296
833.991	24209
834.129	24323
834.267	24228
834.406	24117
834.544	24243
834.682	24152
834.821	24152
834.959	24384
835.097	24239
835.235	24304
835.373	24216
835.511	24167
835.65	24106
835.788	24171
835.926	23897
836.064	23847
836.202	23855
836.34	24091
836.478	24144
836.615	23950
836.753	24076
836.891	24087
837.029	23935
837.167	24106
837.305	24041
837.443	23916
837.58	23859
837.718	23965
837.856	24026
837.993	23760
838.131	23912
838.269	23691
838.406	23684
838.544	23904
838.681	23528
838.819	23501
838.956	23277
839.094	23280
839.231	23436
839.369	23558
839.506	23786
839.643	23619
839.781	23337
839.918	23440
840.055	23395
840.193	23303
840.33	23315
840.467	23216
840.604	23265
840.742	23604
840.879	23140
841.016	23242
841.153	23299
841.29	23383
841.427	23162
841.564	23421
841.701	23292
841.838	23299
841.975	23189
842.112	23212
842.249	23048
842.385	23079
842.522	23315
842.659	23079
842.796	23048
842.933	22984
843.069	22972
843.206	22927
843.343	23056
843.479	23094
843.616	23064
843.752	22835
843.889	22778
844.025	22957
844.162	22752
844.298	22862
844.435	22805
844.571	22771
844.708	22892
844.844	23044
844.98	22866
845.117	22854
845.253	22774
845.389	22733
845.525	22725
845.661	22805
845.798	22557
845.934	22630
846.07	22497
846.206	22538
846.342	22698
846.478	22500
846.614	22371
846.75	22268
846.886	22234
847.022	22322
847.158	22306
847.294	22295
847.429	22348
847.565	22306
847.701	22569
847.837	22036
847.972	22067
848.108	22154
848.244	22188
848.379	21991
848.515	21888
848.65	21888
848.786	21899
848.921	21949
849.057	22059
849.192	21945
849.328	21869
849.463	21888
849.598	21770
849.734	21831
849.869	21728
850.004	21606
850.14	21732
850.275	21595
850.41	21610
850.545	21542
850.68	21610
850.815	21603
850.95	21629
851.085	21797
851.22	21720
851.355	21736
851.49	21477
851.625	21679
851.76	21606
851.895	21408
852.03	21606
852.165	21663
852.299	21622
852.434	21671
852.569	21709
852.703	21603
852.838	21675
852.973	21701
853.107	21717
853.242	21538
853.376	21500
853.511	21370
853.645	21287
853.78	21580
853.914	21572
854.048	21416
854.183	21401
854.317	21389
854.451	21663
854.585	21370
854.72	21515
854.854	21500
854.988	21447
855.122	21370
855.256	21332
855.39	21450
855.524	21500
855.658	21587
855.792	21401
855.926	21408
856.06	21583
856.194	21614
856.327	21466
856.461	21424
856.595	21416
856.729	21313
856.862	21534
856.996	21526
857.13	21557
857.263	21526
857.397	21519
857.53	21447
857.664	21447
857.797	21370
857.931	21538
858.064	21431
858.197	21420
858.331	21515
858.464	21450
858.597	21393
858.731	21317
858.864	21435
858.997	21332
859.13	21386
859.263	21500
859.396	21504
859.529	21389
859.662	21450
859.795	21367
859.928	21401
860.061	21606
860.194	21667
860.327	21504
860.46	21469
860.592	21564
860.725	21591
860.858	21648
860.99	21485
861.123	21431
861.256	21359
861.388	21462
861.521	22154
861.653	21264
861.786	21218
861.918	21325
862.05	21378
862.183	21355
862.315	21363
862.447	21466
862.58	21389
862.712	21211
862.844	21142
862.976	21389
863.108	21268
863.24	21572
863.372	21039
863.504	21165
863.636	21055
863.768	21218
863.9	21085
864.032	21135
864.164	21127
864.296	21287
864.428	21146
864.559	21249
864.691	21218
864.823	21135
864.954	21096
865.086	21154
865.217	21165
865.349	20998
865.48	21077
865.612	21157
865.743	21123
865.875	21062
866.006	21062
866.137	21116
866.269	21009
866.4	21017
866.531	21017
866.662	20990
866.793	21005
866.924	20910
867.055	20952
867.186	20925
867.317	21039
867.448	20952
867.579	20910
867.71	20857
867.841	20891
867.972	21036
868.103	21119
868.233	20910
868.364	20986
868.495	21108
868.625	21062
868.756	21348
868.886	21173
869.017	21264
869.147	21397
869.278	21332
869.408	21298
869.539	21298
869.669	21256
869.799	21199
869.929	21332
870.06	21241
870.19	21587
870.32	21542
870.45	21591
870.58	21736
870.71	21656
870.84	21774
870.97	21610
871.1	21656
871.23	21800
871.36	21770
871.489	21781
871.619	21705
871.749	21888
871.879	21808
872.008	21895
872.138	21800
872.267	21838
872.397	21728
872.526	21690
872.656	21698
872.785	21644
872.915	21915
873.044	21934
873.173	21850
873.303	21960
873.432	22002
873.561	21991
873.69	21869
873.819	21983
873.948	21888
874.077	21876
874.206	21922
874.335	21934
874.464	21934
874.593	22097
874.722	22078
874.851	22188
874.979	22097
875.108	22188
875.237	22105
875.365	22025
875.494	21926
875.623	22246
875.751	22055
875.88	22116
876.008	22318
876.136	22367
876.265	22538
876.393	22569
876.521	22504
876.65	22592
876.778	22485
876.906	22493
877.034	22447
877.162	22382
877.29	22447
877.418	22428
877.546	22421
877.674	22417
877.802	22322
877.93	22421
878.058	22447
878.185	22280
878.313	22379
878.441	22512
878.568	22318
878.696	22409
878.824	22538
878.951	22535
879.079	22599
879.206	22733
879.333	22687
879.461	22493
879.588	22542
879.715	22679
879.842	22786
879.97	22504
880.097	22192
880.224	22310
880.351	22436
880.478	22226
880.605	22314
880.732	22219
880.859	22527
880.986	22367
881.112	22223
881.239	22200
881.366	22032
881.493	21991
881.619	21876
881.746	21892
881.872	21835
881.999	21873
882.125	21831
882.252	21972
882.378	21819
882.505	21949
882.631	21732
882.757	21572
882.883	21663
883.01	21587
883.136	21549
883.262	21435
883.388	21389
883.514	21599
883.64	21633
883.766	21393
883.892	21176
884.018	21272
884.143	21485
884.269	21511
884.395	21283
884.52	21195
884.646	21093
884.772	21211
884.897	21032
885.023	21093
885.148	21302
885.274	21393
885.399	21291
885.524	21161
885.65	21173
885.775	21127
885.9	21047
886.025	21260
886.15	21249
886.275	21062
886.4	21001
886.525	21211
886.65	21138
886.775	21211
886.9	21302
887.025	21386
887.149	21173
887.274	21062
887.399	20921
887.523	20910
887.648	20804
887.773	20743
887.897	20982
888.021	21047
888.146	20944
888.27	21017
888.395	21116
888.519	20914
888.643	20918
888.767	21009
888.891	20952
889.015	20769
889.139	20872
889.263	20762
889.387	20758
889.511	20891
889.635	20811
889.759	20625
889.883	20796
890.006	20648
890.13	20910
890.254	20587
890.377	20636
890.501	20522
890.624	20526
890.748	20560
890.871	20412
890.995	20263
891.118	20313
891.241	20298
891.364	20244
891.488	20351
891.611	20393
891.734	20332
891.857	20332
891.98	20381
892.103	20374
892.226	20191
892.349	20221
892.471	20050
892.594	20187
892.717	20267
892.839	20145
892.962	20233
893.085	20317
893.207	20324
893.33	20046
893.452	20180
893.575	20362
893.697	20282
893.819	20381
893.941	20408
894.064	20347
894.186	20130
894.308	20199
894.43	20328
894.552	20389
894.674	20252
894.796	20073
894.918	20069
895.04	20153
895.161	20332
895.283	20256
895.405	20161
895.526	20164
895.648	20244
895.769	20267
895.891	20214
896.012	20176
896.134	20221
896.255	20267
896.376	20187
896.498	20218
896.619	20176
896.74	20263
896.861	20290
896.982	20503
897.103	20598
897.224	20492
897.345	20393
897.466	20423
897.587	20320
897.708	20530
897.828	20427
897.949	20419
898.07	20313
898.19	20324
898.311	20442
898.431	20370
898.552	20366
898.672	20507
898.792	20530
898.913	20423
899.033	20225
899.153	20157
899.273	20172
899.393	20157
899.513	20168
899.633	20225
899.753	20210
899.873	20119
899.993	20126
900.113	20039
900.232	20149
900.352	20126
900.472	20062
900.591	19959
900.711	20043
900.83	19944
900.95	20043
901.069	19963
901.189	19883
901.308	19647
901.427	19480
901.546	19449
901.665	19635
901.784	19670
901.904	19285
902.023	19240
902.141	19206
902.26	19057
902.379	19190
902.498	19015
902.617	18932
902.735	19050
902.854	18973
902.973	18882
903.091	18734
903.21	18719
903.328	18738
903.446	18593
903.565	18589
903.683	18479
903.801	18426
903.919	18513
904.038	18429
904.156	18399
904.274	18353
904.392	18213
904.51	18224
904.627	18247
904.745	18277
904.863	18273
904.981	18091
905.098	17897
905.216	18003
905.334	18095
905.451	17961
905.569	17863
905.686	17992
905.803	17920
905.921	17817
906.038	17855
906.155	17741
906.272	17638
906.389	17668
906.506	17417
906.623	17543
906.74	17512
906.857	17421
906.974	17429
907.091	17448
907.208	17577
907.324	17493
907.441	17402
907.557	17239
907.674	17250
907.79	17094
907.907	17128
908.023	17204
908.139	17128
908.256	17151
908.372	17166
908.488	16999
908.604	16850
908.72	16869
908.836	16957
908.952	16801
909.068	16862
909.184	16976
909.3	16942
909.415	16965
909.531	16877
909.647	16694
909.762	16717
909.878	16630
909.993	16713
910.108	16618
910.224	16554
910.339	16542
910.454	16489
910.57	16341
910.685	16272
910.8	16599
910.915	16599
911.03	16508
911.145	16230
911.259	16329
911.374	16158
911.489	16177
911.604	16071
911.718	15960
911.833	16059
911.947	15827
912.062	15816
912.176	16025
912.291	15972
912.405	15812
912.519	16139
912.633	16143
912.748	16025
912.862	15918
912.976	15838
913.09	15762
913.204	15793
913.318	15736
913.431	15880
913.545	15800
913.659	15884
913.772	15705
913.886	15614
914	15545
914.113	15671
914.226	15732
914.34	15667
914.453	15462
914.566	15603
914.68	15370
914.793	15439
914.906	15306
915.019	15199
915.132	15165
915.245	15199
915.358	15245
915.47	15192
915.583	15184
915.696	15142
915.809	15226
915.921	15336
916.034	15116
916.146	15055
916.259	15032
916.371	15184
916.483	15089
916.595	14975
916.708	15001
916.82	14986
916.932	14986
917.044	14975
917.156	14990
917.268	14853
917.38	14891
917.491	14727
917.603	14948
917.715	14838
917.826	14960
917.938	14716
918.049	14686
918.161	14777
918.272	14929
918.384	14861
918.495	14689
918.606	14651
918.717	14533
918.828	14720
918.939	14621
919.05	14537
919.161	14583
919.272	14408
919.383	14374
919.494	14686
919.604	14769
919.715	14640
919.826	14446
919.936	14450
920.047	14697
920.157	14606
920.267	14727
920.378	14541
920.488	14461
920.598	14659
920.708	14834
920.818	14636
920.928	14773
921.038	14838
921.148	14781
921.258	14473
921.368	14415
921.477	14309
921.587	14240
921.697	14176
921.806	14278
921.916	14084
922.025	13947
922.134	13925
922.244	13921
922.353	13925
922.462	13769
922.571	13776
922.68	13525
922.789	13548
922.898	13578
923.007	13537
923.116	13601
923.224	13628
923.333	13445
923.442	13449
923.55	13377
923.659	13400
923.767	13449
923.876	13320
923.984	13335
924.092	13270
924.201	13266
924.309	13308
924.417	13343
924.525	13171
924.633	13301
924.741	13947
924.849	12970
924.956	13183
925.064	13099
925.172	12943
925.279	12962
925.387	13008
925.494	12977
925.602	13103
925.709	12996
925.816	12909
925.924	12989
926.031	12970
926.138	12817
926.245	13034
926.352	12791
926.459	12916
926.566	12985
926.673	12897
926.779	12764
926.886	12776
926.993	12623
927.099	12601
927.206	12578
927.312	12445
927.419	12574
927.525	12528
927.631	12486
927.737	12532
927.843	12308
927.95	12197
928.056	12327
928.162	12460
928.267	12429
928.373	12920
928.479	12445
928.585	12254
928.69	12277
928.796	12388
928.901	12262
929.007	12106
929.112	12243
929.218	12228
929.323	12140
929.428	11958
929.533	12266
929.638	11920
929.743	12102
929.848	12079
929.953	11866
930.058	11920
930.163	11870
930.267	11760
930.372	11874
930.477	11726
930.581	12015
930.685	11832
930.79	11688
930.894	11722
930.998	11672
931.103	11847
931.207	11501
931.311	11364
931.415	11197
931.519	11124
931.623	11048
