Data from test_V78500241_3243.txt Node
Date: Fri Mar 25 16:04:15 CST 2022
User: usil
Spectrometer: V785-0024
Trigger mode: 0
Integration Time (sec): 4.000000E-1
Scans to average: 1
Nonlinearity correction enabled: false
Boxcar width: 0
Storing dark spectrum: false
XAxis mode: Wavelengths
Number of Pixels in Spectrum: 1024
>>>>>Begin Spectral Data<<<<<
801.071	28965
801.214	29037
801.356	28755
801.499	28615
801.641	28455
801.783	28607
801.926	28599
802.068	28504
802.211	28504
802.353	28413
802.496	28314
802.638	28238
802.78	28306
802.923	28204
803.065	28040
803.208	28070
803.35	28344
803.492	28375
803.635	28546
803.777	28360
803.919	28394
804.061	28812
804.204	28550
804.346	28428
804.488	28443
804.63	28291
804.773	28459
804.915	28653
805.057	28618
805.199	28577
805.341	28630
805.483	28729
805.626	28729
805.768	28573
805.91	28634
806.052	28744
806.194	28637
806.336	28847
806.478	28740
806.62	28664
806.762	28835
806.904	29041
807.046	29136
807.188	29181
807.33	29204
807.472	29147
807.614	29083
807.756	29121
807.898	29060
808.04	28934
808.182	28934
808.324	28892
808.465	29006
808.607	29155
808.749	29524
808.891	29444
809.033	29634
809.174	29486
809.316	29337
809.458	29375
809.6	29296
809.741	29417
809.883	29596
810.025	29699
810.166	29672
810.308	29665
810.45	29661
810.591	29596
810.733	29322
810.875	29353
811.016	29463
811.158	29341
811.299	29497
811.441	29524
811.582	29627
811.724	29455
811.865	29372
812.007	29387
812.148	29296
812.29	29452
812.431	29554
812.573	29752
812.714	29703
812.855	30121
812.997	30091
813.138	30167
813.279	29977
813.421	30003
813.562	29767
813.703	29741
813.845	29642
813.986	29334
814.127	29250
814.268	29105
814.41	29121
814.551	29143
814.692	29189
814.833	29044
814.974	29060
815.115	29181
815.256	29052
815.397	28991
815.539	28881
815.68	28915
815.821	28850
815.962	28930
816.103	29022
816.244	28672
816.385	28843
816.526	28645
816.666	28478
816.807	28470
816.948	28478
817.089	28512
817.23	28363
817.371	28272
817.512	28561
817.653	28546
817.793	28386
817.934	28615
818.075	28493
818.216	28561
818.356	28341
818.497	28367
818.638	28185
818.778	28192
818.919	28337
819.06	28219
819.2	28401
819.341	28325
819.481	28409
819.622	28691
819.762	28721
819.903	28698
820.043	28691
820.184	28630
820.324	28447
820.465	28630
820.605	28538
820.746	28561
820.886	28455
821.026	28752
821.167	28554
821.307	28573
821.447	28474
821.588	28394
821.728	28200
821.868	28143
822.008	28025
822.149	27983
822.289	27865
822.429	27587
822.569	27633
822.709	27724
822.849	27568
822.99	27382
823.13	27344
823.27	27310
823.41	27382
823.55	27081
823.69	27279
823.83	27313
823.97	27332
824.11	27036
824.25	26895
824.389	26944
824.529	27131
824.669	26944
824.809	27260
824.949	27233
825.089	27127
825.228	27230
825.368	26887
825.508	27039
825.648	27009
825.787	27074
825.927	27032
826.067	27024
826.206	26902
826.346	26998
826.485	27024
826.625	26914
826.765	27116
826.904	27028
827.044	26826
827.183	26746
827.323	26826
827.462	27001
827.601	26777
827.741	26594
827.88	26716
828.02	26530
828.159	26629
828.298	26727
828.437	26720
828.577	26769
828.716	26720
828.855	26560
828.994	26434
829.134	26317
829.273	26492
829.412	26343
829.551	26377
829.69	26290
829.829	26294
829.968	26537
830.107	26465
830.246	26237
830.385	26225
830.524	26328
830.663	26065
830.802	26122
830.941	25906
831.08	25951
831.219	26100
831.357	26024
831.496	26240
831.635	25951
831.774	25913
831.913	25883
832.051	25871
832.19	25738
832.329	25742
832.467	25605
832.606	25624
832.744	25628
832.883	25651
833.022	25445
833.16	25727
833.299	25696
833.437	25700
833.576	25784
833.714	25734
833.852	25788
833.991	25746
834.129	25871
834.267	25860
834.406	25651
834.544	25666
834.682	25674
834.821	25765
834.959	25906
835.097	25674
835.235	25818
835.373	25830
835.511	25795
835.65	25666
835.788	25521
835.926	25514
836.064	25464
836.202	25449
836.34	25499
836.478	25582
836.615	25479
836.753	25548
836.891	25567
837.029	25510
837.167	25510
837.305	25476
837.443	25422
837.58	25400
837.718	25362
837.856	25388
837.993	25304
838.131	25426
838.269	25244
838.406	25373
838.544	25198
838.681	24951
838.819	25034
838.956	24764
839.094	24817
839.231	24875
839.369	24977
839.506	25168
839.643	25126
839.781	24848
839.918	24722
840.055	24719
840.193	24852
840.33	24753
840.467	24703
840.604	24821
840.742	24958
840.879	24612
841.016	24631
841.153	24639
841.29	24848
841.427	24760
841.564	24597
841.701	24715
841.838	24715
841.975	24635
842.112	24597
842.249	24620
842.385	24418
842.522	24730
842.659	24642
842.796	24544
842.933	24483
843.069	24437
843.206	24433
843.343	24456
843.479	24467
843.616	24483
843.752	24289
843.889	24304
844.025	24399
844.162	24174
844.298	24350
844.435	24296
844.571	24304
844.708	24346
844.844	24452
844.98	24445
845.117	24384
845.253	24095
845.389	24117
845.525	24296
845.661	24087
845.798	23996
845.934	24182
846.07	24049
846.206	23988
846.342	24178
846.478	23988
846.614	23851
846.75	23615
846.886	23668
847.022	23710
847.158	23771
847.294	23707
847.429	23638
847.565	23600
847.701	23965
847.837	23547
847.972	23463
848.108	23589
848.244	23444
848.379	23391
848.515	23395
848.65	23277
848.786	23402
848.921	23292
849.057	23330
849.192	23231
849.328	23368
849.463	23246
849.598	23200
849.734	23235
849.869	23105
850.004	23060
850.14	23117
850.275	23132
850.41	23041
850.545	23037
850.68	23090
850.815	23136
850.95	23086
851.085	23303
851.22	23208
851.355	23128
851.49	23041
851.625	23010
851.76	23006
851.895	22934
852.03	22930
852.165	22980
852.299	23239
852.434	23143
852.569	23113
852.703	23060
852.838	23079
852.973	23242
853.107	23018
853.242	23105
853.376	22908
853.511	22805
853.645	22843
853.78	22980
853.914	22900
854.048	22786
854.183	22965
854.317	22869
854.451	23044
854.585	22938
854.72	22828
854.854	22915
854.988	22915
855.122	22927
855.256	22805
855.39	22881
855.524	22919
855.658	23041
855.792	22881
855.926	22889
856.06	22828
856.194	23022
856.327	22946
856.461	22763
856.595	22771
856.729	22866
856.862	22984
856.996	23003
857.13	22999
857.263	23098
857.397	22972
857.53	22858
857.664	22877
857.797	23025
857.931	23037
858.064	22911
858.197	22957
858.331	22774
858.464	22854
858.597	22729
858.731	22828
858.864	22843
858.997	22835
859.13	22881
859.263	22911
859.396	22816
859.529	22869
859.662	22866
859.795	22885
859.928	22850
860.061	23052
860.194	23212
860.327	22984
860.46	22839
860.592	22999
860.725	23033
860.858	22961
860.99	22877
861.123	22816
861.256	22843
861.388	22972
861.521	23509
861.653	22725
861.786	22668
861.918	22740
862.05	22889
862.183	22843
862.315	22889
862.447	22862
862.58	22679
862.712	22523
862.844	22531
862.976	22729
863.108	22637
863.24	22946
863.372	22489
863.504	22523
863.636	22561
863.768	22584
863.9	22618
864.032	22580
864.164	22455
864.296	22649
864.428	22637
864.559	22592
864.691	22607
864.823	22691
864.954	22603
865.086	22611
865.217	22588
865.349	22360
865.48	22382
865.612	22459
865.743	22618
865.875	22394
866.006	22519
866.137	22360
866.269	22443
866.4	22341
866.531	22360
866.662	22348
866.793	22459
866.924	22508
867.055	22421
867.186	22447
867.317	22379
867.448	22234
867.579	22417
867.71	22344
867.841	22413
867.972	22398
868.103	22386
868.233	22546
868.364	22421
868.495	22561
868.625	22637
868.756	22839
868.886	22535
869.017	22596
869.147	22828
869.278	22873
869.408	22759
869.539	22649
869.669	22767
869.799	22653
869.929	22809
870.06	22790
870.19	22957
870.32	22972
870.45	23064
870.58	22847
870.71	23204
870.84	23239
870.97	23109
871.1	23071
871.23	23239
871.36	23269
871.489	23071
871.619	23364
871.749	23246
871.879	23269
872.008	23383
872.138	23269
872.267	23178
872.397	23090
872.526	23140
872.656	23048
872.785	23113
872.915	23239
873.044	23440
873.173	23349
873.303	23299
873.432	23376
873.561	23318
873.69	23391
873.819	23326
873.948	23459
874.077	23258
874.206	23223
874.335	23284
874.464	23349
874.593	23444
874.722	23425
874.851	23535
874.979	23543
875.108	23429
875.237	23463
875.365	23391
875.494	23402
875.623	23520
875.751	23512
875.88	23421
876.008	23714
876.136	23642
876.265	23893
876.393	23927
876.521	23851
876.65	23931
876.778	23916
876.906	23870
877.034	23779
877.162	23771
877.29	23965
877.418	23748
877.546	23851
877.674	23680
877.802	23847
877.93	23847
878.058	23771
878.185	23619
878.313	23733
878.441	23783
878.568	23752
878.696	23672
878.824	23958
878.951	23889
879.079	24003
879.206	24144
879.333	23923
879.461	23950
879.588	24003
879.715	23939
879.842	24121
879.97	23893
880.097	23585
880.224	23741
880.351	23604
880.478	23851
880.605	23756
880.732	23558
880.859	23977
880.986	23672
881.112	23657
881.239	23562
881.366	23467
881.493	23132
881.619	23250
881.746	23318
881.872	23204
881.999	23102
882.125	23067
882.252	23174
882.378	23052
882.505	23239
882.631	22968
882.757	22961
882.883	23044
883.01	22877
883.136	22877
883.262	22717
883.388	22820
883.514	22755
883.64	22984
883.766	22801
883.892	22641
884.018	22675
884.143	22778
884.269	22938
884.395	22607
884.52	22546
884.646	22421
884.772	22424
884.897	22561
885.023	22538
885.148	22523
885.274	22538
885.399	22664
885.524	22417
885.65	22527
885.775	22516
885.9	22485
886.025	22557
886.15	22512
886.275	22443
886.4	22459
886.525	22443
886.65	22459
886.775	22451
886.9	22565
887.025	22744
887.149	22432
887.274	22268
887.399	22253
887.523	22268
887.648	22238
887.773	22013
887.897	22268
888.021	22371
888.146	22185
888.27	22226
888.395	22363
888.519	22185
888.643	22230
888.767	22223
888.891	22158
889.015	22010
889.139	22002
889.263	22067
889.387	22219
889.511	22299
889.635	22211
889.759	22048
889.883	22044
890.006	22059
890.13	22051
890.254	21956
890.377	21911
890.501	21831
890.624	21739
890.748	21861
890.871	21698
890.995	21644
891.118	21401
891.241	21599
891.364	21542
891.488	21679
891.611	21682
891.734	21622
891.857	21591
891.98	21564
892.103	21603
892.226	21504
892.349	21603
892.471	21424
892.594	21492
892.717	21553
892.839	21462
892.962	21492
893.085	21439
893.207	21431
893.33	21386
893.452	21386
893.575	21500
893.697	21443
893.819	21469
893.941	21511
894.064	21667
894.186	21355
894.308	21298
894.43	21424
894.552	21583
894.674	21466
894.796	21291
894.918	21420
895.04	21412
895.161	21530
895.283	21443
895.405	21378
895.526	21481
895.648	21412
895.769	21523
895.891	21462
896.012	21473
896.134	21477
896.255	21553
896.376	21317
896.498	21431
896.619	21511
896.74	21416
896.861	21469
896.982	21717
897.103	21800
897.224	21675
897.345	21542
897.466	21576
897.587	21660
897.708	21827
897.828	21496
897.949	21644
898.07	21473
898.19	21500
898.311	21694
898.431	21523
898.552	21469
898.672	21641
898.792	21652
898.913	21561
899.033	21473
899.153	21374
899.273	21291
899.393	21355
899.513	21336
899.633	21332
899.753	21332
899.873	21279
899.993	21397
900.113	21275
900.232	21272
900.352	21207
900.472	21325
900.591	21089
900.711	21146
900.83	21051
900.95	21123
901.069	21211
901.189	20937
901.308	20750
901.427	20678
901.546	20686
901.665	20708
901.784	20693
901.904	20648
902.023	20457
902.141	20271
902.26	20153
902.379	20317
902.498	20313
902.617	20107
902.735	20195
902.854	20168
902.973	20142
903.091	19822
903.21	19822
903.328	19799
903.446	19719
903.565	19632
903.683	19647
903.801	19540
903.919	19601
904.038	19521
904.156	19392
904.274	19396
904.392	19381
904.51	19415
904.627	19499
904.745	19365
904.863	19476
904.981	19148
905.098	19042
905.216	19053
905.334	19053
905.451	19061
905.569	18954
905.686	18981
905.803	19053
905.921	18867
906.038	18962
906.155	18840
906.272	18806
906.389	18719
906.506	18593
906.623	18509
906.74	18627
906.857	18471
906.974	18540
907.091	18627
907.208	18544
907.324	18544
907.441	18532
907.557	18319
907.674	18273
907.79	18266
907.907	18190
908.023	18228
908.139	18247
908.256	18174
908.372	18087
908.488	18102
908.604	17973
908.72	17935
908.836	17908
908.952	17942
909.068	18068
909.184	18194
909.3	17977
909.415	17999
909.531	17866
909.647	17726
909.762	17680
909.878	17577
909.993	17707
910.108	17646
910.224	17661
910.339	17638
910.454	17516
910.57	17512
910.685	17395
910.8	17775
910.915	17581
911.03	17539
911.145	17364
911.259	17181
911.374	17254
911.489	17212
911.604	17105
911.718	16976
911.833	17003
911.947	16854
912.062	16892
912.176	16927
912.291	17033
912.405	16938
912.519	17117
912.633	17181
912.748	17102
912.862	16991
912.976	16835
913.09	16687
913.204	16725
913.318	16816
913.431	16949
913.545	16869
913.659	16847
913.772	16752
913.886	16622
914	16603
914.113	16664
914.226	16622
914.34	16664
914.453	16573
914.566	16569
914.68	16523
914.793	16424
914.906	16291
915.019	16131
915.132	16029
915.245	16181
915.358	16188
915.47	16105
915.583	16082
915.696	16074
915.809	16196
915.921	16272
916.034	15979
916.146	16055
916.259	16010
916.371	16059
916.483	16181
916.595	16059
916.708	16036
916.82	16048
916.932	15819
917.044	15880
917.156	15850
917.268	15751
917.38	15743
917.491	15800
917.603	15865
917.715	15804
917.826	15911
917.938	15675
918.049	15618
918.161	15747
918.272	15838
918.384	15804
918.495	15648
918.606	15625
918.717	15542
918.828	15534
918.939	15466
919.05	15450
919.161	15431
919.272	15344
919.383	15382
919.494	15511
919.604	15732
919.715	15496
919.826	15477
919.936	15511
920.047	15618
920.157	15519
920.267	15572
920.378	15450
920.488	15401
920.598	15637
920.708	15720
920.818	15641
920.928	15580
921.038	15713
921.148	15663
921.258	15454
921.368	15329
921.477	15207
921.587	15017
921.697	15081
921.806	15104
921.916	14906
922.025	14830
922.134	14781
922.244	14708
922.353	14826
922.462	14693
922.571	14629
922.68	14431
922.789	14518
922.898	14423
923.007	14366
923.116	14503
923.224	14412
923.333	14408
923.442	14290
923.55	14199
923.659	14229
923.767	14309
923.876	14161
923.984	14244
924.092	14206
924.201	14191
924.309	14157
924.417	14123
924.525	14046
924.633	13890
924.741	14876
924.849	13860
924.956	13951
925.064	13879
925.172	13674
925.279	13704
925.387	13902
925.494	13734
925.602	13925
925.709	13750
925.816	13670
925.924	13742
926.031	13791
926.138	13723
926.245	13769
926.352	13639
926.459	13772
926.566	13856
926.673	13605
926.779	13563
926.886	13571
926.993	13392
927.099	13373
927.206	13236
927.312	13282
927.419	13384
927.525	13259
927.631	13293
927.737	13228
927.843	13118
927.95	13057
928.056	13137
928.162	13244
928.267	13122
928.373	13658
928.479	13129
928.585	12932
928.69	13053
928.796	13088
928.901	12916
929.007	12890
929.112	13012
929.218	12894
929.323	12928
929.428	12856
929.533	12989
929.638	12768
929.743	12806
929.848	12859
929.953	12806
930.058	12734
930.163	12471
930.267	12528
930.372	12646
930.477	12441
930.581	12749
930.685	12483
930.79	12334
930.894	12346
930.998	12418
931.103	12399
931.207	12133
931.311	12068
931.415	12007
931.519	11790
931.623	11703
