Data from test_V78500241_1368.txt Node
Date: Fri Mar 25 15:51:16 CST 2022
User: usil
Spectrometer: V785-0024
Trigger mode: 0
Integration Time (sec): 4.000000E-1
Scans to average: 1
Nonlinearity correction enabled: false
Boxcar width: 0
Storing dark spectrum: false
XAxis mode: Wavelengths
Number of Pixels in Spectrum: 1024
>>>>>Begin Spectral Data<<<<<
801.071	28116
801.214	28204
801.356	27991
801.499	27808
801.641	27785
801.783	27774
801.926	27728
802.068	27739
802.211	27690
802.353	27648
802.496	27370
802.638	27252
802.78	27367
802.923	27450
803.065	27329
803.208	27268
803.35	27405
803.492	27519
803.635	27466
803.777	27515
803.919	27701
804.061	27873
804.204	27751
804.346	27641
804.488	27557
804.63	27633
804.773	27603
804.915	27523
805.057	27694
805.199	27606
805.341	27667
805.483	27854
805.626	27804
805.768	27667
805.91	27720
806.052	27785
806.194	27827
806.336	27975
806.478	27903
806.62	27861
806.762	27827
806.904	28013
807.046	28280
807.188	28303
807.33	28090
807.472	28223
807.614	28173
807.756	28166
807.898	28116
808.04	27994
808.182	28017
808.324	28128
808.465	28135
808.607	28394
808.749	28265
808.891	28516
809.033	28626
809.174	28447
809.316	28466
809.458	28428
809.6	28538
809.741	28447
809.883	28615
810.025	28698
810.166	28790
810.308	28702
810.45	28736
810.591	28478
810.733	28436
810.875	28409
811.016	28226
811.158	28379
811.299	28538
811.441	28493
811.582	28656
811.724	28455
811.865	28459
812.007	28436
812.148	28459
812.29	28451
812.431	28683
812.573	28645
812.714	28805
812.855	28965
812.997	29067
813.138	29128
813.279	29113
813.421	29003
813.562	28904
813.703	28755
813.845	28679
813.986	28375
814.127	28303
814.268	28150
814.41	28097
814.551	28090
814.692	28253
814.833	28078
814.974	28013
815.115	28147
815.256	27953
815.397	28013
815.539	28044
815.68	28082
815.821	27732
815.962	27922
816.103	27880
816.244	27785
816.385	27625
816.526	27679
816.666	27507
816.807	27466
816.948	27549
817.089	27610
817.23	27420
817.371	27412
817.512	27359
817.653	27507
817.793	27332
817.934	27416
818.075	27496
818.216	27496
818.356	27340
818.497	27382
818.638	27211
818.778	27157
818.919	27203
819.06	27252
819.2	27439
819.341	27504
819.481	27397
819.622	27507
819.762	27720
819.903	27701
820.043	27526
820.184	27732
820.324	27526
820.465	27538
820.605	27496
820.746	27583
820.886	27412
821.026	27488
821.167	27408
821.307	27542
821.447	27458
821.588	27393
821.728	27218
821.868	27085
822.008	26929
822.149	26967
822.289	26712
822.429	26674
822.569	26670
822.709	26587
822.849	26400
822.99	26309
823.13	26347
823.27	26438
823.41	26240
823.55	26142
823.69	26271
823.83	26187
823.97	26233
824.11	25974
824.25	26073
824.389	26069
824.529	26218
824.669	26119
824.809	26180
824.949	26305
825.089	26195
825.228	26161
825.368	25864
825.508	26081
825.648	25928
825.787	26126
825.927	26035
826.067	25936
826.206	25989
826.346	26046
826.485	25963
826.625	25970
826.765	26050
826.904	25917
827.044	25696
827.183	25731
827.323	25643
827.462	25734
827.601	25628
827.741	25658
827.88	25753
828.02	25734
828.159	25590
828.298	25544
828.437	25685
828.577	25510
828.716	25624
828.855	25666
828.994	25282
829.134	25354
829.273	25369
829.412	25422
829.551	25259
829.69	25301
829.829	25308
829.968	25312
830.107	25605
830.246	25426
830.385	25392
830.524	25168
830.663	25145
830.802	25122
830.941	24905
831.08	24901
831.219	24962
831.357	25038
831.496	25179
831.635	24943
831.774	24859
831.913	24878
832.051	24722
832.19	24650
832.329	24760
832.467	24608
832.606	24578
832.744	24646
832.883	24631
833.022	24555
833.16	24559
833.299	24700
833.437	24677
833.576	24585
833.714	24669
833.852	24772
833.991	24814
834.129	24806
834.267	24654
834.406	24760
834.544	24715
834.682	24566
834.821	24639
834.959	24745
835.097	24604
835.235	24700
835.373	24635
835.511	24559
835.65	24604
835.788	24555
835.926	24410
836.064	24258
836.202	24391
836.34	24395
836.478	24608
836.615	24418
836.753	24513
836.891	24566
837.029	24448
837.167	24464
837.305	24471
837.443	24353
837.58	24315
837.718	24437
837.856	24338
837.993	24216
838.131	24327
838.269	24136
838.406	24205
838.544	24163
838.681	24057
838.819	23961
838.956	23756
839.094	23794
839.231	23767
839.369	24034
839.506	24121
839.643	24030
839.781	23756
839.918	23668
840.055	23779
840.193	23824
840.33	23726
840.467	23630
840.604	23813
840.742	23931
840.879	23551
841.016	23570
841.153	23646
841.29	23752
841.427	23733
841.564	23714
841.701	23733
841.838	23756
841.975	23615
842.112	23684
842.249	23543
842.385	23486
842.522	23649
842.659	23596
842.796	23467
842.933	23478
843.069	23554
843.206	23307
843.343	23581
843.479	23490
843.616	23497
843.752	23444
843.889	23242
844.025	23318
844.162	23197
844.298	23231
844.435	23223
844.571	23151
844.708	23288
844.844	23383
844.98	23345
845.117	23353
845.253	23231
845.389	23174
845.525	23128
845.661	23056
845.798	23083
845.934	23037
846.07	22976
846.206	22908
846.342	23090
846.478	23029
846.614	22805
846.75	22634
846.886	22683
847.022	22797
847.158	22869
847.294	22809
847.429	22790
847.565	22725
847.701	22991
847.837	22459
847.972	22481
848.108	22386
848.244	22596
848.379	22246
848.515	22363
848.65	22310
848.786	22246
848.921	22280
849.057	22519
849.192	22413
849.328	22207
849.463	22299
849.598	22314
849.734	22246
849.869	22147
850.004	22116
850.14	22112
850.275	21994
850.41	22048
850.545	22078
850.68	22029
850.815	22059
850.95	22067
851.085	22196
851.22	22112
851.355	22139
851.49	22105
851.625	22082
851.76	21987
851.895	21953
852.03	22036
852.165	21979
852.299	22226
852.434	22192
852.569	22253
852.703	22059
852.838	22147
852.973	22185
853.107	22139
853.242	22025
853.376	21895
853.511	21728
853.645	21899
853.78	21979
853.914	21941
854.048	21892
854.183	21831
854.317	21918
854.451	22120
854.585	21979
854.72	21857
854.854	22086
854.988	21797
855.122	21873
855.256	21827
855.39	21831
855.524	21918
855.658	21911
855.792	21835
855.926	21937
856.06	21869
856.194	21934
856.327	21934
856.461	21857
856.595	21850
856.729	21857
856.862	21869
856.996	22036
857.13	21895
857.263	22013
857.397	22002
857.53	21972
857.664	21934
857.797	22029
857.931	21857
858.064	21831
858.197	22021
858.331	21842
858.464	21922
858.597	21804
858.731	21869
858.864	21808
858.997	21778
859.13	22078
859.263	21915
859.396	22013
859.529	21797
859.662	21911
859.795	21918
859.928	21953
860.061	22021
860.194	22082
860.327	22006
860.46	21880
860.592	22139
860.725	22040
860.858	21945
860.99	21781
861.123	21770
861.256	21903
861.388	21766
861.521	22622
861.653	21819
861.786	21583
861.918	21701
862.05	21785
862.183	21827
862.315	21854
862.447	21854
862.58	21713
862.712	21675
862.844	21599
862.976	21728
863.108	21679
863.24	21972
863.372	21526
863.504	21511
863.636	21652
863.768	21694
863.9	21515
864.032	21496
864.164	21614
864.296	21587
864.428	21644
864.559	21701
864.691	21572
864.823	21656
864.954	21648
865.086	21511
865.217	21545
865.349	21481
865.48	21515
865.612	21458
865.743	21671
865.875	21496
866.006	21374
866.137	21408
866.269	21386
866.4	21439
866.531	21325
866.662	21272
866.793	21420
866.924	21397
867.055	21378
867.186	21424
867.317	21378
867.448	21340
867.579	21454
867.71	21214
867.841	21416
867.972	21420
868.103	21519
868.233	21374
868.364	21348
868.495	21561
868.625	21599
868.756	21789
868.886	21576
869.017	21747
869.147	21743
869.278	21724
869.408	21682
869.539	21656
869.669	21842
869.799	21686
869.929	21785
870.06	21770
870.19	21934
870.32	21941
870.45	22086
870.58	21987
870.71	22116
870.84	22120
870.97	22051
871.1	22010
871.23	22276
871.36	22314
871.489	22177
871.619	22268
871.749	22116
871.879	22223
872.008	22379
872.138	22249
872.267	22261
872.397	22078
872.526	21918
872.656	22238
872.785	22112
872.915	22348
873.044	22436
873.173	22154
873.303	22253
873.432	22402
873.561	22379
873.69	22280
873.819	22109
873.948	22432
874.077	22249
874.206	22322
874.335	22276
874.464	22291
874.593	22440
874.722	22394
874.851	22443
874.979	22519
875.108	22637
875.237	22459
875.365	22382
875.494	22436
875.623	22523
875.751	22573
875.88	22535
876.008	22546
876.136	22706
876.265	22862
876.393	23003
876.521	22889
876.65	22995
876.778	22839
876.906	22847
877.034	22797
877.162	22908
877.29	22744
877.418	22812
877.546	22740
877.674	22824
877.802	22721
877.93	22713
878.058	22858
878.185	22542
878.313	22752
878.441	22782
878.568	22755
878.696	22736
878.824	22744
878.951	22980
879.079	23086
879.206	23079
879.333	22938
879.461	22869
879.588	22938
879.715	22946
879.842	23048
879.97	23010
880.097	22725
880.224	22637
880.351	22577
880.478	22691
880.605	22755
880.732	22584
880.859	22812
880.986	22603
881.112	22649
881.239	22481
881.366	22470
881.493	22196
881.619	22432
881.746	22185
881.872	22143
881.999	22246
882.125	22196
882.252	22154
882.378	22177
882.505	22303
882.631	22051
882.757	22017
882.883	21949
883.01	21922
883.136	21804
883.262	21709
883.388	21797
883.514	21895
883.64	21865
883.766	21873
883.892	21644
884.018	21717
884.143	21835
884.269	21842
884.395	21667
884.52	21496
884.646	21610
884.772	21420
884.897	21473
885.023	21564
885.148	21671
885.274	21713
885.399	21580
885.524	21488
885.65	21572
885.775	21576
885.9	21386
886.025	21648
886.15	21511
886.275	21618
886.4	21397
886.525	21610
886.65	21561
886.775	21435
886.9	21591
887.025	21747
887.149	21473
887.274	21272
887.399	21359
887.523	21363
887.648	21279
887.773	21176
887.897	21294
888.021	21256
888.146	21245
888.27	21454
888.395	21393
888.519	21359
888.643	21344
888.767	21340
888.891	21116
889.015	21074
889.139	21142
889.263	21096
889.387	21222
889.511	21207
889.635	21207
889.759	21104
889.883	21104
890.006	21123
890.13	21138
890.254	21017
890.377	20956
890.501	20823
890.624	20785
890.748	20952
890.871	20689
890.995	20609
891.118	20568
891.241	20621
891.364	20758
891.488	20716
891.611	20792
891.734	20659
891.857	20697
891.98	20765
892.103	20781
892.226	20617
892.349	20629
892.471	20457
892.594	20511
892.717	20617
892.839	20613
892.962	20613
893.085	20720
893.207	20545
893.33	20465
893.452	20511
893.575	20564
893.697	20609
893.819	20651
893.941	20746
894.064	20594
894.186	20507
894.308	20476
894.43	20530
894.552	20708
894.674	20720
894.796	20385
894.918	20648
895.04	20431
895.161	20727
895.283	20606
895.405	20476
895.526	20518
895.648	20587
895.769	20598
895.891	20480
896.012	20522
896.134	20480
896.255	20575
896.376	20526
896.498	20583
896.619	20712
896.74	20522
896.861	20568
896.982	20830
897.103	20998
897.224	20750
897.345	20769
897.466	20781
897.587	20678
897.708	21074
897.828	20743
897.949	20568
898.07	20583
898.19	20746
898.311	20895
898.431	20651
898.552	20727
898.672	20777
898.792	20921
898.913	20815
899.033	20629
899.153	20613
899.273	20473
899.393	20476
899.513	20511
899.633	20457
899.753	20530
899.873	20568
899.993	20549
900.113	20518
900.232	20473
900.352	20431
900.472	20290
900.591	20263
900.711	20275
900.83	20240
900.95	20343
901.069	20446
901.189	20324
901.308	19959
901.427	19856
901.546	19864
901.665	19799
901.784	19799
901.904	19704
902.023	19514
902.141	19392
902.26	19396
902.379	19464
902.498	19438
902.617	19354
902.735	19430
902.854	19373
902.973	19312
903.091	19034
903.21	19008
903.328	19103
903.446	18989
903.565	18757
903.683	18795
903.801	18772
903.919	18753
904.038	18810
904.156	18665
904.274	18650
904.392	18555
904.51	18441
904.627	18612
904.745	18764
904.863	18620
904.981	18350
905.098	18350
905.216	18235
905.334	18296
905.451	18243
905.569	18277
905.686	18216
905.803	18098
905.921	18015
906.038	18110
906.155	18049
906.272	17885
906.389	18041
906.506	17741
906.623	17821
906.74	17714
906.857	17646
906.974	17710
907.091	17821
907.208	17866
907.324	17824
907.441	17726
907.557	17512
907.674	17474
907.79	17474
907.907	17482
908.023	17486
908.139	17410
908.256	17471
908.372	17474
908.488	17410
908.604	17318
908.72	17216
908.836	17174
908.952	17212
909.068	17334
909.184	17303
909.3	17311
909.415	17231
909.531	17231
909.647	16957
909.762	16938
909.878	16862
909.993	16915
910.108	16828
910.224	16919
910.339	16866
910.454	16710
910.57	16778
910.685	16736
910.8	16869
910.915	16850
911.03	16736
911.145	16672
911.259	16417
911.374	16531
911.489	16436
911.604	16310
911.718	16284
911.833	16261
911.947	16234
912.062	16124
912.176	16375
912.291	16299
912.405	16249
912.519	16516
912.633	16428
912.748	16272
912.862	16215
912.976	16048
913.09	15994
913.204	16044
913.318	16010
913.431	16223
913.545	16021
913.659	16112
913.772	15987
913.886	15934
914	15762
914.113	15964
914.226	16067
914.34	15907
914.453	15675
914.566	15846
914.68	15759
914.793	15789
914.906	15481
915.019	15450
915.132	15405
915.245	15454
915.358	15408
915.47	15412
915.583	15587
915.696	15450
915.809	15477
915.921	15682
916.034	15424
916.146	15370
916.259	15420
916.371	15370
916.483	15428
916.595	15291
916.708	15294
916.82	15268
916.932	15211
917.044	15233
917.156	15131
917.268	15085
917.38	15135
917.491	15070
917.603	15062
917.715	15230
917.826	15093
917.938	15077
918.049	14921
918.161	15070
918.272	15119
918.384	15142
918.495	15036
918.606	14887
918.717	14815
918.828	14883
918.939	14899
919.05	14758
919.161	14838
919.272	14659
919.383	14743
919.494	14773
919.604	14994
919.715	14838
919.826	14762
919.936	14811
920.047	14842
920.157	14758
920.267	14982
920.378	14849
920.488	14792
920.598	14979
920.708	15192
920.818	14971
920.928	14944
921.038	15043
921.148	15131
921.258	14785
921.368	14632
921.477	14625
921.587	14617
921.697	14427
921.806	14541
921.916	14415
922.025	14233
922.134	14111
922.244	14180
922.353	14157
922.462	14005
922.571	13974
922.68	13845
922.789	13742
922.898	13807
923.007	13731
923.116	13818
923.224	13750
923.333	13826
923.442	13704
923.55	13727
923.659	13578
923.767	13757
923.876	13628
923.984	13628
924.092	13453
924.201	13605
924.309	13578
924.417	13559
924.525	13483
924.633	13434
924.741	14347
924.849	13217
924.956	13369
925.064	13266
925.172	13179
925.279	13301
925.387	13247
925.494	13198
925.602	13384
925.709	13278
925.816	13171
925.924	13110
926.031	13270
926.138	13247
926.245	13244
926.352	13099
926.459	13206
926.566	13232
926.673	13072
926.779	12981
926.886	12920
926.993	12768
927.099	12696
927.206	12863
927.312	12635
927.419	12779
927.525	12783
927.631	12760
927.737	12665
927.843	12669
927.95	12498
928.056	12589
928.162	12642
928.267	12707
928.373	13190
928.479	12677
928.585	12369
928.69	12456
928.796	12646
928.901	12452
929.007	12334
929.112	12513
929.218	12445
929.323	12365
929.428	12319
929.533	12437
929.638	12194
929.743	12175
929.848	12300
929.953	12266
930.058	12197
930.163	11988
930.267	12060
930.372	12205
930.477	11950
930.581	12220
930.685	12003
930.79	11832
930.894	11882
930.998	11912
931.103	11992
931.207	11657
931.311	11551
931.415	11448
931.519	11288
931.623	11288
