Data from test_V78500241_187.txt Node
Date: Fri Mar 25 15:43:05 CST 2022
User: usil
Spectrometer: V785-0024
Trigger mode: 0
Integration Time (sec): 4.000000E-1
Scans to average: 1
Nonlinearity correction enabled: false
Boxcar width: 0
Storing dark spectrum: false
XAxis mode: Wavelengths
Number of Pixels in Spectrum: 1024
>>>>>Begin Spectral Data<<<<<
801.071	29748
801.214	29573
801.356	29307
801.499	29353
801.641	29231
801.783	29166
801.926	29250
802.068	29235
802.211	29136
802.353	29231
802.496	28862
802.638	28839
802.78	28725
802.923	28771
803.065	28607
803.208	28801
803.35	28881
803.492	29140
803.635	28972
803.777	28733
803.919	29022
804.061	29208
804.204	29056
804.346	28949
804.488	28736
804.63	28900
804.773	28877
804.915	28809
805.057	29064
805.199	28938
805.341	29003
805.483	29064
805.626	28980
805.768	29033
805.91	29064
806.052	29075
806.194	28923
806.336	29200
806.478	29064
806.62	28976
806.762	29170
806.904	29375
807.046	29398
807.188	29577
807.33	29436
807.472	29570
807.614	29360
807.756	29273
807.898	29223
808.04	29109
808.182	29155
808.324	29235
808.465	29220
808.607	29486
808.749	29630
808.891	29699
809.033	29684
809.174	29638
809.316	29627
809.458	29680
809.6	29531
809.741	29581
809.883	29741
810.025	29832
810.166	30015
810.308	29859
810.45	29756
810.591	29722
810.733	29543
810.875	29524
811.016	29421
811.158	29486
811.299	29630
811.441	29695
811.582	29824
811.724	29455
811.865	29478
812.007	29497
812.148	29570
812.29	29611
812.431	29699
812.573	29809
812.714	29999
812.855	30095
812.997	30148
813.138	30247
813.279	30281
813.421	30125
813.562	30068
813.703	29802
813.845	29878
813.986	29402
814.127	29421
814.268	29200
814.41	29128
814.551	29189
814.692	29200
814.833	29162
814.974	29204
815.115	29086
815.256	28904
815.397	29056
815.539	28991
815.68	29029
815.821	28968
815.962	29086
816.103	28729
816.244	28869
816.385	28793
816.526	28641
816.666	28538
816.807	28375
816.948	28466
817.089	28409
817.23	28455
817.371	28390
817.512	28421
817.653	28337
817.793	28333
817.934	28405
818.075	28382
818.216	28432
818.356	28352
818.497	28394
818.638	28059
818.778	28246
818.919	28169
819.06	28101
819.2	28173
819.341	28257
819.481	28234
819.622	28478
819.762	28603
819.903	28546
820.043	28508
820.184	28428
820.324	28481
820.465	28527
820.605	28474
820.746	28322
820.886	28226
821.026	28249
821.167	28436
821.307	28557
821.447	28131
821.588	28101
821.728	27991
821.868	27907
822.008	27717
822.149	27823
822.289	27739
822.429	27431
822.569	27435
822.709	27378
822.849	27169
822.99	27119
823.13	27112
823.27	27116
823.41	27089
823.55	26788
823.69	27020
823.83	27005
823.97	27017
824.11	26849
824.25	26765
824.389	26705
824.529	26880
824.669	26758
824.809	27005
824.949	26872
825.089	26887
825.228	26804
825.368	26621
825.508	26587
825.648	26648
825.787	26800
825.927	26845
826.067	26613
826.206	26533
826.346	26526
826.485	26640
826.625	26606
826.765	26682
826.904	26590
827.044	26366
827.183	26320
827.323	26366
827.462	26317
827.601	26298
827.741	26267
827.88	26271
828.02	26286
828.159	26244
828.298	26225
828.437	26263
828.577	26248
828.716	26362
828.855	26142
828.994	26043
829.134	25947
829.273	26012
829.412	25822
829.551	25799
829.69	25921
829.829	25879
829.968	25864
830.107	26077
830.246	25875
830.385	25852
830.524	25765
830.663	25670
830.802	25620
830.941	25533
831.08	25601
831.219	25460
831.357	25620
831.496	25803
831.635	25388
831.774	25289
831.913	25259
832.051	25335
832.19	25244
832.329	25335
832.467	25103
832.606	25145
832.744	25015
832.883	25088
833.022	25069
833.16	25202
833.299	25190
833.437	25084
833.576	25251
833.714	25194
833.852	25244
833.991	25168
834.129	25247
834.267	25198
834.406	25099
834.544	25202
834.682	25042
834.821	25091
834.959	25194
835.097	25107
835.235	25137
835.373	25137
835.511	25042
835.65	24954
835.788	24943
835.926	24681
836.064	24829
836.202	24806
836.34	24981
836.478	24935
836.615	24935
836.753	24901
836.891	25110
837.029	24890
837.167	24833
837.305	24833
837.443	24844
837.58	24669
837.718	24905
837.856	24776
837.993	24703
838.131	24833
838.269	24601
838.406	24582
838.544	24509
838.681	24353
838.819	24338
838.956	24205
839.094	24201
839.231	24281
839.369	24319
839.506	24604
839.643	24414
839.781	24038
839.918	23996
840.055	24068
840.193	24041
840.33	24117
840.467	24079
840.604	24129
840.742	24300
840.879	23923
841.016	24007
841.153	23878
841.29	24030
841.427	24098
841.564	24053
841.701	24102
841.838	23992
841.975	23874
842.112	24022
842.249	23809
842.385	23805
842.522	23935
842.659	23855
842.796	23832
842.933	23901
843.069	23615
843.206	23649
843.343	23726
843.479	23760
843.616	23684
843.752	23596
843.889	23596
844.025	23649
844.162	23467
844.298	23570
844.435	23478
844.571	23391
844.708	23520
844.844	23695
844.98	23638
845.117	23509
845.253	23535
845.389	23448
845.525	23414
845.661	23364
845.798	23197
845.934	23181
846.07	23231
846.206	23200
846.342	23231
846.478	23140
846.614	22980
846.75	22824
846.886	22839
847.022	22911
847.158	22820
847.294	22805
847.429	22892
847.565	22904
847.701	23128
847.837	22603
847.972	22459
848.108	22668
848.244	22683
848.379	22504
848.515	22519
848.65	22344
848.786	22390
848.921	22440
849.057	22417
849.192	22596
849.328	22413
849.463	22535
849.598	22398
849.734	22306
849.869	22344
850.004	22162
850.14	22230
850.275	22219
850.41	22086
850.545	22055
850.68	22021
850.815	22219
850.95	22215
851.085	22306
851.22	22154
851.355	22177
851.49	22101
851.625	22154
851.76	22116
851.895	22055
852.03	22177
852.165	22200
852.299	22166
852.434	22204
852.569	22196
852.703	22166
852.838	22143
852.973	22234
853.107	22223
853.242	22116
853.376	21911
853.511	21926
853.645	21911
853.78	22086
853.914	21918
854.048	22013
854.183	21979
854.317	22078
854.451	22166
854.585	21949
854.72	21899
854.854	22032
854.988	21884
855.122	21964
855.256	21869
855.39	22032
855.524	22021
855.658	21884
855.792	22025
855.926	22025
856.06	21975
856.194	22013
856.327	21915
856.461	21987
856.595	21850
856.729	21945
856.862	22055
856.996	21968
857.13	21975
857.263	22082
857.397	21972
857.53	21937
857.664	21876
857.797	21964
857.931	22044
858.064	21972
858.197	21869
858.331	21876
858.464	21797
858.597	21747
858.731	21869
858.864	21975
858.997	21804
859.13	21789
859.263	21778
859.396	22090
859.529	21770
859.662	21865
859.795	21937
859.928	21793
860.061	22051
860.194	21983
860.327	21937
860.46	21922
860.592	21949
860.725	22051
860.858	22074
860.99	21842
861.123	21831
861.256	21823
861.388	21838
861.521	22466
861.653	21789
861.786	21732
861.918	21789
862.05	21895
862.183	21930
862.315	21991
862.447	21838
862.58	21979
862.712	21606
862.844	21743
862.976	21762
863.108	21625
863.24	21941
863.372	21515
863.504	21500
863.636	21671
863.768	21603
863.9	21534
864.032	21424
864.164	21492
864.296	21515
864.428	21614
864.559	21705
864.691	21663
864.823	21523
864.954	21481
865.086	21572
865.217	21454
865.349	21424
865.48	21481
865.612	21504
865.743	21603
865.875	21523
866.006	21401
866.137	21534
866.269	21507
866.4	21458
866.531	21485
866.662	21378
866.793	21530
866.924	21382
867.055	21435
867.186	21511
867.317	21310
867.448	21260
867.579	21397
867.71	21351
867.841	21332
867.972	21473
868.103	21374
868.233	21473
868.364	21443
868.495	21466
868.625	21648
868.756	21618
868.886	21523
869.017	21591
869.147	21720
869.278	21663
869.408	21542
869.539	21648
869.669	21656
869.799	21717
869.929	21781
870.06	21694
870.19	21922
870.32	21960
870.45	22025
870.58	21979
870.71	22090
870.84	22051
870.97	22048
871.1	21987
871.23	22185
871.36	22280
871.489	22135
871.619	22299
871.749	22196
871.879	22284
872.008	22249
872.138	22154
872.267	22215
872.397	22086
872.526	21960
872.656	22051
872.785	22036
872.915	22223
873.044	22325
873.173	22177
873.303	22272
873.432	22211
873.561	22303
873.69	22280
873.819	22207
873.948	22261
874.077	22185
874.206	22143
874.335	22299
874.464	22402
874.593	22489
874.722	22405
874.851	22436
874.979	22512
875.108	22508
875.237	22348
875.365	22303
875.494	22382
875.623	22577
875.751	22428
875.88	22371
876.008	22459
876.136	22668
876.265	22862
876.393	22972
876.521	22946
876.65	22854
876.778	22812
876.906	22752
877.034	22687
877.162	22774
877.29	22725
877.418	22862
877.546	22782
877.674	22881
877.802	22820
877.93	22873
878.058	22717
878.185	22748
878.313	22793
878.441	22805
878.568	22649
878.696	22634
878.824	22748
878.951	22831
879.079	22885
879.206	23025
879.333	22934
879.461	22793
879.588	22847
879.715	22908
879.842	23147
879.97	22892
880.097	22599
880.224	22603
880.351	22679
880.478	22607
880.605	22618
880.732	22580
880.859	22877
880.986	22687
881.112	22577
881.239	22470
881.366	22497
881.493	22287
881.619	22215
881.746	22276
881.872	22162
881.999	22230
882.125	22135
882.252	22299
882.378	22112
882.505	22211
882.631	22185
882.757	21956
882.883	21991
883.01	21827
883.136	21884
883.262	21812
883.388	21667
883.514	21766
883.64	21975
883.766	21854
883.892	21671
884.018	21656
884.143	21823
884.269	22036
884.395	21618
884.52	21481
884.646	21466
884.772	21443
884.897	21473
885.023	21542
885.148	21633
885.274	21656
885.399	21530
885.524	21587
885.65	21511
885.775	21572
885.9	21450
886.025	21599
886.15	21500
886.275	21454
886.4	21359
886.525	21431
886.65	21416
886.775	21428
886.9	21599
887.025	21736
887.149	21439
887.274	21218
887.399	21218
887.523	21260
887.648	21226
887.773	21279
887.897	21340
888.021	21382
888.146	21135
888.27	21348
888.395	21386
888.519	21260
888.643	21237
888.767	21268
888.891	21233
889.015	21116
889.139	21108
889.263	20956
889.387	21165
889.511	21264
889.635	21237
889.759	21017
889.883	20975
890.006	21123
890.13	21051
890.254	20906
890.377	20944
890.501	20746
890.624	20815
890.748	20941
890.871	20800
890.995	20488
891.118	20480
891.241	20667
891.364	20708
891.488	20716
891.611	20594
891.734	20632
891.857	20613
891.98	20670
892.103	20606
892.226	20598
892.349	20549
892.471	20362
892.594	20434
892.717	20537
892.839	20461
892.962	20541
893.085	20549
893.207	20473
893.33	20332
893.452	20434
893.575	20651
893.697	20442
893.819	20613
893.941	20758
894.064	20575
894.186	20434
894.308	20393
894.43	20587
894.552	20625
894.674	20480
894.796	20328
894.918	20484
895.04	20480
895.161	20598
895.283	20488
895.405	20446
895.526	20530
895.648	20495
895.769	20533
895.891	20522
896.012	20537
896.134	20583
896.255	20530
896.376	20556
896.498	20541
896.619	20621
896.74	20549
896.861	20651
896.982	20804
897.103	21066
897.224	20823
897.345	20796
897.466	20640
897.587	20796
897.708	20792
897.828	20762
897.949	20716
898.07	20476
898.19	20636
898.311	20811
898.431	20636
898.552	20727
898.672	20788
898.792	20674
898.913	20598
899.033	20484
899.153	20537
899.273	20423
899.393	20393
899.513	20530
899.633	20381
899.753	20495
899.873	20248
899.993	20427
900.113	20267
900.232	20457
900.352	20309
900.472	20202
900.591	20199
900.711	20305
900.83	20157
900.95	20282
901.069	20336
901.189	20043
901.308	19902
901.427	19849
901.546	19822
901.665	19757
901.784	19811
901.904	19616
902.023	19460
902.141	19312
902.26	19247
902.379	19392
902.498	19327
902.617	19225
902.735	19152
902.854	19225
902.973	19270
903.091	19027
903.21	18825
903.328	18886
903.446	18856
903.565	18738
903.683	18722
903.801	18532
903.919	18692
904.038	18681
904.156	18513
904.274	18521
904.392	18475
904.51	18563
904.627	18517
904.745	18547
904.863	18506
904.981	18281
905.098	18102
905.216	18136
905.334	18034
905.451	18281
905.569	18148
905.686	18163
905.803	18098
905.921	17965
906.038	17984
906.155	17946
906.272	17847
906.389	17870
906.506	17619
906.623	17676
906.74	17573
906.857	17448
906.974	17638
907.091	17657
907.208	17737
907.324	17642
907.441	17505
907.557	17433
907.674	17334
907.79	17330
907.907	17250
908.023	17341
908.139	17246
908.256	17216
908.372	17208
908.488	17109
908.604	16984
908.72	17052
908.836	17056
908.952	16987
909.068	17064
909.184	17121
909.3	17022
909.415	16976
909.531	17010
909.647	16744
909.762	16733
909.878	16637
909.993	16740
910.108	16706
910.224	16561
910.339	16634
910.454	16580
910.57	16474
910.685	16432
910.8	16740
910.915	16607
911.03	16588
911.145	16325
911.259	16303
911.374	16295
911.489	16223
911.604	16207
911.718	16029
911.833	15991
911.947	16097
912.062	15964
912.176	16124
912.291	16074
912.405	16029
912.519	16348
912.633	16257
912.748	16025
912.862	15876
912.976	15915
913.09	15778
913.204	15713
913.318	15800
913.431	15918
913.545	15785
913.659	15819
913.772	15793
913.886	15633
914	15595
914.113	15720
914.226	15736
914.34	15705
914.453	15538
914.566	15774
914.68	15595
914.793	15454
914.906	15473
915.019	15283
915.132	15272
915.245	15203
915.358	15245
915.47	15207
915.583	15203
915.696	15214
915.809	15264
915.921	15458
916.034	15176
916.146	15135
916.259	15100
916.371	15237
916.483	15138
916.595	15066
916.708	15047
916.82	15020
916.932	15009
917.044	14994
917.156	15058
917.268	14921
917.38	14823
917.491	14883
917.603	14899
917.715	14891
917.826	14914
917.938	14792
918.049	14640
918.161	14811
918.272	14857
918.384	14845
918.495	14777
918.606	14632
918.717	14549
918.828	14629
918.939	14606
919.05	14522
919.161	14552
919.272	14457
919.383	14400
919.494	14590
919.604	14804
919.715	14488
919.826	14549
919.936	14526
920.047	14674
920.157	14469
920.267	14743
920.378	14507
920.488	14499
920.598	14758
920.708	14868
920.818	14670
920.928	14625
921.038	14857
921.148	14845
921.258	14503
921.368	14355
921.477	14343
921.587	14225
921.697	14103
921.806	14271
921.916	14126
922.025	13967
922.134	13909
922.244	13913
922.353	13959
922.462	13818
922.571	13780
922.68	13639
922.789	13628
922.898	13578
923.007	13578
923.116	13597
923.224	13487
923.333	13457
923.442	13312
923.55	13335
923.659	13362
923.767	13495
923.876	13308
923.984	13259
924.092	13304
924.201	13377
924.309	13316
924.417	13278
924.525	13198
924.633	13217
924.741	14012
924.849	13000
924.956	13228
925.064	13038
925.172	12886
925.279	12962
925.387	13103
925.494	12947
925.602	13084
925.709	13019
925.816	12920
925.924	12833
926.031	12985
926.138	12935
926.245	12981
926.352	12745
926.459	12913
926.566	12966
926.673	12707
926.779	12749
926.886	12749
926.993	12544
927.099	12597
927.206	12471
927.312	12441
927.419	12658
927.525	12460
927.631	12525
927.737	12426
927.843	12300
927.95	12281
928.056	12296
928.162	12323
928.267	12353
928.373	12947
928.479	12376
928.585	12175
928.69	12319
928.796	12323
928.901	12182
929.007	12098
929.112	12110
929.218	12182
929.323	12076
929.428	12060
929.533	12220
929.638	11954
929.743	12015
929.848	12038
929.953	12030
930.058	11965
930.163	11798
930.267	11737
930.372	11965
930.477	11741
930.581	11969
930.685	11851
930.79	11562
930.894	11611
930.998	11539
931.103	11695
931.207	11299
931.311	11280
931.415	11162
931.519	10995
931.623	10869
