Data from test_V78500241_3441.txt Node
Date: Fri Mar 25 16:05:38 CST 2022
User: usil
Spectrometer: V785-0024
Trigger mode: 0
Integration Time (sec): 4.000000E-1
Scans to average: 1
Nonlinearity correction enabled: false
Boxcar width: 0
Storing dark spectrum: false
XAxis mode: Wavelengths
Number of Pixels in Spectrum: 1024
>>>>>Begin Spectral Data<<<<<
801.071	29094
801.214	28911
801.356	28569
801.499	28691
801.641	28363
801.783	28447
801.926	28573
802.068	28512
802.211	28432
802.353	28474
802.496	28139
802.638	28344
802.78	28128
802.923	28154
803.065	28169
803.208	28185
803.35	28207
803.492	28265
803.635	28436
803.777	28211
803.919	28390
804.061	28755
804.204	28462
804.346	28546
804.488	28478
804.63	28344
804.773	28382
804.915	28542
805.057	28649
805.199	28508
805.341	28409
805.483	28698
805.626	28653
805.768	28584
805.91	28577
806.052	28634
806.194	28550
806.336	28850
806.478	28675
806.62	28546
806.762	28946
806.904	29003
807.046	29113
807.188	29086
807.33	29029
807.472	29162
807.614	28953
807.756	29067
807.898	28991
808.04	28812
808.182	28908
808.324	29010
808.465	29079
808.607	29189
808.749	29284
808.891	29482
809.033	29490
809.174	29562
809.316	29414
809.458	29436
809.6	29258
809.741	29417
809.883	29368
810.025	29604
810.166	29524
810.308	29543
810.45	29630
810.591	29486
810.733	29337
810.875	29448
811.016	29246
811.158	29318
811.299	29296
811.441	29471
811.582	29592
811.724	29398
811.865	29375
812.007	29372
812.148	29543
812.29	29345
812.431	29471
812.573	29813
812.714	29726
812.855	29855
812.997	29954
813.138	30049
813.279	30117
813.421	29809
813.562	29741
813.703	29661
813.845	29604
813.986	29364
814.127	29181
814.268	29067
814.41	29102
814.551	29003
814.692	29181
814.833	28976
814.974	29025
815.115	29178
815.256	29060
815.397	28888
815.539	28953
815.68	28885
815.821	28869
815.962	28904
816.103	28881
816.244	28816
816.385	28713
816.526	28615
816.666	28596
816.807	28352
816.948	28375
817.089	28649
817.23	28428
817.371	28462
817.512	28360
817.653	28401
817.793	28257
817.934	28478
818.075	28344
818.216	28398
818.356	28284
818.497	28325
818.638	28204
818.778	28109
818.919	28204
819.06	28204
819.2	28257
819.341	28401
819.481	28478
819.622	28508
819.762	28938
819.903	28713
820.043	28603
820.184	28569
820.324	28531
820.465	28649
820.605	28470
820.746	28531
820.886	28398
821.026	28462
821.167	28531
821.307	28561
821.447	28413
821.588	28299
821.728	28276
821.868	28150
822.008	27835
822.149	27892
822.289	27819
822.429	27629
822.569	27549
822.709	27477
822.849	27370
822.99	27408
823.13	27291
823.27	27329
823.41	27116
823.55	27066
823.69	27256
823.83	27135
823.97	27195
824.11	27013
824.25	26971
824.389	27051
824.529	27135
824.669	27074
824.809	27142
824.949	27085
825.089	27028
825.228	27108
825.368	26967
825.508	26933
825.648	26906
825.787	27013
825.927	26925
826.067	26982
826.206	26929
826.346	27119
826.485	27017
826.625	27001
826.765	27047
826.904	26899
827.044	26670
827.183	26655
827.323	26720
827.462	26743
827.601	26648
827.741	26754
827.88	26792
828.02	26533
828.159	26735
828.298	26632
828.437	26826
828.577	26632
828.716	26739
828.855	26571
828.994	26396
829.134	26396
829.273	26446
829.412	26240
829.551	26294
829.69	26427
829.829	26396
829.968	26355
830.107	26358
830.246	26362
830.385	26286
830.524	26259
830.663	26172
830.802	26172
830.941	26020
831.08	26005
831.219	26043
831.357	26031
831.496	26191
831.635	25963
831.774	25776
831.913	25826
832.051	25890
832.19	25674
832.329	25750
832.467	25601
832.606	25430
832.744	25658
832.883	25655
833.022	25514
833.16	25662
833.299	25765
833.437	25590
833.576	25746
833.714	25757
833.852	25643
833.991	25693
834.129	25677
834.267	25776
834.406	25734
834.544	25689
834.682	25830
834.821	25655
834.959	25913
835.097	25567
835.235	25674
835.373	25616
835.511	25567
835.65	25552
835.788	25537
835.926	25343
836.064	25400
836.202	25457
836.34	25563
836.478	25518
836.615	25312
836.753	25548
836.891	25582
837.029	25556
837.167	25388
837.305	25445
837.443	25377
837.58	25377
837.718	25445
837.856	25293
837.993	25354
838.131	25304
838.269	25152
838.406	25270
838.544	25152
838.681	24973
838.819	25046
838.956	24806
839.094	24829
839.231	24837
839.369	25042
839.506	25274
839.643	25110
839.781	24878
839.918	24798
840.055	24787
840.193	24829
840.33	24677
840.467	24635
840.604	24696
840.742	24951
840.879	24559
841.016	24730
841.153	24585
841.29	24859
841.427	24741
841.564	24859
841.701	24631
841.838	24616
841.975	24692
842.112	24639
842.249	24517
842.385	24494
842.522	24635
842.659	24593
842.796	24525
842.933	24528
843.069	24437
843.206	24391
843.343	24604
843.479	24464
843.616	24471
843.752	24209
843.889	24239
844.025	24395
844.162	24136
844.298	24464
844.435	24235
844.571	24159
844.708	24197
844.844	24479
844.98	24380
845.117	24311
845.253	24106
845.389	24049
845.525	24144
845.661	24087
845.798	23977
845.934	24038
846.07	24022
846.206	23969
846.342	24076
846.478	23961
846.614	23809
846.75	23623
846.886	23661
847.022	23790
847.158	23684
847.294	23570
847.429	23878
847.565	23657
847.701	23908
847.837	23376
847.972	23429
848.108	23414
848.244	23452
848.379	23379
848.515	23220
848.65	23292
848.786	23204
848.921	23269
849.057	23296
849.192	23368
849.328	23299
849.463	23239
849.598	23265
849.734	23102
849.869	23200
850.004	23014
850.14	23102
850.275	23079
850.41	23048
850.545	22930
850.68	23098
850.815	23143
850.95	23181
851.085	23208
851.22	23299
851.355	23124
851.49	22984
851.625	22965
851.76	23018
851.895	22953
852.03	22980
852.165	23006
852.299	23105
852.434	23140
852.569	23086
852.703	23079
852.838	23022
852.973	23181
853.107	23216
853.242	23033
853.376	22831
853.511	22816
853.645	22809
853.78	22915
853.914	22873
854.048	22942
854.183	22782
854.317	22854
854.451	23128
854.585	22896
854.72	22900
854.854	22824
854.988	22869
855.122	22892
855.256	22725
855.39	22858
855.524	22972
855.658	22805
855.792	22961
855.926	22889
856.06	22759
856.194	22911
856.327	22858
856.461	22797
856.595	22835
856.729	22744
856.862	22862
856.996	22904
857.13	22816
857.263	23033
857.397	22790
857.53	22847
857.664	22744
857.797	22873
857.931	23083
858.064	22881
858.197	22923
858.331	22927
858.464	22816
858.597	22710
858.731	22869
858.864	22847
858.997	22767
859.13	22885
859.263	22866
859.396	22858
859.529	22767
859.662	22782
859.795	22759
859.928	22923
860.061	22942
860.194	23029
860.327	22987
860.46	22953
860.592	22896
860.725	23006
860.858	23003
860.99	22942
861.123	22858
861.256	22786
861.388	22790
861.521	23440
861.653	22752
861.786	22622
861.918	22748
862.05	22713
862.183	22812
862.315	22801
862.447	22778
862.58	22854
862.712	22653
862.844	22493
862.976	22706
863.108	22687
863.24	23014
863.372	22653
863.504	22497
863.636	22519
863.768	22660
863.9	22538
864.032	22478
864.164	22569
864.296	22565
864.428	22691
864.559	22645
864.691	22580
864.823	22577
864.954	22546
865.086	22512
865.217	22466
865.349	22360
865.48	22424
865.612	22451
865.743	22615
865.875	22516
866.006	22367
866.137	22508
866.269	22428
866.4	22398
866.531	22447
866.662	22356
866.793	22306
866.924	22363
867.055	22341
867.186	22329
867.317	22303
867.448	22261
867.579	22440
867.71	22356
867.841	22295
867.972	22424
868.103	22386
868.233	22344
868.364	22280
868.495	22455
868.625	22557
868.756	22653
868.886	22508
869.017	22504
869.147	22634
869.278	22736
869.408	22550
869.539	22672
869.669	22679
869.799	22649
869.929	22706
870.06	22740
870.19	22790
870.32	22824
870.45	23094
870.58	22968
870.71	23109
870.84	23124
870.97	23056
871.1	23102
871.23	23128
871.36	23181
871.489	23083
871.619	23064
871.749	23181
871.879	23197
872.008	23197
872.138	23227
872.267	23269
872.397	23048
872.526	23090
872.656	23041
872.785	23094
872.915	23239
873.044	23280
873.173	23239
873.303	23200
873.432	23242
873.561	23151
873.69	23261
873.819	23174
873.948	23334
874.077	23200
874.206	23071
874.335	23265
874.464	23406
874.593	23376
874.722	23570
874.851	23372
874.979	23463
875.108	23528
875.237	23395
875.365	23330
875.494	23509
875.623	23596
875.751	23467
875.88	23490
876.008	23630
876.136	23585
876.265	23855
876.393	24007
876.521	23969
876.65	23946
876.778	23958
876.906	23809
877.034	23798
877.162	23798
877.29	23821
877.418	23813
877.546	23965
877.674	23767
877.802	23790
877.93	23748
878.058	23695
878.185	23710
878.313	23703
878.441	23843
878.568	23592
878.696	23745
878.824	23832
878.951	23771
879.079	24041
879.206	24030
879.333	24129
879.461	23756
879.588	23958
879.715	24034
879.842	24045
879.97	24083
880.097	23729
880.224	23539
880.351	23745
880.478	23707
880.605	23680
880.732	23760
880.859	23980
880.986	23554
881.112	23630
881.239	23406
881.366	23398
881.493	23398
881.619	23147
881.746	23250
881.872	23200
881.999	23102
882.125	23273
882.252	23239
882.378	23151
882.505	23090
882.631	23090
882.757	22938
882.883	22900
883.01	22786
883.136	22744
883.262	22691
883.388	22672
883.514	22805
883.64	22892
883.766	22744
883.892	22618
884.018	22687
884.143	22866
884.269	22881
884.395	22550
884.52	22489
884.646	22497
884.772	22329
884.897	22382
885.023	22516
885.148	22599
885.274	22641
885.399	22546
885.524	22451
885.65	22417
885.775	22512
885.9	22367
886.025	22485
886.15	22588
886.275	22405
886.4	22394
886.525	22481
886.65	22405
886.775	22436
886.9	22508
887.025	22630
887.149	22447
887.274	22303
887.399	22150
887.523	22086
887.648	22215
887.773	22226
887.897	22341
888.021	22207
888.146	22124
888.27	22284
888.395	22352
888.519	22265
888.643	22226
888.767	22242
888.891	22166
889.015	22112
889.139	22063
889.263	21895
889.387	22120
889.511	22185
889.635	22032
889.759	22032
889.883	21991
890.006	21873
890.13	22112
890.254	22002
890.377	21880
890.501	21800
890.624	21698
890.748	21766
890.871	21679
890.995	21435
891.118	21530
891.241	21580
891.364	21671
891.488	21644
891.611	21606
891.734	21576
891.857	21625
891.98	21557
892.103	21591
892.226	21610
892.349	21549
892.471	21321
892.594	21435
892.717	21485
892.839	21351
892.962	21496
893.085	21458
893.207	21538
893.33	21367
893.452	21359
893.575	21378
893.697	21435
893.819	21534
893.941	21686
894.064	21561
894.186	21325
894.308	21310
894.43	21443
894.552	21538
894.674	21477
894.796	21393
894.918	21408
895.04	21325
895.161	21523
895.283	21504
895.405	21462
895.526	21519
895.648	21488
895.769	21435
895.891	21428
896.012	21504
896.134	21443
896.255	21412
896.376	21272
896.498	21336
896.619	21439
896.74	21397
896.861	21435
896.982	21713
897.103	21732
897.224	21583
897.345	21686
897.466	21660
897.587	21564
897.708	21701
897.828	21603
897.949	21583
898.07	21496
898.19	21447
898.311	21793
898.431	21633
898.552	21591
898.672	21778
898.792	21618
898.913	21633
899.033	21507
899.153	21473
899.273	21256
899.393	21252
899.513	21416
899.633	21408
899.753	21397
899.873	21313
899.993	21302
900.113	21241
900.232	21203
900.352	21184
900.472	21218
900.591	21020
900.711	21020
900.83	21131
900.95	21108
901.069	21150
901.189	20929
901.308	20807
901.427	20644
901.546	20632
901.665	20762
901.784	20575
901.904	20514
902.023	20480
902.141	20278
902.26	20176
902.379	20206
902.498	20119
902.617	20142
902.735	20199
902.854	20138
902.973	20149
903.091	19845
903.21	19845
903.328	19890
903.446	19746
903.565	19677
903.683	19685
903.801	19373
903.919	19590
904.038	19487
904.156	19411
904.274	19445
904.392	19259
904.51	19285
904.627	19209
904.745	19339
904.863	19358
904.981	19053
905.098	18913
905.216	19084
905.334	19118
905.451	19084
905.569	18852
905.686	19126
905.803	19038
905.921	18741
906.038	18909
906.155	18840
906.272	18650
906.389	18779
906.506	18623
906.623	18582
906.74	18665
906.857	18433
906.974	18521
907.091	18475
907.208	18677
907.324	18612
907.441	18422
907.557	18281
907.674	18224
907.79	18194
907.907	18266
908.023	18171
908.139	18292
908.256	18163
908.372	18148
908.488	18205
908.604	18038
908.72	18076
908.836	18030
908.952	17980
909.068	17984
909.184	18011
909.3	17771
909.415	18034
909.531	18003
909.647	17714
909.762	17672
909.878	17615
909.993	17714
910.108	17543
910.224	17726
910.339	17577
910.454	17512
910.57	17467
910.685	17387
910.8	17653
910.915	17577
911.03	17444
911.145	17334
911.259	17330
911.374	17246
911.489	17178
911.604	17029
911.718	16915
911.833	16877
911.947	17014
912.062	16923
912.176	16965
912.291	16999
912.405	16862
912.519	17109
912.633	17117
912.748	16972
912.862	16968
912.976	16847
913.09	16630
913.204	16691
913.318	16972
913.431	16839
913.545	16835
913.659	16889
913.772	16801
913.886	16577
914	16550
914.113	16588
914.226	16470
914.34	16672
914.453	16577
914.566	16588
914.68	16489
914.793	16432
914.906	16181
915.019	16086
915.132	16139
915.245	16162
915.358	16086
915.47	16071
915.583	16192
915.696	16162
915.809	16177
915.921	16276
916.034	16109
916.146	16051
916.259	16010
916.371	16078
916.483	16071
916.595	15907
916.708	16029
916.82	15918
916.932	15949
917.044	15911
917.156	15816
917.268	15717
917.38	15907
917.491	15698
917.603	15713
917.715	15816
917.826	15789
917.938	15587
918.049	15534
918.161	15686
918.272	15774
918.384	15816
918.495	15728
918.606	15557
918.717	15431
918.828	15477
918.939	15564
919.05	15351
919.161	15401
919.272	15218
919.383	15424
919.494	15576
919.604	15694
919.715	15492
919.826	15294
919.936	15370
920.047	15591
920.157	15405
920.267	15572
920.378	15435
920.488	15298
920.598	15622
920.708	15732
920.818	15530
920.928	15587
921.038	15823
921.148	15800
921.258	15325
921.368	15279
921.477	15252
921.587	15169
921.697	14998
921.806	15203
921.916	14960
922.025	14883
922.134	14902
922.244	14758
922.353	14815
922.462	14670
922.571	14583
922.68	14492
922.789	14343
922.898	14454
923.007	14446
923.116	14419
923.224	14450
923.333	14381
923.442	14248
923.55	14206
923.659	14210
923.767	14286
923.876	14199
923.984	14290
924.092	14081
924.201	14039
924.309	14202
924.417	14115
924.525	14050
924.633	14039
924.741	15001
924.849	13887
924.956	13989
925.064	13807
925.172	13803
925.279	13795
925.387	13788
925.494	13852
925.602	13841
925.709	13746
925.816	13696
925.924	13696
926.031	13746
926.138	13670
926.245	13719
926.352	13636
926.459	13696
926.566	13704
926.673	13677
926.779	13499
926.886	13411
926.993	13365
927.099	13312
927.206	13312
927.312	13278
927.419	13373
927.525	13331
927.631	13297
927.737	13141
927.843	13088
927.95	13088
928.056	13129
928.162	13141
928.267	13118
928.373	13791
928.479	13251
928.585	12993
928.69	13145
928.796	13133
928.901	12985
929.007	12856
929.112	12977
929.218	12924
929.323	12848
929.428	12829
929.533	13004
929.638	12806
929.743	12776
929.848	12844
929.953	12757
930.058	12673
930.163	12483
930.267	12547
930.372	12650
930.477	12433
930.581	12681
930.685	12483
930.79	12429
930.894	12414
930.998	12334
931.103	12452
931.207	12076
931.311	12072
931.415	11843
931.519	11775
931.623	11741
