Data from test_V78500241_2092.txt Node
Date: Fri Mar 25 15:56:17 CST 2022
User: usil
Spectrometer: V785-0024
Trigger mode: 0
Integration Time (sec): 4.000000E-1
Scans to average: 1
Nonlinearity correction enabled: false
Boxcar width: 0
Storing dark spectrum: false
XAxis mode: Wavelengths
Number of Pixels in Spectrum: 1024
>>>>>Begin Spectral Data<<<<<
801.071	28512
801.214	28542
801.356	28405
801.499	28143
801.641	28150
801.783	28006
801.926	28074
802.068	28093
802.211	28135
802.353	28051
802.496	27964
802.638	27785
802.78	27857
802.923	27907
803.065	27759
803.208	27816
803.35	27892
803.492	28002
803.635	28070
803.777	27941
803.919	28086
804.061	28329
804.204	28116
804.346	28017
804.488	27983
804.63	27869
804.773	27983
804.915	28112
805.057	28166
805.199	28131
805.341	28196
805.483	28310
805.626	28090
805.768	28116
805.91	28101
806.052	28093
806.194	28074
806.336	28352
806.478	28348
806.62	28249
806.762	28333
806.904	28561
807.046	28694
807.188	28634
807.33	28573
807.472	28641
807.614	28622
807.756	28721
807.898	28489
808.04	28565
808.182	28478
808.324	28577
808.465	28504
808.607	28812
808.749	28900
808.891	28980
809.033	29033
809.174	29022
809.316	28881
809.458	28888
809.6	28812
809.741	28965
809.883	29029
810.025	29200
810.166	29178
810.308	29086
810.45	29075
810.591	29067
810.733	28896
810.875	29014
811.016	28923
811.158	28896
811.299	29052
811.441	28995
811.582	29067
811.724	28942
811.865	28923
812.007	29014
812.148	28809
812.29	28888
812.431	29041
812.573	29193
812.714	29337
812.855	29326
812.997	29562
813.138	29646
813.279	29581
813.421	29368
813.562	29398
813.703	29216
813.845	29174
813.986	28968
814.127	28664
814.268	28744
814.41	28736
814.551	28649
814.692	28672
814.833	28508
814.974	28493
815.115	28580
815.256	28382
815.397	28531
815.539	28653
815.68	28356
815.821	28337
815.962	28299
816.103	28405
816.244	28188
816.385	28234
816.526	28135
816.666	28010
816.807	27861
816.948	27953
817.089	28070
817.23	27911
817.371	27888
817.512	27732
817.653	27880
817.793	27861
817.934	27941
818.075	27914
818.216	28010
818.356	27774
818.497	27835
818.638	27724
818.778	27675
818.919	27682
819.06	27709
819.2	27838
819.341	27960
819.481	27926
819.622	28109
819.762	28242
819.903	28169
820.043	28200
820.184	28082
820.324	28120
820.465	28082
820.605	28029
820.746	28048
820.886	27937
821.026	27972
821.167	27895
821.307	28040
821.447	27964
821.588	27808
821.728	27739
821.868	27644
822.008	27306
822.149	27321
822.289	27462
822.429	27135
822.569	26990
822.709	27207
822.849	26807
822.99	26998
823.13	26982
823.27	26910
823.41	26663
823.55	26465
823.69	26636
823.83	26682
823.97	26716
824.11	26579
824.25	26404
824.389	26629
824.529	26594
824.669	26549
824.809	26609
824.949	26613
825.089	26724
825.228	26552
825.368	26450
825.508	26499
825.648	26450
825.787	26469
825.927	26511
826.067	26533
826.206	26495
826.346	26434
826.485	26609
826.625	26518
826.765	26674
826.904	26400
827.044	26214
827.183	26271
827.323	26115
827.462	26244
827.601	26081
827.741	26031
827.88	26320
828.02	26050
828.159	26142
828.298	26012
828.437	26130
828.577	26100
828.716	26191
828.855	26005
828.994	25712
829.134	25875
829.273	25913
829.412	25826
829.551	25852
829.69	25670
829.829	25917
829.968	25860
830.107	25936
830.246	25940
830.385	25761
830.524	25677
830.663	25620
830.802	25510
830.941	25438
831.08	25502
831.219	25525
831.357	25525
831.496	25708
831.635	25449
831.774	25407
831.913	25282
832.051	25137
832.19	25247
832.329	25335
832.467	25053
832.606	24962
832.744	25114
832.883	25164
833.022	25027
833.16	25145
833.299	25046
833.437	25164
833.576	25213
833.714	25118
833.852	25308
833.991	25171
834.129	25301
834.267	25190
834.406	25190
834.544	25206
834.682	25065
834.821	25259
834.959	25285
835.097	25038
835.235	25213
835.373	25164
835.511	25213
835.65	24977
835.788	25015
835.926	24863
836.064	24821
836.202	24867
836.34	24909
836.478	25072
836.615	24928
836.753	25004
836.891	25103
837.029	24996
837.167	24954
837.305	24802
837.443	24875
837.58	24722
837.718	24924
837.856	24856
837.993	24897
838.131	24764
838.269	24684
838.406	24734
838.544	24601
838.681	24490
838.819	24422
838.956	24281
839.094	24258
839.231	24342
839.369	24494
839.506	24730
839.643	24620
839.781	24254
839.918	24380
840.055	24148
840.193	24194
840.33	24289
840.467	24182
840.604	24213
840.742	24547
840.879	24083
841.016	24194
841.153	24026
841.29	24277
841.427	24220
841.564	24209
841.701	24205
841.838	24133
841.975	24155
842.112	24235
842.249	24041
842.385	24053
842.522	24228
842.659	24034
842.796	23984
842.933	23973
843.069	23745
843.206	23885
843.343	23931
843.479	23965
843.616	23809
843.752	23703
843.889	23828
844.025	23901
844.162	23722
844.298	23870
844.435	23748
844.571	23672
844.708	23745
844.844	23965
844.98	23851
845.117	23931
845.253	23748
845.389	23657
845.525	23604
845.661	23661
845.798	23490
845.934	23551
846.07	23368
846.206	23551
846.342	23539
846.478	23421
846.614	23296
846.75	23128
846.886	23151
847.022	23200
847.158	23269
847.294	23094
847.429	23189
847.565	23052
847.701	23395
847.837	23003
847.972	23041
848.108	23143
848.244	22953
848.379	22759
848.515	22721
848.65	22736
848.786	22668
848.921	22801
849.057	22847
849.192	22953
849.328	22698
849.463	22854
849.598	22759
849.734	22634
849.869	22611
850.004	22542
850.14	22653
850.275	22615
850.41	22535
850.545	22386
850.68	22592
850.815	22637
850.95	22592
851.085	22752
851.22	22687
851.355	22462
851.49	22527
851.625	22538
851.76	22466
851.895	22466
852.03	22611
852.165	22538
852.299	22649
852.434	22660
852.569	22603
852.703	22519
852.838	22653
852.973	22748
853.107	22599
853.242	22546
853.376	22344
853.511	22299
853.645	22367
853.78	22413
853.914	22459
854.048	22363
854.183	22402
854.317	22325
854.451	22599
854.585	22474
854.72	22318
854.854	22474
854.988	22257
855.122	22284
855.256	22211
855.39	22219
855.524	22257
855.658	22352
855.792	22375
855.926	22413
856.06	22386
856.194	22432
856.327	22223
856.461	22261
856.595	22325
856.729	22398
856.862	22500
856.996	22398
857.13	22459
857.263	22455
857.397	22478
857.53	22246
857.664	22508
857.797	22478
857.931	22428
858.064	22394
858.197	22409
858.331	22379
858.464	22226
858.597	22120
858.731	22318
858.864	22428
858.997	22337
859.13	22295
859.263	22257
859.396	22440
859.529	22443
859.662	22375
859.795	22379
859.928	22417
860.061	22516
860.194	22478
860.327	22398
860.46	22322
860.592	22546
860.725	22584
860.858	22398
860.99	22242
861.123	22234
861.256	22478
861.388	22371
861.521	23048
861.653	22230
861.786	22105
861.918	22143
862.05	22192
862.183	22242
862.315	22249
862.447	22291
862.58	22234
862.712	22055
862.844	22051
862.976	22070
863.108	22059
863.24	22611
863.372	22044
863.504	22040
863.636	22032
863.768	21972
863.9	22070
864.032	21926
864.164	22059
864.296	22101
864.428	22101
864.559	22128
864.691	22139
864.823	22063
864.954	22048
865.086	22070
865.217	21987
865.349	21888
865.48	21846
865.612	21854
865.743	22051
865.875	22017
866.006	21880
866.137	21991
866.269	21800
866.4	21876
866.531	21857
866.662	21808
866.793	21838
866.924	21884
867.055	21876
867.186	21915
867.317	21884
867.448	21895
867.579	21736
867.71	21755
867.841	21743
867.972	21762
868.103	21797
868.233	21869
868.364	21918
868.495	21949
868.625	22025
868.756	22181
868.886	21934
869.017	22032
869.147	22185
869.278	22226
869.408	22078
869.539	22048
869.669	22200
869.799	22025
869.929	22120
870.06	22257
870.19	22527
870.32	22440
870.45	22421
870.58	22459
870.71	22649
870.84	22717
870.97	22512
871.1	22550
871.23	22596
871.36	22774
871.489	22634
871.619	22603
871.749	22816
871.879	22668
872.008	22782
872.138	22706
872.267	22778
872.397	22588
872.526	22504
872.656	22512
872.785	22557
872.915	22725
873.044	22866
873.173	22702
873.303	22691
873.432	22805
873.561	22869
873.69	22778
873.819	22672
873.948	22774
874.077	22797
874.206	22649
874.335	22744
874.464	22847
874.593	22987
874.722	22793
874.851	22801
874.979	22980
875.108	22980
875.237	22904
875.365	22892
875.494	22938
875.623	23060
875.751	22949
875.88	22976
876.008	23071
876.136	23128
876.265	23452
876.393	23531
876.521	23372
876.65	23436
876.778	23185
876.906	23398
877.034	23090
877.162	23273
877.29	23189
877.418	23265
877.546	23395
877.674	23204
877.802	23322
877.93	23239
878.058	23318
878.185	23193
878.313	23269
878.441	23307
878.568	23086
878.696	23239
878.824	23311
878.951	23482
879.079	23444
879.206	23619
879.333	23516
879.461	23299
879.588	23501
879.715	23421
879.842	23448
879.97	23398
880.097	23003
880.224	23025
880.351	23105
880.478	23041
880.605	23113
880.732	23029
880.859	23368
880.986	23060
881.112	23044
881.239	23044
881.366	22767
881.493	22862
881.619	22580
881.746	22767
881.872	22782
881.999	22580
882.125	22691
882.252	22683
882.378	22664
882.505	22801
882.631	22504
882.757	22424
882.883	22375
883.01	22333
883.136	22154
883.262	22204
883.388	22143
883.514	22287
883.64	22344
883.766	22249
883.892	22109
884.018	22093
884.143	22204
884.269	22367
884.395	22074
884.52	21907
884.646	21991
884.772	21960
884.897	21739
885.023	22010
885.148	22154
885.274	22101
885.399	22097
885.524	21941
885.65	22143
885.775	22010
885.9	21850
886.025	22059
886.15	22051
886.275	21934
886.4	21888
886.525	21911
886.65	21838
886.775	21835
886.9	22055
887.025	22219
887.149	21934
887.274	21835
887.399	21686
887.523	21705
887.648	21603
887.773	21660
887.897	21717
888.021	21808
888.146	21690
888.27	21797
888.395	21804
888.519	21629
888.643	21770
888.767	21720
888.891	21614
889.015	21507
889.139	21542
889.263	21591
889.387	21603
889.511	21637
889.635	21660
889.759	21447
889.883	21481
890.006	21507
890.13	21606
890.254	21420
890.377	21462
890.501	21355
890.624	21249
890.748	21370
890.871	21165
890.995	20994
891.118	21017
891.241	21058
891.364	21051
891.488	21150
891.611	21100
891.734	21070
891.857	21066
891.98	21013
892.103	21104
892.226	21093
892.349	21013
892.471	20834
892.594	20883
892.717	21051
892.839	20902
892.962	21039
893.085	21051
893.207	20811
893.33	20948
893.452	20921
893.575	21055
893.697	20887
893.819	21135
893.941	21085
894.064	21195
894.186	20952
894.308	20811
894.43	21066
894.552	21001
894.674	20941
894.796	20861
894.918	20902
895.04	20868
895.161	21047
895.283	20975
895.405	20849
895.526	20899
895.648	20887
895.769	21036
895.891	21055
896.012	21013
896.134	20925
896.255	20990
896.376	20971
896.498	20914
896.619	20910
896.74	20887
896.861	20941
896.982	21161
897.103	21367
897.224	21226
897.345	21077
897.466	21222
897.587	21020
897.708	21241
897.828	21131
897.949	21081
898.07	20979
898.19	21077
898.311	21230
898.431	21074
898.552	21211
898.672	21138
898.792	21180
898.913	21173
899.033	21017
899.153	20895
899.273	20891
899.393	20868
899.513	20872
899.633	20883
899.753	20998
899.873	20773
899.993	21013
900.113	20796
900.232	20800
900.352	20693
900.472	20701
900.591	20606
900.711	20693
900.83	20682
900.95	20716
901.069	20754
901.189	20568
901.308	20278
901.427	20271
901.546	20176
901.665	20218
901.784	20191
901.904	20134
902.023	19951
902.141	19826
902.26	19883
902.379	19799
902.498	19746
902.617	19719
902.735	19769
902.854	19708
902.973	19548
903.091	19487
903.21	19396
903.328	19411
903.446	19362
903.565	19194
903.683	19209
903.801	19046
903.919	19213
904.038	19110
904.156	19027
904.274	19065
904.392	18993
904.51	18837
904.627	19023
904.745	19050
904.863	19023
904.981	18753
905.098	18601
905.216	18570
905.334	18620
905.451	18585
905.569	18654
905.686	18608
905.803	18593
905.921	18357
906.038	18525
906.155	18365
906.272	18403
906.389	18205
906.506	18117
906.623	18144
906.74	18216
906.857	18064
906.974	18038
907.091	18133
907.208	18224
907.324	18068
907.441	17973
907.557	17893
907.674	17885
907.79	17741
907.907	17707
908.023	17893
908.139	17813
908.256	17828
908.372	17832
908.488	17661
908.604	17604
908.72	17516
908.836	17592
908.952	17558
909.068	17562
909.184	17684
909.3	17611
909.415	17547
909.531	17501
909.647	17349
909.762	17307
909.878	17277
909.993	17303
910.108	17265
910.224	17334
910.339	17067
910.454	17094
910.57	17071
910.685	16949
910.8	17280
910.915	17246
911.03	17079
911.145	16839
911.259	16908
911.374	16839
911.489	16702
911.604	16668
911.718	16637
911.833	16664
911.947	16592
912.062	16337
912.176	16588
912.291	16561
912.405	16451
912.519	16740
912.633	16801
912.748	16725
912.862	16615
912.976	16303
913.09	16322
913.204	16375
913.318	16379
913.431	16481
913.545	16462
913.659	16474
913.772	16318
913.886	16223
914	16215
914.113	16341
914.226	16405
914.34	16276
914.453	16131
914.566	16276
914.68	16090
914.793	16051
914.906	15838
915.019	15797
915.132	15755
915.245	15720
915.358	15671
915.47	15816
915.583	15827
915.696	15797
915.809	15892
915.921	15949
916.034	15736
916.146	15747
916.259	15705
916.371	15755
916.483	15720
916.595	15603
916.708	15690
916.82	15568
916.932	15534
917.044	15591
917.156	15606
917.268	15492
917.38	15359
917.491	15424
917.603	15412
917.715	15424
917.826	15473
917.938	15321
918.049	15237
918.161	15302
918.272	15473
918.384	15397
918.495	15310
918.606	15249
918.717	15112
918.828	15138
918.939	15283
919.05	15055
919.161	15100
919.272	14952
919.383	15024
919.494	15161
919.604	15370
919.715	15108
919.826	14986
919.936	15036
920.047	15127
920.157	15123
920.267	15180
920.378	15097
920.488	14967
920.598	15252
920.708	15317
920.818	15287
920.928	15256
921.038	15351
921.148	15344
921.258	15089
921.368	14982
921.477	14830
921.587	14796
921.697	14716
921.806	14861
921.916	14670
922.025	14514
922.134	14450
922.244	14389
922.353	14454
922.462	14347
922.571	14282
922.68	14199
922.789	14142
922.898	14088
923.007	14119
923.116	14088
923.224	14039
923.333	14054
923.442	13944
923.55	13970
923.659	13913
923.767	13932
923.876	13837
923.984	13963
924.092	13719
924.201	13879
924.309	13761
924.417	13784
924.525	13780
924.633	13822
924.741	14651
924.849	13582
924.956	13689
925.064	13506
925.172	13460
925.279	13468
925.387	13495
925.494	13483
925.602	13601
925.709	13506
925.816	13362
925.924	13434
926.031	13548
926.138	13308
926.245	13491
926.352	13274
926.459	13472
926.566	13407
926.673	13339
926.779	13244
926.886	13141
926.993	13000
927.099	13057
927.206	13000
927.312	12916
927.419	13084
927.525	12966
927.631	12993
927.737	12856
927.843	12920
927.95	12745
928.056	12844
928.162	12935
928.267	12871
928.373	13480
928.479	12886
928.585	12662
928.69	12734
928.796	12905
928.901	12681
929.007	12513
929.112	12688
929.218	12658
929.323	12547
929.428	12642
929.533	12673
929.638	12467
929.743	12437
929.848	12498
929.953	12475
930.058	12342
930.163	12247
930.267	12247
930.372	12380
930.477	12155
930.581	12369
930.685	12300
930.79	12068
930.894	12087
930.998	12083
931.103	12186
931.207	11889
931.311	11821
931.415	11653
931.519	11547
931.623	11444
