Data from test_V78500241_1471.txt Node
Date: Fri Mar 25 15:51:59 CST 2022
User: usil
Spectrometer: V785-0024
Trigger mode: 0
Integration Time (sec): 4.000000E-1
Scans to average: 1
Nonlinearity correction enabled: false
Boxcar width: 0
Storing dark spectrum: false
XAxis mode: Wavelengths
Number of Pixels in Spectrum: 1024
>>>>>Begin Spectral Data<<<<<
801.071	27488
801.214	27435
801.356	27287
801.499	27245
801.641	27096
801.783	26994
801.926	27100
802.068	27032
802.211	26883
802.353	26887
802.496	26686
802.638	26670
802.78	26648
802.923	26564
803.065	26552
803.208	26644
803.35	26644
803.492	26842
803.635	26880
803.777	26826
803.919	26849
804.061	27157
804.204	26880
804.346	26963
804.488	26826
804.63	26948
804.773	26834
804.915	26853
805.057	26979
805.199	26887
805.341	27051
805.483	27138
805.626	26998
805.768	26933
805.91	27051
806.052	26960
806.194	26800
806.336	27055
806.478	26940
806.62	27074
806.762	27085
806.904	27469
807.046	27439
807.188	27439
807.33	27401
807.472	27625
807.614	27439
807.756	27363
807.898	27458
808.04	27226
808.182	27256
808.324	27294
808.465	27332
808.607	27485
808.749	27637
808.891	27732
809.033	27781
809.174	27587
809.316	27667
809.458	27534
809.6	27504
809.741	27778
809.883	27785
810.025	27926
810.166	27876
810.308	27880
810.45	27736
810.591	27789
810.733	27637
810.875	27610
811.016	27526
811.158	27363
811.299	27682
811.441	27724
811.582	27880
811.724	27656
811.865	27534
812.007	27580
812.148	27568
812.29	27656
812.431	27736
812.573	27846
812.714	28139
812.855	28097
812.997	28207
813.138	28344
813.279	28333
813.421	28196
813.562	28109
813.703	27865
813.845	27766
813.986	27603
814.127	27447
814.268	27203
814.41	27283
814.551	27237
814.692	27424
814.833	27226
814.974	27214
815.115	27355
815.256	27070
815.397	27108
815.539	27142
815.68	27085
815.821	27024
815.962	27211
816.103	27093
816.244	26933
816.385	26940
816.526	26819
816.666	26724
816.807	26514
816.948	26655
817.089	26708
817.23	26602
817.371	26507
817.512	26503
817.653	26511
817.793	26507
817.934	26526
818.075	26579
818.216	26625
818.356	26404
818.497	26617
818.638	26180
818.778	26168
818.919	26393
819.06	26195
819.2	26419
819.341	26465
819.481	26495
819.622	26781
819.762	26834
819.903	26663
820.043	26720
820.184	26731
820.324	26716
820.465	26686
820.605	26549
820.746	26560
820.886	26575
821.026	26568
821.167	26461
821.307	26739
821.447	26564
821.588	26583
821.728	26465
821.868	26183
822.008	26138
822.149	26008
822.289	25955
822.429	25795
822.569	25727
822.709	25708
822.849	25590
822.99	25548
823.13	25521
823.27	25400
823.41	25289
823.55	25217
823.69	25324
823.83	25266
823.97	25278
824.11	25236
824.25	25091
824.389	25152
824.529	25282
824.669	25247
824.809	25312
824.949	25160
825.089	25251
825.228	25236
825.368	25072
825.508	24882
825.648	24989
825.787	25099
825.927	25122
826.067	24875
826.206	25053
826.346	24966
826.485	25103
826.625	25080
826.765	25122
826.904	24985
827.044	24787
827.183	24719
827.323	24787
827.462	24882
827.601	24719
827.741	24673
827.88	24722
828.02	24787
828.159	24760
828.298	24700
828.437	24768
828.577	24669
828.716	24783
828.855	24658
828.994	24418
829.134	24407
829.273	24471
829.412	24346
829.551	24338
829.69	24452
829.829	24441
829.968	24437
830.107	24513
830.246	24467
830.385	24467
830.524	24471
830.663	24311
830.802	24125
830.941	24087
831.08	24068
831.219	24091
831.357	24064
831.496	24178
831.635	23878
831.774	23958
831.913	23893
832.051	23946
832.19	23767
832.329	23836
832.467	23798
832.606	23573
832.744	23535
832.883	23608
833.022	23729
833.16	23726
833.299	23779
833.437	23745
833.576	23824
833.714	23707
833.852	23885
833.991	23809
834.129	23745
834.267	23935
834.406	23794
834.544	23889
834.682	23657
834.821	23809
834.959	23771
835.097	23718
835.235	23672
835.373	23745
835.511	23684
835.65	23573
835.788	23665
835.926	23410
836.064	23398
836.202	23459
836.34	23646
836.478	23581
836.615	23589
836.753	23630
836.891	23653
837.029	23745
837.167	23452
837.305	23474
837.443	23452
837.58	23356
837.718	23398
837.856	23421
837.993	23402
838.131	23455
838.269	23178
838.406	23345
838.544	23360
838.681	23071
838.819	22953
838.956	22923
839.094	22793
839.231	22881
839.369	23044
839.506	23197
839.643	23143
839.781	23014
839.918	22839
840.055	22949
840.193	22892
840.33	22786
840.467	22885
840.604	22889
840.742	23155
840.879	22569
841.016	22866
841.153	22778
841.29	22896
841.427	22896
841.564	22911
841.701	22706
841.838	22782
841.975	22767
842.112	22660
842.249	22653
842.385	22645
842.522	22820
842.659	22656
842.796	22535
842.933	22577
843.069	22535
843.206	22436
843.343	22546
843.479	22569
843.616	22603
843.752	22481
843.889	22360
844.025	22592
844.162	22325
844.298	22341
844.435	22318
844.571	22333
844.708	22413
844.844	22489
844.98	22390
845.117	22394
845.253	22329
845.389	22276
845.525	22299
845.661	22120
845.798	21945
845.934	22185
846.07	22112
846.206	22128
846.342	22261
846.478	21960
846.614	21861
846.75	21835
846.886	21770
847.022	21953
847.158	21831
847.294	21876
847.429	21880
847.565	21789
847.701	21926
847.837	21625
847.972	21523
848.108	21572
848.244	21705
848.379	21603
848.515	21507
848.65	21374
848.786	21389
848.921	21507
849.057	21511
849.192	21519
849.328	21511
849.463	21496
849.598	21443
849.734	21378
849.869	21279
850.004	21260
850.14	21146
850.275	21195
850.41	21009
850.545	21150
850.68	21039
850.815	21188
850.95	21203
851.085	21291
851.22	21264
851.355	21203
851.49	21169
851.625	21199
851.76	21051
851.895	21055
852.03	21127
852.165	21150
852.299	21245
852.434	21336
852.569	21272
852.703	21108
852.838	21294
852.973	21374
853.107	21359
853.242	21184
853.376	21036
853.511	21013
853.645	20933
853.78	21085
853.914	21013
854.048	21112
854.183	21005
854.317	21161
854.451	21211
854.585	21009
854.72	21024
854.854	20975
854.988	20948
855.122	20982
855.256	20845
855.39	21093
855.524	21070
855.658	20994
855.792	21032
855.926	21058
856.06	21104
856.194	21036
856.327	21024
856.461	21074
856.595	21005
856.729	21077
856.862	21043
856.996	21176
857.13	21036
857.263	21123
857.397	21154
857.53	21017
857.664	21135
857.797	21074
857.931	21127
858.064	21047
858.197	21214
858.331	21028
858.464	21055
858.597	20960
858.731	21032
858.864	20929
858.997	20982
859.13	21085
859.263	21009
859.396	21116
859.529	21005
859.662	20960
859.795	20986
859.928	21089
860.061	21100
860.194	21207
860.327	21138
860.46	20998
860.592	21051
860.725	21195
860.858	21245
860.99	21074
861.123	21119
861.256	21017
861.388	21020
861.521	21831
861.653	20861
861.786	20994
861.918	20883
862.05	20979
862.183	20941
862.315	21005
862.447	21066
862.58	20971
862.712	20708
862.844	20724
862.976	20933
863.108	20785
863.24	21275
863.372	20838
863.504	20788
863.636	20735
863.768	20701
863.9	20773
864.032	20724
864.164	20758
864.296	20667
864.428	20887
864.559	20762
864.691	20853
864.823	20807
864.954	20731
865.086	20796
865.217	20598
865.349	20678
865.48	20609
865.612	20659
865.743	20777
865.875	20682
866.006	20564
866.137	20708
866.269	20682
866.4	20617
866.531	20731
866.662	20469
866.793	20571
866.924	20655
867.055	20613
867.186	20667
867.317	20495
867.448	20530
867.579	20537
867.71	20438
867.841	20442
867.972	20613
868.103	20609
868.233	20552
868.364	20625
868.495	20777
868.625	20861
868.756	20967
868.886	20891
869.017	20849
869.147	20986
869.278	20906
869.408	20944
869.539	20849
869.669	20857
869.799	20929
869.929	20895
870.06	20933
870.19	21150
870.32	21070
870.45	21127
870.58	21146
870.71	21306
870.84	21291
870.97	21218
871.1	21195
871.23	21431
871.36	21431
871.489	21260
871.619	21397
871.749	21462
871.879	21447
872.008	21485
872.138	21553
872.267	21473
872.397	21355
872.526	21332
872.656	21279
872.785	21203
872.915	21538
873.044	21587
873.173	21408
873.303	21526
873.432	21496
873.561	21591
873.69	21416
873.819	21393
873.948	21485
874.077	21477
874.206	21374
874.335	21519
874.464	21530
874.593	21660
874.722	21595
874.851	21709
874.979	21663
875.108	21823
875.237	21599
875.365	21545
875.494	21625
875.623	21778
875.751	21587
875.88	21648
876.008	21819
876.136	21873
876.265	21987
876.393	22196
876.521	22128
876.65	22188
876.778	22143
876.906	22002
877.034	21983
877.162	22002
877.29	22010
877.418	21987
877.546	22013
877.674	21987
877.802	22059
877.93	22120
878.058	22067
878.185	21899
878.313	21945
878.441	21922
878.568	21846
878.696	22093
878.824	22150
878.951	22074
879.079	22291
879.206	22287
879.333	22265
879.461	22128
879.588	22131
879.715	22150
879.842	22386
879.97	22017
880.097	21854
880.224	21857
880.351	21998
880.478	21838
880.605	21884
880.732	21880
880.859	22105
880.986	21892
881.112	21941
881.239	21709
881.366	21652
881.493	21492
881.619	21435
881.746	21504
881.872	21428
881.999	21317
882.125	21386
882.252	21507
882.378	21408
882.505	21606
882.631	21321
882.757	21192
882.883	21294
883.01	21123
883.136	21036
883.262	21199
883.388	21089
883.514	21256
883.64	21096
883.766	20975
883.892	20857
884.018	20921
884.143	21005
884.269	21184
884.395	20769
884.52	20819
884.646	20811
884.772	20773
884.897	20765
885.023	20842
885.148	20906
885.274	20842
885.399	20899
885.524	20807
885.65	20864
885.775	20777
885.9	20762
886.025	20986
886.15	20872
886.275	20674
886.4	20891
886.525	20743
886.65	20746
886.775	20727
886.9	20834
887.025	20933
887.149	20769
887.274	20674
887.399	20579
887.523	20636
887.648	20526
887.773	20415
887.897	20632
888.021	20629
888.146	20495
888.27	20590
888.395	20541
888.519	20587
888.643	20526
888.767	20617
888.891	20389
889.015	20301
889.139	20347
889.263	20419
889.387	20484
889.511	20636
889.635	20465
889.759	20286
889.883	20355
890.006	20381
890.13	20366
890.254	20259
890.377	20263
890.501	20100
890.624	19951
890.748	20218
890.871	20058
890.995	19898
891.118	19970
891.241	19947
891.364	20054
891.488	20050
891.611	19997
891.734	19925
891.857	20027
891.98	19982
892.103	19906
892.226	19936
892.349	19890
892.471	19746
892.594	19925
892.717	19959
892.839	19818
892.962	19757
893.085	19890
893.207	19811
893.33	19750
893.452	19772
893.575	19879
893.697	19807
893.819	19947
893.941	20008
894.064	19951
894.186	19731
894.308	19712
894.43	19913
894.552	20020
894.674	19852
894.796	19791
894.918	19932
895.04	19696
895.161	20001
895.283	19879
895.405	19761
895.526	19864
895.648	19875
895.769	19890
895.891	19826
896.012	19928
896.134	19860
896.255	19921
896.376	19776
896.498	19826
896.619	19868
896.74	19860
896.861	19944
896.982	20138
897.103	20290
897.224	20081
897.345	20084
897.466	20001
897.587	20084
897.708	20206
897.828	20157
897.949	20008
898.07	19864
898.19	20062
898.311	20126
898.431	20134
898.552	20145
898.672	20157
898.792	20149
898.913	20046
899.033	19967
899.153	19944
899.273	19799
899.393	19898
899.513	19898
899.633	19860
899.753	19913
899.873	19769
899.993	19906
900.113	19830
900.232	19795
900.352	19643
900.472	19795
900.591	19590
900.711	19738
900.83	19529
900.95	19776
901.069	19776
901.189	19506
901.308	19274
901.427	19232
901.546	19190
901.665	19141
901.784	19206
901.904	19126
902.023	19034
902.141	18791
902.26	18772
902.379	18878
902.498	18669
902.617	18715
902.735	18707
902.854	18574
902.973	18601
903.091	18365
903.21	18414
903.328	18369
903.446	18346
903.565	18194
903.683	18167
903.801	18106
903.919	18163
904.038	18053
904.156	17977
904.274	18034
904.392	18022
904.51	17912
904.627	17961
904.745	18011
904.863	18053
904.981	17714
905.098	17615
905.216	17596
905.334	17691
905.451	17760
905.569	17589
905.686	17783
905.803	17676
905.921	17395
906.038	17501
906.155	17501
906.272	17277
906.389	17292
906.506	17223
906.623	17189
906.74	17079
906.857	17113
906.974	17128
907.091	17269
907.208	17239
907.324	17109
907.441	17143
907.557	16919
907.674	16858
907.79	16805
907.907	16885
908.023	16942
908.139	16881
908.256	16869
908.372	16790
908.488	16812
908.604	16679
908.72	16580
908.836	16698
908.952	16535
909.068	16687
909.184	16611
909.3	16618
909.415	16679
909.531	16694
909.647	16394
909.762	16394
909.878	16287
909.993	16299
910.108	16363
910.224	16325
910.339	16253
910.454	16135
910.57	16150
910.685	16101
910.8	16284
910.915	16352
911.03	16154
911.145	15991
911.259	15823
911.374	15998
911.489	15899
911.604	15846
911.718	15625
911.833	15770
911.947	15629
912.062	15557
912.176	15660
912.291	15755
912.405	15770
912.519	15884
912.633	15869
912.748	15705
912.862	15625
912.976	15431
913.09	15374
913.204	15450
913.318	15462
913.431	15492
913.545	15507
913.659	15618
913.772	15447
913.886	15428
914	15279
914.113	15363
914.226	15431
914.34	15268
914.453	15233
914.566	15332
914.68	15218
914.793	15218
914.906	14986
915.019	14937
915.132	14864
915.245	14887
915.358	14921
915.47	14887
915.583	14956
915.696	14765
915.809	14944
915.921	14979
916.034	14845
916.146	14712
916.259	14735
916.371	14883
916.483	14823
916.595	14781
916.708	14819
916.82	14758
916.932	14648
917.044	14720
917.156	14689
917.268	14480
917.38	14499
917.491	14541
917.603	14507
917.715	14613
917.826	14644
917.938	14480
918.049	14381
918.161	14495
918.272	14636
918.384	14625
918.495	14533
918.606	14355
918.717	14240
918.828	14423
918.939	14377
919.05	14199
919.161	14290
919.272	14206
919.383	14096
919.494	14358
919.604	14431
919.715	14339
919.826	14199
919.936	14202
920.047	14267
920.157	14252
920.267	14545
920.378	14164
920.488	14164
920.598	14454
920.708	14564
920.818	14484
920.928	14537
921.038	14575
921.148	14533
921.258	14259
921.368	14126
921.477	14050
921.587	14027
921.697	13947
921.806	14107
921.916	13909
922.025	13674
922.134	13696
922.244	13594
922.353	13700
922.462	13540
922.571	13510
922.68	13373
922.789	13381
922.898	13419
923.007	13308
923.116	13335
923.224	13293
923.333	13297
923.442	13255
923.55	13240
923.659	13152
923.767	13160
923.876	13129
923.984	13152
924.092	13065
924.201	13168
924.309	13091
924.417	13069
924.525	13107
924.633	12996
924.741	13982
924.849	12844
924.956	12966
925.064	12768
925.172	12821
925.279	12787
925.387	12856
925.494	12757
925.602	12882
925.709	12772
925.816	12684
925.924	12768
926.031	12852
926.138	12722
926.245	12760
926.352	12707
926.459	12787
926.566	12776
926.673	12703
926.779	12563
926.886	12525
926.993	12369
927.099	12330
927.206	12262
927.312	12330
927.419	12330
927.525	12407
927.631	12334
927.737	12140
927.843	12292
927.95	12053
928.056	12152
928.162	12209
928.267	12209
928.373	12844
928.479	12308
928.585	12057
928.69	12121
928.796	12171
928.901	12022
929.007	11912
929.112	12178
929.218	12041
929.323	12022
929.428	11920
929.533	12083
929.638	11847
929.743	11832
929.848	11866
929.953	11855
930.058	11824
930.163	11570
930.267	11691
930.372	11767
930.477	11535
930.581	11836
930.685	11558
930.79	11577
930.894	11471
930.998	11497
931.103	11604
931.207	11242
931.311	11162
931.415	11075
931.519	10942
931.623	10942
