Data from test_V78500241_3452.txt Node
Date: Fri Mar 25 16:05:42 CST 2022
User: usil
Spectrometer: V785-0024
Trigger mode: 0
Integration Time (sec): 4.000000E-1
Scans to average: 1
Nonlinearity correction enabled: false
Boxcar width: 0
Storing dark spectrum: false
XAxis mode: Wavelengths
Number of Pixels in Spectrum: 1024
>>>>>Begin Spectral Data<<<<<
801.071	28995
801.214	28942
801.356	28771
801.499	28721
801.641	28337
801.783	28508
801.926	28504
802.068	28569
802.211	28394
802.353	28367
802.496	28287
802.638	28344
802.78	28261
802.923	28177
803.065	28177
803.208	28280
803.35	28318
803.492	28375
803.635	28447
803.777	28261
803.919	28440
804.061	28725
804.204	28489
804.346	28367
804.488	28459
804.63	28466
804.773	28379
804.915	28596
805.057	28687
805.199	28478
805.341	28523
805.483	28447
805.626	28653
805.768	28432
805.91	28683
806.052	28557
806.194	28759
806.336	28972
806.478	28588
806.62	28736
806.762	28869
806.904	28934
807.046	29109
807.188	29105
807.33	29098
807.472	29258
807.614	28968
807.756	29003
807.898	28999
808.04	28888
808.182	29044
808.324	28957
808.465	28949
808.607	29296
808.749	29402
808.891	29372
809.033	29455
809.174	29512
809.316	29353
809.458	29417
809.6	29315
809.741	29581
809.883	29684
810.025	29653
810.166	29665
810.308	29543
810.45	29672
810.591	29570
810.733	29524
810.875	29395
811.016	29288
811.158	29223
811.299	29630
811.441	29543
811.582	29554
811.724	29284
811.865	29326
812.007	29360
812.148	29360
812.29	29600
812.431	29611
812.573	29821
812.714	29764
812.855	29836
812.997	29954
813.138	30159
813.279	30053
813.421	29980
813.562	29798
813.703	29668
813.845	29433
813.986	29284
814.127	29136
814.268	29151
814.41	29105
814.551	29056
814.692	29029
814.833	29079
814.974	28915
815.115	29079
815.256	28908
815.397	28869
815.539	28850
815.68	28991
815.821	28767
815.962	28968
816.103	28869
816.244	28793
816.385	28713
816.526	28717
816.666	28489
816.807	28337
816.948	28478
817.089	28538
817.23	28390
817.371	28428
817.512	28268
817.653	28417
817.793	28295
817.934	28325
818.075	28561
818.216	28272
818.356	28322
818.497	28284
818.638	28067
818.778	28200
818.919	28070
819.06	28303
819.2	28337
819.341	28485
819.481	28500
819.622	28615
819.762	28858
819.903	28675
820.043	28664
820.184	28504
820.324	28611
820.465	28599
820.605	28569
820.746	28421
820.886	28287
821.026	28451
821.167	28668
821.307	28615
821.447	28413
821.588	28299
821.728	28204
821.868	28006
822.008	27812
822.149	27762
822.289	27903
822.429	27637
822.569	27644
822.709	27549
822.849	27416
822.99	27427
823.13	27298
823.27	27336
823.41	27226
823.55	27089
823.69	27268
823.83	27218
823.97	27264
824.11	27108
824.25	26960
824.389	26982
824.529	27256
824.669	27112
824.809	27089
824.949	27077
825.089	27085
825.228	27085
825.368	27020
825.508	26857
825.648	26891
825.787	26979
825.927	27009
826.067	26731
826.206	26944
826.346	27009
826.485	27005
826.625	27116
826.765	26960
826.904	26933
827.044	26765
827.183	26667
827.323	26568
827.462	26720
827.601	26701
827.741	26670
827.88	26651
828.02	26598
828.159	26670
828.298	26655
828.437	26667
828.577	26606
828.716	26731
828.855	26678
828.994	26377
829.134	26461
829.273	26362
829.412	26271
829.551	26271
829.69	26317
829.829	26431
829.968	26381
830.107	26374
830.246	26374
830.385	26145
830.524	26275
830.663	26058
830.802	26092
830.941	25932
831.08	25925
831.219	25978
831.357	25982
831.496	26176
831.635	25986
831.774	25769
831.913	25898
832.051	25731
832.19	25727
832.329	25715
832.467	25670
832.606	25609
832.744	25552
832.883	25632
833.022	25628
833.16	25400
833.299	25578
833.437	25712
833.576	25609
833.714	25826
833.852	25613
833.991	25742
834.129	25928
834.267	25757
834.406	25776
834.544	25738
834.682	25700
834.821	25685
834.959	25753
835.097	25776
835.235	25712
835.373	25632
835.511	25674
835.65	25582
835.788	25472
835.926	25373
836.064	25468
836.202	25202
836.34	25597
836.478	25559
836.615	25411
836.753	25411
836.891	25723
837.029	25514
837.167	25464
837.305	25464
837.443	25396
837.58	25346
837.718	25419
837.856	25247
837.993	25278
838.131	25293
838.269	25324
838.406	25304
838.544	25122
838.681	24996
838.819	24985
838.956	24859
839.094	24802
839.231	24856
839.369	24973
839.506	25141
839.643	24951
839.781	24745
839.918	24627
840.055	24745
840.193	24684
840.33	24669
840.467	24840
840.604	24658
840.742	24970
840.879	24532
841.016	24646
841.153	24593
841.29	24787
841.427	24578
841.564	24791
841.701	24745
841.838	24593
841.975	24635
842.112	24669
842.249	24486
842.385	24597
842.522	24715
842.659	24620
842.796	24365
842.933	24441
843.069	24479
843.206	24445
843.343	24479
843.479	24467
843.616	24513
843.752	24334
843.889	24232
844.025	24441
844.162	24178
844.298	24334
844.435	24292
844.571	24091
844.708	24376
844.844	24475
844.98	24308
845.117	24243
845.253	24281
845.389	24114
845.525	24167
845.661	24053
845.798	23958
845.934	23939
846.07	23920
846.206	24121
846.342	24247
846.478	24057
846.614	23767
846.75	23611
846.886	23649
847.022	23687
847.158	23600
847.294	23726
847.429	23821
847.565	23634
847.701	23954
847.837	23303
847.972	23341
848.108	23619
848.244	23417
848.379	23277
848.515	23303
848.65	23235
848.786	23334
848.921	23246
849.057	23372
849.192	23372
849.328	23208
849.463	23315
849.598	23094
849.734	23128
849.869	23105
850.004	23041
850.14	23044
850.275	23041
850.41	22915
850.545	22869
850.68	23018
850.815	22949
850.95	22991
851.085	23136
851.22	22972
851.355	23060
851.49	23041
851.625	23006
851.76	22980
851.895	22889
852.03	22965
852.165	22991
852.299	23086
852.434	23147
852.569	23162
852.703	23006
852.838	23052
852.973	23155
853.107	23246
853.242	22930
853.376	22850
853.511	22850
853.645	22831
853.78	23006
853.914	22915
854.048	22839
854.183	22866
854.317	22782
854.451	23083
854.585	22866
854.72	22767
854.854	22854
854.988	22778
855.122	22850
855.256	22698
855.39	22877
855.524	22934
855.658	22828
855.792	22877
855.926	22782
856.06	22831
856.194	23022
856.327	22801
856.461	22816
856.595	22790
856.729	22869
856.862	22854
856.996	22885
857.13	22938
857.263	22847
857.397	23014
857.53	22759
857.664	22892
857.797	22961
857.931	22972
858.064	22885
858.197	23018
858.331	22824
858.464	22733
858.597	22828
858.731	22889
858.864	22816
858.997	22843
859.13	22889
859.263	22896
859.396	22923
859.529	22675
859.662	22949
859.795	22702
859.928	22862
860.061	23025
860.194	23018
860.327	22934
860.46	22843
860.592	22866
860.725	22987
860.858	22968
860.99	22942
861.123	22835
861.256	22942
861.388	22930
861.521	23448
861.653	22778
861.786	22637
861.918	22588
862.05	22748
862.183	22759
862.315	22687
862.447	22797
862.58	22790
862.712	22481
862.844	22580
862.976	22706
863.108	22744
863.24	22930
863.372	22516
863.504	22440
863.636	22645
863.768	22516
863.9	22664
864.032	22352
864.164	22489
864.296	22767
864.428	22698
864.559	22691
864.691	22535
864.823	22660
864.954	22546
865.086	22519
865.217	22508
865.349	22360
865.48	22322
865.612	22367
865.743	22466
865.875	22424
866.006	22432
866.137	22440
866.269	22363
866.4	22409
866.531	22318
866.662	22402
866.793	22295
866.924	22424
867.055	22356
867.186	22440
867.317	22398
867.448	22188
867.579	22287
867.71	22325
867.841	22303
867.972	22413
868.103	22306
868.233	22447
868.364	22265
868.495	22466
868.625	22599
868.756	22603
868.886	22634
869.017	22679
869.147	22557
869.278	22691
869.408	22603
869.539	22573
869.669	22668
869.799	22687
869.929	22824
870.06	22793
870.19	23006
870.32	22839
870.45	22911
870.58	22873
870.71	22987
870.84	23147
870.97	23037
871.1	22877
871.23	23159
871.36	23105
871.489	23079
871.619	23231
871.749	23231
871.879	23246
872.008	23326
872.138	23208
872.267	23292
872.397	23132
872.526	22911
872.656	23113
872.785	23041
872.915	23239
873.044	23315
873.173	23185
873.303	23239
873.432	23239
873.561	23376
873.69	23200
873.819	23155
873.948	23242
874.077	23174
874.206	23239
874.335	23102
874.464	23326
874.593	23452
874.722	23410
874.851	23337
874.979	23528
875.108	23398
875.237	23353
875.365	23261
875.494	23387
875.623	23474
875.751	23379
875.88	23421
876.008	23391
876.136	23543
876.265	23790
876.393	23988
876.521	23802
876.65	23824
876.778	23950
876.906	23767
877.034	23760
877.162	23646
877.29	23676
877.418	23779
877.546	23687
877.674	23859
877.802	23748
877.93	23737
878.058	23714
878.185	23611
878.313	23722
878.441	23760
878.568	23452
878.696	23695
878.824	23764
878.951	23870
879.079	23927
879.206	24053
879.333	23965
879.461	23798
879.588	23813
879.715	23866
879.842	23969
879.97	23863
880.097	23604
880.224	23596
880.351	23630
880.478	23573
880.605	23562
880.732	23577
880.859	23809
880.986	23585
881.112	23634
881.239	23402
881.366	23208
881.493	23166
881.619	23075
881.746	23140
881.872	23113
881.999	23098
882.125	23041
882.252	23231
882.378	23113
882.505	23269
882.631	22953
882.757	22771
882.883	22984
883.01	22885
883.136	22698
883.262	22622
883.388	22634
883.514	22790
883.64	22866
883.766	22786
883.892	22557
884.018	22588
884.143	22812
884.269	22843
884.395	22466
884.52	22310
884.646	22565
884.772	22371
884.897	22379
885.023	22421
885.148	22649
885.274	22565
885.399	22542
885.524	22538
885.65	22516
885.775	22344
885.9	22466
886.025	22546
886.15	22432
886.275	22398
886.4	22246
886.525	22409
886.65	22360
886.775	22223
886.9	22481
887.025	22565
887.149	22466
887.274	22188
887.399	22124
887.523	22196
887.648	22082
887.773	22093
887.897	22291
888.021	22196
888.146	22192
888.27	22230
888.395	22234
888.519	22048
888.643	22188
888.767	22219
888.891	22147
889.015	22017
889.139	22032
889.263	21838
889.387	22139
889.511	22128
889.635	22017
889.759	21968
889.883	21934
890.006	22051
890.13	22101
890.254	21774
890.377	21842
890.501	21660
890.624	21804
890.748	21759
890.871	21580
890.995	21462
891.118	21466
891.241	21469
891.364	21591
891.488	21663
891.611	21545
891.734	21492
891.857	21511
891.98	21534
892.103	21443
892.226	21622
892.349	21367
892.471	21192
892.594	21477
892.717	21466
892.839	21405
892.962	21412
893.085	21515
893.207	21500
893.33	21272
893.452	21154
893.575	21378
893.697	21412
893.819	21507
893.941	21572
894.064	21519
894.186	21412
894.308	21355
894.43	21439
894.552	21614
894.674	21473
894.796	21272
894.918	21306
895.04	21340
895.161	21340
895.283	21363
895.405	21070
895.526	21256
895.648	21363
895.769	21332
895.891	21488
896.012	21466
896.134	21511
896.255	21367
896.376	21340
896.498	21344
896.619	21397
896.74	21302
896.861	21412
896.982	21770
897.103	21857
897.224	21568
897.345	21625
897.466	21587
897.587	21599
897.708	21785
897.828	21542
897.949	21557
898.07	21370
898.19	21485
898.311	21675
898.431	21454
898.552	21488
898.672	21564
898.792	21724
898.913	21553
899.033	21534
899.153	21351
899.273	21279
899.393	21351
899.513	21344
899.633	21287
899.753	21214
899.873	21192
899.993	21435
900.113	21226
900.232	21249
900.352	21066
900.472	21169
900.591	21051
900.711	21058
900.83	21005
900.95	21093
901.069	21081
901.189	20967
901.308	20712
901.427	20659
901.546	20568
901.665	20674
901.784	20640
901.904	20507
902.023	20370
902.141	20229
902.26	20168
902.379	20119
902.498	20237
902.617	20035
902.735	20107
902.854	20065
902.973	20024
903.091	19856
903.21	19704
903.328	19734
903.446	19658
903.565	19616
903.683	19457
903.801	19487
903.919	19537
904.038	19521
904.156	19350
904.274	19358
904.392	19343
904.51	19244
904.627	19259
904.745	19339
904.863	19327
904.981	19183
905.098	18894
905.216	18932
905.334	19053
905.451	18924
905.569	18920
905.686	18970
905.803	18973
905.921	18776
906.038	18837
906.155	18623
906.272	18711
906.389	18601
906.506	18563
906.623	18601
906.74	18525
906.857	18445
906.974	18467
907.091	18467
907.208	18661
907.324	18452
907.441	18330
907.557	18304
907.674	18232
907.79	18197
907.907	18171
908.023	18266
908.139	18190
908.256	18136
908.372	18057
908.488	18117
908.604	17824
908.72	17863
908.836	17935
908.952	18007
909.068	17954
909.184	17988
909.3	17870
909.415	17996
909.531	17946
909.647	17687
909.762	17566
909.878	17524
909.993	17630
910.108	17528
910.224	17581
910.339	17486
910.454	17455
910.57	17478
910.685	17345
910.8	17649
910.915	17490
911.03	17387
911.145	17376
911.259	17185
911.374	17208
911.489	17178
911.604	17128
911.718	16904
911.833	17003
911.947	16767
912.062	16820
912.176	16908
912.291	16980
912.405	17010
912.519	17086
912.633	17102
912.748	17022
912.862	16873
912.976	16660
913.09	16683
913.204	16653
913.318	16675
913.431	16805
913.545	16797
913.659	16786
913.772	16721
913.886	16531
914	16565
914.113	16531
914.226	16550
914.34	16607
914.453	16386
914.566	16599
914.68	16455
914.793	16207
914.906	16116
915.019	16101
915.132	16048
915.245	16040
915.358	16135
915.47	16074
915.583	16166
915.696	16082
915.809	16116
915.921	16230
916.034	15975
916.146	15968
916.259	15964
916.371	16090
916.483	15991
916.595	15956
916.708	15930
916.82	15869
916.932	15911
917.044	15846
917.156	15797
917.268	15663
917.38	15774
917.491	15789
917.603	15720
917.715	15766
917.826	15800
917.938	15629
918.049	15584
918.161	15736
918.272	15781
918.384	15793
918.495	15591
918.606	15473
918.717	15439
918.828	15454
918.939	15435
919.05	15291
919.161	15348
919.272	15256
919.383	15393
919.494	15416
919.604	15614
919.715	15545
919.826	15359
919.936	15363
920.047	15504
920.157	15302
920.267	15519
920.378	15439
920.488	15313
920.598	15542
920.708	15701
920.818	15488
920.928	15511
921.038	15625
921.148	15599
921.258	15283
921.368	15272
921.477	15154
921.587	15169
921.697	15001
921.806	15085
921.916	14960
922.025	14857
922.134	14739
922.244	14689
922.353	14758
922.462	14610
922.571	14545
922.68	14347
922.789	14450
922.898	14461
923.007	14282
923.116	14400
923.224	14408
923.333	14301
923.442	14259
923.55	14157
923.659	14229
923.767	14317
923.876	14168
923.984	14286
924.092	14149
924.201	14123
924.309	14073
924.417	14069
924.525	13944
924.633	13997
924.741	14967
924.849	13734
924.956	13906
925.064	13871
925.172	13788
925.279	13830
925.387	13715
925.494	13776
925.602	13940
925.709	13727
925.816	13616
925.924	13708
926.031	13719
926.138	13655
926.245	13693
926.352	13609
926.459	13685
926.566	13715
926.673	13552
926.779	13480
926.886	13453
926.993	13388
927.099	13274
927.206	13240
927.312	13255
927.419	13327
927.525	13346
927.631	13274
927.737	13129
927.843	13050
927.95	13015
928.056	13034
928.162	13133
928.267	13137
928.373	13658
928.479	13289
928.585	12890
928.69	13065
928.796	13042
928.901	12848
929.007	12897
929.112	12973
929.218	12897
929.323	12772
929.428	12715
929.533	12894
929.638	12722
929.743	12760
929.848	12821
929.953	12726
930.058	12673
930.163	12521
930.267	12498
930.372	12544
930.477	12369
930.581	12692
930.685	12475
930.79	12414
930.894	12338
930.998	12323
931.103	12403
931.207	12030
931.311	11912
931.415	11965
931.519	11661
931.623	11649
