Data from test_V78500241_968.txt Node
Date: Fri Mar 25 15:48:30 CST 2022
User: usil
Spectrometer: V785-0024
Trigger mode: 0
Integration Time (sec): 4.000000E-1
Scans to average: 1
Nonlinearity correction enabled: false
Boxcar width: 0
Storing dark spectrum: false
XAxis mode: Wavelengths
Number of Pixels in Spectrum: 1024
>>>>>Begin Spectral Data<<<<<
801.071	28580
801.214	28443
801.356	28139
801.499	28040
801.641	27994
801.783	27880
801.926	28147
802.068	28051
802.211	27914
802.353	27911
802.496	27557
802.638	27660
802.78	27580
802.923	27576
803.065	27545
803.208	27618
803.35	27652
803.492	27857
803.635	27846
803.777	27728
803.919	27979
804.061	28173
804.204	27854
804.346	27888
804.488	27812
804.63	27816
804.773	27823
804.915	28021
805.057	27914
805.199	27934
805.341	27861
805.483	28090
805.626	27895
805.768	27994
805.91	28013
806.052	27975
806.194	28070
806.336	28238
806.478	28166
806.62	28055
806.762	28268
806.904	28310
807.046	28618
807.188	28405
807.33	28432
807.472	28611
807.614	28481
807.756	28409
807.898	28386
808.04	28348
808.182	28318
808.324	28344
808.465	28443
808.607	28489
808.749	28721
808.891	28805
809.033	28835
809.174	28816
809.316	28611
809.458	28592
809.6	28584
809.741	28911
809.883	28885
810.025	28995
810.166	29025
810.308	29022
810.45	29083
810.591	28984
810.733	28824
810.875	28710
811.016	28592
811.158	28592
811.299	28759
811.441	28957
811.582	28923
811.724	28694
811.865	28786
812.007	28904
812.148	28717
812.29	28577
812.431	28885
812.573	29014
812.714	29185
812.855	29265
812.997	29265
813.138	29414
813.279	29322
813.421	29345
813.562	29166
813.703	29052
813.845	29033
813.986	28691
814.127	28546
814.268	28398
814.41	28409
814.551	28508
814.692	28451
814.833	28333
814.974	28428
815.115	28466
815.256	28268
815.397	28272
815.539	28162
815.68	28169
815.821	28268
815.962	28394
816.103	28219
816.244	28181
816.385	28097
816.526	27903
816.666	27846
816.807	27759
816.948	27774
817.089	27854
817.23	27762
817.371	27762
817.512	27766
817.653	27831
817.793	27717
817.934	27793
818.075	27690
818.216	27701
818.356	27622
818.497	27500
818.638	27412
818.778	27660
818.919	27450
819.06	27614
819.2	27686
819.341	27778
819.481	27857
819.622	27888
819.762	27994
819.903	27956
820.043	28090
820.184	27842
820.324	27789
820.465	27918
820.605	27937
820.746	27983
820.886	27713
821.026	27838
821.167	27888
821.307	27953
821.447	27873
821.588	27762
821.728	27701
821.868	27469
822.008	27378
822.149	27264
822.289	27260
822.429	27043
822.569	26883
822.709	26914
822.849	26667
822.99	26777
823.13	26678
823.27	26701
823.41	26632
823.55	26320
823.69	26568
823.83	26492
823.97	26366
824.11	26324
824.25	26336
824.389	26343
824.529	26256
824.669	26400
824.809	26514
824.949	26457
825.089	26533
825.228	26530
825.368	26145
825.508	26233
825.648	26278
825.787	26183
825.927	26358
826.067	26244
826.206	26339
826.346	26332
826.485	26221
826.625	26263
826.765	26313
826.904	26343
827.044	26221
827.183	26161
827.323	26062
827.462	26062
827.601	26161
827.741	25928
827.88	26012
828.02	25959
828.159	25902
828.298	26084
828.437	26088
828.577	25887
828.716	26126
828.855	25970
828.994	25651
829.134	25590
829.273	25803
829.412	25655
829.551	25597
829.69	25750
829.829	25750
829.968	25776
830.107	25696
830.246	25799
830.385	25537
830.524	25677
830.663	25289
830.802	25343
830.941	25301
831.08	25232
831.219	25362
831.357	25548
831.496	25556
831.635	25285
831.774	25209
831.913	25129
832.051	25080
832.19	25008
832.329	25008
832.467	25168
832.606	24932
832.744	24939
832.883	25015
833.022	24943
833.16	24939
833.299	25004
833.437	24875
833.576	25004
833.714	25088
833.852	25145
833.991	25095
834.129	25095
834.267	25072
834.406	24992
834.544	25038
834.682	24989
834.821	24947
834.959	25133
835.097	25065
835.235	25072
835.373	24928
835.511	24981
835.65	24897
835.788	24932
835.926	24745
836.064	24825
836.202	24760
836.34	24810
836.478	25000
836.615	24844
836.753	24741
836.891	24852
837.029	24875
837.167	24764
837.305	24738
837.443	24810
837.58	24772
837.718	24738
837.856	24738
837.993	24620
838.131	24738
838.269	24547
838.406	24722
838.544	24513
838.681	24346
838.819	24365
838.956	24167
839.094	24133
839.231	24148
839.369	24346
839.506	24585
839.643	24243
839.781	24216
839.918	24007
840.055	24190
840.193	24064
840.33	24125
840.467	24129
840.604	23958
840.742	24361
840.879	23935
841.016	23916
841.153	23901
841.29	24003
841.427	24045
841.564	23988
841.701	23969
841.838	23988
841.975	23843
842.112	23965
842.249	23977
842.385	23855
842.522	24205
842.659	23882
842.796	23832
842.933	23775
843.069	23836
843.206	23771
843.343	23733
843.479	23813
843.616	23809
843.752	23649
843.889	23604
844.025	23798
844.162	23505
844.298	23619
844.435	23535
844.571	23459
844.708	23592
844.844	23703
844.98	23630
845.117	23649
845.253	23531
845.389	23425
845.525	23406
845.661	23452
845.798	23349
845.934	23220
846.07	23269
846.206	23284
846.342	23452
846.478	23159
846.614	23212
846.75	22987
846.886	23003
847.022	23006
847.158	23022
847.294	22976
847.429	22980
847.565	23060
847.701	23227
847.837	22774
847.972	22721
848.108	22771
848.244	22828
848.379	22592
848.515	22630
848.65	22637
848.786	22672
848.921	22557
849.057	22748
849.192	22607
849.328	22626
849.463	22660
849.598	22569
849.734	22478
849.869	22569
850.004	22428
850.14	22542
850.275	22405
850.41	22352
850.545	22253
850.68	22322
850.815	22516
850.95	22261
851.085	22622
851.22	22504
851.355	22341
851.49	22440
851.625	22451
851.76	22341
851.895	22287
852.03	22287
852.165	22413
852.299	22421
852.434	22626
852.569	22348
852.703	22371
852.838	22417
852.973	22584
853.107	22519
853.242	22542
853.376	22219
853.511	22150
853.645	22158
853.78	22409
853.914	22246
854.048	22166
854.183	22082
854.317	22299
854.451	22386
854.585	22150
854.72	22154
854.854	22360
854.988	22090
855.122	22120
855.256	22063
855.39	22249
855.524	22265
855.658	22249
855.792	22257
855.926	22249
856.06	22272
856.194	22268
856.327	22105
856.461	22226
856.595	22185
856.729	22207
856.862	22443
856.996	22265
857.13	22207
857.263	22310
857.397	22402
857.53	22128
857.664	22424
857.797	22242
857.931	22367
858.064	22215
858.197	22276
858.331	22143
858.464	22036
858.597	22051
858.731	22272
858.864	22181
858.997	22120
859.13	22238
859.263	22253
859.396	22306
859.529	22109
859.662	22249
859.795	22223
859.928	22249
860.061	22246
860.194	22363
860.327	22230
860.46	22299
860.592	22318
860.725	22352
860.858	22284
860.99	22238
861.123	22082
861.256	22192
861.388	22280
861.521	22885
861.653	22090
861.786	22078
861.918	21994
862.05	22082
862.183	22204
862.315	22048
862.447	22257
862.58	22295
862.712	21876
862.844	21972
862.976	22124
863.108	21930
863.24	22291
863.372	21736
863.504	21804
863.636	21846
863.768	21991
863.9	22013
864.032	21759
864.164	21880
864.296	21918
864.428	21934
864.559	21945
864.691	22036
864.823	21808
864.954	21774
865.086	21892
865.217	21850
865.349	21804
865.48	21774
865.612	21751
865.743	21956
865.875	21819
866.006	21880
866.137	21793
866.269	21755
866.4	21739
866.531	21781
866.662	21675
866.793	21755
866.924	21675
867.055	21778
867.186	21698
867.317	21637
867.448	21656
867.579	21564
867.71	21530
867.841	21580
867.972	21587
868.103	21648
868.233	21728
868.364	21679
868.495	21793
868.625	21926
868.756	21926
868.886	21850
869.017	21960
869.147	22078
869.278	21991
869.408	21983
869.539	21857
869.669	22029
869.799	21964
869.929	22055
870.06	22063
870.19	22360
870.32	22135
870.45	22363
870.58	22284
870.71	22390
870.84	22493
870.97	22333
871.1	22329
871.23	22523
871.36	22447
871.489	22459
871.619	22436
871.749	22523
871.879	22424
872.008	22675
872.138	22557
872.267	22527
872.397	22375
872.526	22462
872.656	22424
872.785	22466
872.915	22603
873.044	22675
873.173	22455
873.303	22523
873.432	22706
873.561	22634
873.69	22455
873.819	22478
873.948	22653
874.077	22584
874.206	22542
874.335	22523
874.464	22618
874.593	22805
874.722	22713
874.851	22843
874.979	22774
875.108	22797
875.237	22725
875.365	22637
875.494	22854
875.623	22729
875.751	22805
875.88	22664
876.008	22919
876.136	22984
876.265	23239
876.393	23334
876.521	23315
876.65	23261
876.778	23197
876.906	23067
877.034	22999
877.162	23052
877.29	23147
877.418	23147
877.546	23162
877.674	23117
877.802	23113
877.93	23048
878.058	22984
878.185	22923
878.313	22995
878.441	23018
878.568	22942
878.696	22976
878.824	23124
878.951	23185
879.079	23239
879.206	23364
879.333	23254
879.461	23197
879.588	23113
879.715	23337
879.842	23406
879.97	23090
880.097	22938
880.224	22889
880.351	22984
880.478	22984
880.605	22881
880.732	22900
880.859	23212
880.986	23052
881.112	22999
881.239	22797
881.366	22599
881.493	22519
881.619	22557
881.746	22527
881.872	22535
881.999	22481
882.125	22295
882.252	22527
882.378	22485
882.505	22565
882.631	22405
882.757	22234
882.883	22284
883.01	22215
883.136	22082
883.262	22036
883.388	22112
883.514	22276
883.64	22272
883.766	22135
883.892	21903
884.018	21987
884.143	22109
884.269	22166
884.395	21945
884.52	21755
884.646	21922
884.772	21869
884.897	21759
885.023	21724
885.148	21876
885.274	22002
885.399	21842
885.524	21804
885.65	21953
885.775	21800
885.9	21785
886.025	21918
886.15	21953
886.275	21717
886.4	21637
886.525	21755
886.65	21660
886.775	21747
886.9	21934
887.025	22013
887.149	21751
887.274	21564
887.399	21606
887.523	21545
887.648	21542
887.773	21405
887.897	21595
888.021	21625
888.146	21496
888.27	21732
888.395	21713
888.519	21603
888.643	21690
888.767	21660
888.891	21428
889.015	21443
889.139	21477
889.263	21306
889.387	21515
889.511	21481
889.635	21580
889.759	21370
889.883	21344
890.006	21412
890.13	21469
890.254	21256
890.377	21283
890.501	21180
890.624	21058
890.748	21150
890.871	21070
890.995	20891
891.118	20990
891.241	20941
891.364	20842
891.488	21039
891.611	20876
891.734	20986
891.857	20921
891.98	21013
892.103	21013
892.226	20804
892.349	20883
892.471	20686
892.594	20834
892.717	20769
892.839	20826
892.962	20792
893.085	20895
893.207	20796
893.33	20716
893.452	20708
893.575	20853
893.697	20743
893.819	20941
893.941	21047
894.064	20963
894.186	20804
894.308	20663
894.43	20785
894.552	20948
894.674	20914
894.796	20720
894.918	20819
895.04	20838
895.161	20902
895.283	20807
895.405	20678
895.526	20754
895.648	20731
895.769	20746
895.891	20819
896.012	20944
896.134	20811
896.255	20800
896.376	20815
896.498	20800
896.619	20815
896.74	20773
896.861	20792
896.982	21154
897.103	21245
897.224	21062
897.345	21039
897.466	20998
897.587	21058
897.708	21180
897.828	20963
897.949	20842
898.07	20921
898.19	20861
898.311	21036
898.431	20948
898.552	21017
898.672	21051
898.792	21058
898.913	20994
899.033	20895
899.153	20781
899.273	20682
899.393	20720
899.513	20804
899.633	20754
899.753	20773
899.873	20682
899.993	20743
900.113	20571
900.232	20800
900.352	20667
900.472	20655
900.591	20457
900.711	20415
900.83	20457
900.95	20507
901.069	20617
901.189	20355
901.308	20195
901.427	20088
901.546	20130
901.665	20191
901.784	20119
901.904	19978
902.023	19906
902.141	19613
902.26	19643
902.379	19719
902.498	19609
902.617	19647
902.735	19510
902.854	19556
902.973	19597
903.091	19206
903.21	19194
903.328	19354
903.446	19198
903.565	19088
903.683	19084
903.801	18951
903.919	18981
904.038	19012
904.156	18821
904.274	18886
904.392	18833
904.51	18741
904.627	18760
904.745	18791
904.863	18829
904.981	18650
905.098	18479
905.216	18589
905.334	18528
905.451	18517
905.569	18433
905.686	18445
905.803	18467
905.921	18209
906.038	18410
906.155	18129
906.272	18076
906.389	18281
906.506	17977
906.623	17988
906.74	18038
906.857	17786
906.974	17885
907.091	18034
907.208	18068
907.324	17973
907.441	18038
907.557	17809
907.674	17817
907.79	17619
907.907	17695
908.023	17657
908.139	17760
908.256	17630
908.372	17596
908.488	17611
908.604	17474
908.72	17414
908.836	17493
908.952	17421
909.068	17562
909.184	17592
909.3	17463
909.415	17512
909.531	17505
909.647	17136
909.762	17231
909.878	17067
909.993	17159
910.108	17155
910.224	17124
910.339	17067
910.454	16987
910.57	16927
910.685	16778
910.8	17159
910.915	17052
911.03	16968
911.145	16710
911.259	16740
911.374	16675
911.489	16618
911.604	16481
911.718	16474
911.833	16577
911.947	16272
912.062	16382
912.176	16424
912.291	16432
912.405	16382
912.519	16816
912.633	16554
912.748	16561
912.862	16432
912.976	16200
913.09	16135
913.204	16166
913.318	16299
913.431	16238
913.545	16329
913.659	16360
913.772	16211
913.886	16090
914	15987
914.113	16063
914.226	16188
914.34	16242
914.453	16044
914.566	16150
914.68	16029
914.793	15842
914.906	15770
915.019	15580
915.132	15587
915.245	15633
915.358	15705
915.47	15511
915.583	15778
915.696	15701
915.809	15835
915.921	15808
916.034	15523
916.146	15549
916.259	15576
916.371	15603
916.483	15584
916.595	15488
916.708	15469
916.82	15443
916.932	15515
917.044	15523
917.156	15367
917.268	15294
917.38	15218
917.491	15237
917.603	15108
917.715	15317
917.826	15275
917.938	15203
918.049	15165
918.161	15184
918.272	15408
918.384	15321
918.495	15203
918.606	15093
918.717	14941
918.828	15005
918.939	15104
919.05	14960
919.161	14967
919.272	14731
919.383	14933
919.494	15039
919.604	15165
919.715	15017
919.826	14906
919.936	14979
920.047	15032
920.157	15085
920.267	15135
920.378	14975
920.488	14864
920.598	15138
920.708	15249
920.818	15093
920.928	15085
921.038	15237
921.148	15184
921.258	14967
921.368	14739
921.477	14807
921.587	14663
921.697	14560
921.806	14686
921.916	14632
922.025	14351
922.134	14259
922.244	14294
922.353	14366
922.462	14199
922.571	14164
922.68	14012
922.789	14031
922.898	13940
923.007	13936
923.116	14039
923.224	13928
923.333	13932
923.442	13849
923.55	13753
923.659	13902
923.767	13917
923.876	13799
923.984	13898
924.092	13693
924.201	13704
924.309	13731
924.417	13742
924.525	13632
924.633	13624
924.741	14526
924.849	13480
924.956	13556
925.064	13320
925.172	13316
925.279	13445
925.387	13354
925.494	13377
925.602	13525
925.709	13365
925.816	13312
925.924	13282
926.031	13354
926.138	13259
926.245	13392
926.352	13240
926.459	13293
926.566	13422
926.673	13164
926.779	13114
926.886	13091
926.993	13015
927.099	12962
927.206	12962
927.312	12901
927.419	12977
927.525	12932
927.631	12958
927.737	12776
927.843	12734
927.95	12635
928.056	12707
928.162	12772
928.267	12795
928.373	13335
928.479	12814
928.585	12582
928.69	12635
928.796	12749
928.901	12642
929.007	12540
929.112	12707
929.218	12486
929.323	12563
929.428	12399
929.533	12566
929.638	12441
929.743	12380
929.848	12460
929.953	12365
930.058	12308
930.163	12186
930.267	12121
930.372	12262
930.477	12121
930.581	12437
930.685	12167
930.79	11950
930.894	12045
930.998	11999
931.103	12129
931.207	11710
931.311	11718
931.415	11497
931.519	11433
931.623	11376
