Data from test_V78500241_284.txt Node
Date: Fri Mar 25 15:43:46 CST 2022
User: usil
Spectrometer: V785-0024
Trigger mode: 0
Integration Time (sec): 4.000000E-1
Scans to average: 1
Nonlinearity correction enabled: false
Boxcar width: 0
Storing dark spectrum: false
XAxis mode: Wavelengths
Number of Pixels in Spectrum: 1024
>>>>>Begin Spectral Data<<<<<
801.071	29779
801.214	29653
801.356	29436
801.499	29364
801.641	29258
801.783	29193
801.926	29383
802.068	29128
802.211	29200
802.353	29117
802.496	28881
802.638	28904
802.78	28824
802.923	28854
803.065	28778
803.208	28869
803.35	28999
803.492	29044
803.635	29155
803.777	29018
803.919	28984
804.061	29440
804.204	29025
804.346	29052
804.488	28953
804.63	29041
804.773	28987
804.915	29018
805.057	29155
805.199	28942
805.341	29151
805.483	29269
805.626	29178
805.768	29235
805.91	29121
806.052	29117
806.194	29147
806.336	29284
806.478	29166
806.62	29265
806.762	29280
806.904	29478
807.046	29710
807.188	29748
807.33	29516
807.472	29756
807.614	29604
807.756	29395
807.898	29474
808.04	29391
808.182	29242
808.324	29379
808.465	29379
808.607	29444
808.749	29733
808.891	29847
809.033	29931
809.174	29745
809.316	29870
809.458	29847
809.6	29760
809.741	29999
809.883	29969
810.025	30041
810.166	30057
810.308	30076
810.45	30045
810.591	30015
810.733	29680
810.875	29882
811.016	29779
811.158	29783
811.299	29805
811.441	30038
811.582	30026
811.724	29798
811.865	29653
812.007	29752
812.148	29802
812.29	29786
812.431	30011
812.573	30022
812.714	30205
812.855	30330
812.997	30418
813.138	30570
813.279	30437
813.421	30346
813.562	30315
813.703	30041
813.845	30064
813.986	29718
814.127	29505
814.268	29512
814.41	29440
814.551	29566
814.692	29486
814.833	29379
814.974	29326
815.115	29429
815.256	29368
815.397	29318
815.539	29250
815.68	29299
815.821	29124
815.962	29292
816.103	29303
816.244	28976
816.385	29006
816.526	28930
816.666	28763
816.807	28653
816.948	28740
817.089	28866
817.23	28759
817.371	28603
817.512	28725
817.653	28462
817.793	28592
817.934	28828
818.075	28675
818.216	28599
818.356	28481
818.497	28462
818.638	28367
818.778	28337
818.919	28432
819.06	28466
819.2	28436
819.341	28683
819.481	28489
819.622	28740
819.762	28873
819.903	28862
820.043	28957
820.184	28782
820.324	28828
820.465	28713
820.605	28740
820.746	28683
820.886	28653
821.026	28634
821.167	28584
821.307	28767
821.447	28611
821.588	28538
821.728	28405
821.868	28177
822.008	28051
822.149	28044
822.289	28090
822.429	27766
822.569	27713
822.709	27682
822.849	27618
822.99	27469
823.13	27408
823.27	27564
823.41	27473
823.55	27256
823.69	27249
823.83	27393
823.97	27192
824.11	27188
824.25	27142
824.389	27119
824.529	27138
824.669	27138
824.809	27268
824.949	27169
825.089	27397
825.228	27150
825.368	27081
825.508	26937
825.648	27108
825.787	27070
825.927	27036
826.067	26929
826.206	27074
826.346	26998
826.485	27089
826.625	27032
826.765	27135
826.904	27112
827.044	26724
827.183	26708
827.323	26659
827.462	26796
827.601	26731
827.741	26731
827.88	26716
828.02	26537
828.159	26689
828.298	26549
828.437	26564
828.577	26621
828.716	26712
828.855	26571
828.994	26366
829.134	26282
829.273	26358
829.412	26221
829.551	26339
829.69	26362
829.829	26419
829.968	26446
830.107	26385
830.246	26332
830.385	26294
830.524	26225
830.663	26062
830.802	25993
830.941	25833
831.08	25947
831.219	25966
831.357	25955
831.496	26138
831.635	25989
831.774	25769
831.913	25761
832.051	25746
832.19	25693
832.329	25712
832.467	25651
832.606	25464
832.744	25544
832.883	25510
833.022	25282
833.16	25529
833.299	25537
833.437	25643
833.576	25609
833.714	25605
833.852	25670
833.991	25624
834.129	25613
834.267	25556
834.406	25616
834.544	25567
834.682	25616
834.821	25521
834.959	25715
835.097	25460
835.235	25457
835.373	25578
835.511	25430
835.65	25270
835.788	25384
835.926	25270
836.064	25270
836.202	25183
836.34	25247
836.478	25552
836.615	25285
836.753	25354
836.891	25369
837.029	25304
837.167	25384
837.305	25266
837.443	25221
837.58	25244
837.718	25293
837.856	25247
837.993	25209
838.131	25118
838.269	25088
838.406	25266
838.544	24947
838.681	24852
838.819	24681
838.956	24623
839.094	24677
839.231	24585
839.369	24684
839.506	24901
839.643	24783
839.781	24574
839.918	24486
840.055	24669
840.193	24490
840.33	24532
840.467	24604
840.604	24623
840.742	24745
840.879	24323
841.016	24521
841.153	24475
841.29	24536
841.427	24456
841.564	24513
841.701	24346
841.838	24353
841.975	24384
842.112	24479
842.249	24357
842.385	24445
842.522	24559
842.659	24247
842.796	24281
842.933	24262
843.069	24205
843.206	24148
843.343	24262
843.479	24152
843.616	24190
843.752	23821
843.889	24011
844.025	24022
844.162	23992
844.298	24022
844.435	23984
844.571	23920
844.708	23980
844.844	24083
844.98	24140
845.117	24026
845.253	23889
845.389	23840
845.525	23904
845.661	23733
845.798	23695
845.934	23672
846.07	23585
846.206	23684
846.342	23824
846.478	23623
846.614	23410
846.75	23322
846.886	23372
847.022	23486
847.158	23284
847.294	23459
847.429	23478
847.565	23360
847.701	23653
847.837	23075
847.972	23037
848.108	23033
848.244	23261
848.379	23029
848.515	23025
848.65	22911
848.786	22850
848.921	22919
849.057	23048
849.192	22999
849.328	22995
849.463	22873
849.598	22847
849.734	22858
849.869	22828
850.004	22660
850.14	22561
850.275	22683
850.41	22683
850.545	22599
850.68	22573
850.815	22637
850.95	22550
851.085	22797
851.22	22782
851.355	22717
851.49	22778
851.625	22607
851.76	22702
851.895	22710
852.03	22649
852.165	22660
852.299	22656
852.434	22797
852.569	22641
852.703	22599
852.838	22664
852.973	22843
853.107	22698
853.242	22531
853.376	22516
853.511	22333
853.645	22466
853.78	22599
853.914	22512
854.048	22462
854.183	22561
854.317	22360
854.451	22622
854.585	22436
854.72	22550
854.854	22542
854.988	22333
855.122	22470
855.256	22367
855.39	22497
855.524	22497
855.658	22508
855.792	22451
855.926	22474
856.06	22470
856.194	22527
856.327	22459
856.461	22432
856.595	22363
856.729	22459
856.862	22523
856.996	22546
857.13	22531
857.263	22607
857.397	22577
857.53	22363
857.664	22485
857.797	22577
857.931	22611
858.064	22356
858.197	22672
858.331	22257
858.464	22428
858.597	22398
858.731	22447
858.864	22417
858.997	22310
859.13	22432
859.263	22603
859.396	22493
859.529	22485
859.662	22428
859.795	22493
859.928	22481
860.061	22523
860.194	22683
860.327	22409
860.46	22447
860.592	22527
860.725	22516
860.858	22516
860.99	22489
861.123	22352
861.256	22276
861.388	22325
861.521	23075
861.653	22318
861.786	22257
861.918	22204
862.05	22341
862.183	22382
862.315	22485
862.447	22405
862.58	22394
862.712	22105
862.844	22017
862.976	22253
863.108	22238
863.24	22474
863.372	21991
863.504	22070
863.636	22097
863.768	22185
863.9	22135
864.032	22173
864.164	22090
864.296	22090
864.428	22105
864.559	22147
864.691	22234
864.823	22090
864.954	22173
865.086	21922
865.217	22029
865.349	22002
865.48	21922
865.612	21991
865.743	22090
865.875	22169
866.006	21941
866.137	22067
866.269	21937
866.4	22048
866.531	22029
866.662	21823
866.793	21907
866.924	21888
867.055	22017
867.186	21838
867.317	21945
867.448	21842
867.579	21972
867.71	21743
867.841	21869
867.972	21793
868.103	21934
868.233	21884
868.364	22010
868.495	21979
868.625	22074
868.756	22238
868.886	22128
869.017	22109
869.147	22166
869.278	22234
869.408	22109
869.539	22124
869.669	22196
869.799	22200
869.929	22204
870.06	22272
870.19	22451
870.32	22352
870.45	22493
870.58	22546
870.71	22694
870.84	22691
870.97	22493
871.1	22394
871.23	22660
871.36	22748
871.489	22573
871.619	22687
871.749	22812
871.879	22687
872.008	22790
872.138	22706
872.267	22710
872.397	22672
872.526	22504
872.656	22489
872.785	22504
872.915	22782
873.044	22771
873.173	22641
873.303	22778
873.432	22904
873.561	22984
873.69	22729
873.819	22816
873.948	22763
874.077	22892
874.206	22744
874.335	22717
874.464	22881
874.593	23010
874.722	22957
874.851	23018
874.979	22911
875.108	22987
875.237	22984
875.365	22866
875.494	22793
875.623	23029
875.751	22908
875.88	23029
876.008	23147
876.136	23124
876.265	23292
876.393	23497
876.521	23391
876.65	23486
876.778	23379
876.906	23231
877.034	23208
877.162	23318
877.29	23185
877.418	23463
877.546	23425
877.674	23296
877.802	23231
877.93	23311
878.058	23250
878.185	23227
878.313	23311
878.441	23151
878.568	23151
878.696	23368
878.824	23296
878.951	23440
879.079	23516
879.206	23577
879.333	23520
879.461	23280
879.588	23421
879.715	23528
879.842	23646
879.97	23292
880.097	23185
880.224	23140
880.351	23136
880.478	23147
880.605	23041
880.732	23086
880.859	23364
880.986	23105
881.112	23280
881.239	23105
881.366	22816
881.493	22877
881.619	22736
881.746	22649
881.872	22603
881.999	22729
882.125	22710
882.252	22694
882.378	22733
882.505	22702
882.631	22588
882.757	22421
882.883	22462
883.01	22314
883.136	22295
883.262	22333
883.388	22226
883.514	22394
883.64	22478
883.766	22341
883.892	22128
884.018	22200
884.143	22310
884.269	22466
884.395	22078
884.52	21987
884.646	22063
884.772	21880
884.897	21869
885.023	22082
885.148	22166
885.274	22101
885.399	22120
885.524	21956
885.65	22059
885.775	22029
885.9	21930
886.025	22139
886.15	22223
886.275	21888
886.4	21781
886.525	22059
886.65	21846
886.775	22048
886.9	22177
887.025	22166
887.149	21956
887.274	21865
887.399	21694
887.523	21876
887.648	21618
887.773	21766
887.897	21732
888.021	21781
888.146	21671
888.27	21713
888.395	21876
888.519	21728
888.643	21831
888.767	21713
888.891	21614
889.015	21583
889.139	21618
889.263	21545
889.387	21641
889.511	21736
889.635	21641
889.759	21576
889.883	21500
890.006	21732
890.13	21648
890.254	21302
890.377	21420
890.501	21336
890.624	21313
890.748	21378
890.871	21173
890.995	21081
891.118	21047
891.241	21123
891.364	21043
891.488	21165
891.611	21024
891.734	21070
891.857	21157
891.98	21135
892.103	21096
892.226	21020
892.349	21009
892.471	20842
892.594	21005
892.717	21032
892.839	20891
892.962	21032
893.085	20902
893.207	20914
893.33	20849
893.452	20914
893.575	21009
893.697	20941
893.819	21112
893.941	21127
894.064	21081
894.186	20876
894.308	20982
894.43	21058
894.552	21089
894.674	21108
894.796	20758
894.918	20994
895.04	20975
895.161	21020
895.283	20963
895.405	20899
895.526	21032
895.648	20876
895.769	20952
895.891	20960
896.012	21074
896.134	20864
896.255	20921
896.376	20891
896.498	21024
896.619	20963
896.74	21024
896.861	21070
896.982	21272
897.103	21329
897.224	21233
897.345	21192
897.466	21180
897.587	21256
897.708	21310
897.828	21252
897.949	21108
898.07	20975
898.19	21074
898.311	21306
898.431	21119
898.552	21180
898.672	21222
898.792	21241
898.913	21154
899.033	21017
899.153	20925
899.273	20750
899.393	20804
899.513	20891
899.633	20925
899.753	20868
899.873	20876
899.993	20811
900.113	20887
900.232	20819
900.352	20731
900.472	20648
900.591	20549
900.711	20674
900.83	20552
900.95	20815
901.069	20739
901.189	20393
901.308	20286
901.427	20317
901.546	20218
901.665	20233
901.784	20088
901.904	20081
902.023	19978
902.141	19708
902.26	19689
902.379	19845
902.498	19723
902.617	19510
902.735	19628
902.854	19719
902.973	19643
903.091	19400
903.21	19384
903.328	19308
903.446	19179
903.565	19069
903.683	19175
903.801	19023
903.919	18989
904.038	19114
904.156	18954
904.274	18901
904.392	19004
904.51	18878
904.627	18886
904.745	18928
904.863	18886
904.981	18665
905.098	18578
905.216	18616
905.334	18494
905.451	18521
905.569	18574
905.686	18570
905.803	18582
905.921	18330
906.038	18456
906.155	18365
906.272	18281
906.389	18277
906.506	18121
906.623	18155
906.74	18095
906.857	18076
906.974	17958
907.091	18182
907.208	18163
907.324	18034
907.441	17931
907.557	17840
907.674	17684
907.79	17623
907.907	17691
908.023	17722
908.139	17634
908.256	17619
908.372	17695
908.488	17684
908.604	17539
908.72	17493
908.836	17414
908.952	17391
909.068	17501
909.184	17535
909.3	17429
909.415	17543
909.531	17425
909.647	17181
909.762	17151
909.878	17159
909.993	17166
910.108	17136
910.224	17132
910.339	17166
910.454	17048
910.57	16915
910.685	16938
910.8	17242
910.915	16965
911.03	16839
911.145	16721
911.259	16656
911.374	16702
911.489	16596
911.604	16561
911.718	16428
911.833	16470
911.947	16402
912.062	16394
912.176	16451
912.291	16398
912.405	16466
912.519	16622
912.633	16729
912.748	16436
912.862	16398
912.976	16226
913.09	16071
913.204	16234
913.318	16310
913.431	16341
913.545	16363
913.659	16295
913.772	16253
913.886	16181
914	16002
914.113	16124
914.226	16284
914.34	16154
914.453	15895
914.566	15987
914.68	15884
914.793	15873
914.906	15713
915.019	15614
915.132	15671
915.245	15713
915.358	15675
915.47	15648
915.583	15637
915.696	15774
915.809	15823
915.921	15759
916.034	15633
916.146	15515
916.259	15549
916.371	15652
916.483	15614
916.595	15587
916.708	15420
916.82	15492
916.932	15504
917.044	15447
917.156	15420
917.268	15222
917.38	15302
917.491	15268
917.603	15260
917.715	15321
917.826	15268
917.938	15157
918.049	15169
918.161	15287
918.272	15462
918.384	15241
918.495	15294
918.606	14899
918.717	15058
918.828	14986
918.939	15100
919.05	14944
919.161	15036
919.272	14819
919.383	14807
919.494	14979
919.604	15138
919.715	14914
919.826	14811
919.936	14853
920.047	15013
920.157	15013
920.267	15275
920.378	15043
920.488	14918
920.598	15085
920.708	15260
920.818	15097
920.928	15108
921.038	15302
921.148	15150
921.258	14967
921.368	14769
921.477	14689
921.587	14617
921.697	14526
921.806	14705
921.916	14556
922.025	14404
922.134	14309
922.244	14305
922.353	14313
922.462	14176
922.571	14069
922.68	13993
922.789	13921
922.898	13883
923.007	13868
923.116	13902
923.224	13917
923.333	13898
923.442	13788
923.55	13696
923.659	13750
923.767	13852
923.876	13651
923.984	13742
924.092	13556
924.201	13647
924.309	13658
924.417	13586
924.525	13537
924.633	13559
924.741	14480
924.849	13308
924.956	13468
925.064	13358
925.172	13240
925.279	13316
925.387	13312
925.494	13388
925.602	13354
925.709	13274
925.816	13194
925.924	13217
926.031	13407
926.138	13209
926.245	13289
926.352	13164
926.459	13285
926.566	13308
926.673	13175
926.779	13038
926.886	13015
926.993	12871
927.099	12856
927.206	12787
927.312	12833
927.419	12943
927.525	12913
927.631	12821
927.737	12734
927.843	12677
927.95	12642
928.056	12650
928.162	12658
928.267	12802
928.373	13365
928.479	12802
928.585	12471
928.69	12604
928.796	12658
928.901	12536
929.007	12403
929.112	12532
929.218	12494
929.323	12521
929.428	12346
929.533	12460
929.638	12300
929.743	12384
929.848	12475
929.953	12369
930.058	12209
930.163	12114
930.267	12038
930.372	12163
930.477	11977
930.581	12292
930.685	12068
930.79	12007
930.894	12034
930.998	11882
931.103	11988
931.207	11729
931.311	11623
931.415	11505
931.519	11433
931.623	11201
