Data from test_V78500241_2529.txt Node
Date: Fri Mar 25 15:59:19 CST 2022
User: usil
Spectrometer: V785-0024
Trigger mode: 0
Integration Time (sec): 4.000000E-1
Scans to average: 1
Nonlinearity correction enabled: false
Boxcar width: 0
Storing dark spectrum: false
XAxis mode: Wavelengths
Number of Pixels in Spectrum: 1024
>>>>>Begin Spectral Data<<<<<
801.071	28862
801.214	28660
801.356	28432
801.499	28417
801.641	28500
801.783	28390
801.926	28424
802.068	28325
802.211	28417
802.353	28287
802.496	28181
802.638	28059
802.78	28063
802.923	27945
803.065	27979
803.208	27945
803.35	28128
803.492	28234
803.635	28284
803.777	28257
803.919	28287
804.061	28531
804.204	28390
804.346	28234
804.488	28234
804.63	28303
804.773	28306
804.915	28386
805.057	28584
805.199	28398
805.341	28653
805.483	28550
805.626	28565
805.768	28451
805.91	28535
806.052	28428
806.194	28325
806.336	28683
806.478	28538
806.62	28443
806.762	28710
806.904	28862
807.046	29041
807.188	28984
807.33	28987
807.472	29060
807.614	28854
807.756	29121
807.898	28755
808.04	28778
808.182	28748
808.324	28801
808.465	28961
808.607	29098
808.749	29060
808.891	29395
809.033	29318
809.174	29113
809.316	29102
809.458	29014
809.6	29143
809.741	29254
809.883	29379
810.025	29406
810.166	29528
810.308	29528
810.45	29497
810.591	29391
810.733	29265
810.875	29151
811.016	29143
811.158	29132
811.299	29246
811.441	29429
811.582	29280
811.724	29258
811.865	29284
812.007	29140
812.148	29315
812.29	29227
812.431	29341
812.573	29726
812.714	29570
812.855	29600
812.997	29809
813.138	29992
813.279	29729
813.421	29805
813.562	29535
813.703	29577
813.845	29455
813.986	29284
814.127	28953
814.268	28976
814.41	29044
814.551	28843
814.692	29090
814.833	28854
814.974	28866
815.115	28869
815.256	28706
815.397	28858
815.539	28683
815.68	28759
815.821	28771
815.962	28774
816.103	28790
816.244	28474
816.385	28481
816.526	28542
816.666	28295
816.807	28234
816.948	28440
817.089	28261
817.23	28268
817.371	28238
817.512	28166
817.653	28181
817.793	28112
817.934	28181
818.075	28200
818.216	28242
818.356	28284
818.497	28150
818.638	27994
818.778	27994
818.919	27964
819.06	28128
819.2	28105
819.341	28284
819.481	28238
819.622	28405
819.762	28653
819.903	28538
820.043	28500
820.184	28508
820.324	28455
820.465	28443
820.605	28519
820.746	28310
820.886	28268
821.026	28314
821.167	28424
821.307	28356
821.447	28310
821.588	28238
821.728	28070
821.868	27953
822.008	27785
822.149	27720
822.289	27724
822.429	27485
822.569	27412
822.709	27302
822.849	27169
822.99	27374
823.13	27226
823.27	27283
823.41	27028
823.55	27032
823.69	27123
823.83	27096
823.97	26994
824.11	26975
824.25	26899
824.389	26906
824.529	26906
824.669	26914
824.809	26998
824.949	26910
825.089	26986
825.228	26948
825.368	26644
825.508	26834
825.648	26686
825.787	26868
825.927	26773
826.067	26678
826.206	26689
826.346	26853
826.485	26720
826.625	26823
826.765	26785
826.904	26758
827.044	26560
827.183	26583
827.323	26366
827.462	26606
827.601	26476
827.741	26469
827.88	26583
828.02	26370
828.159	26492
828.298	26389
828.437	26453
828.577	26427
828.716	26541
828.855	26461
828.994	26138
829.134	26134
829.273	26267
829.412	26138
829.551	26088
829.69	26119
829.829	26157
829.968	26225
830.107	26240
830.246	26248
830.385	26027
830.524	26065
830.663	25909
830.802	25807
830.941	25719
831.08	25746
831.219	25887
831.357	25875
831.496	26100
831.635	25772
831.774	25597
831.913	25685
832.051	25613
832.19	25544
832.329	25392
832.467	25594
832.606	25453
832.744	25396
832.883	25426
833.022	25403
833.16	25339
833.299	25453
833.437	25449
833.576	25544
833.714	25597
833.852	25479
833.991	25647
834.129	25563
834.267	25639
834.406	25537
834.544	25658
834.682	25540
834.821	25567
834.959	25727
835.097	25563
835.235	25441
835.373	25510
835.511	25358
835.65	25419
835.788	25263
835.926	25331
836.064	25327
836.202	25221
836.34	25293
836.478	25411
836.615	25301
836.753	25232
836.891	25308
837.029	25358
837.167	25270
837.305	25198
837.443	25023
837.58	25114
837.718	25244
837.856	25240
837.993	25099
838.131	25168
838.269	25080
838.406	25042
838.544	24795
838.681	24688
838.819	24863
838.956	24563
839.094	24589
839.231	24669
839.369	24817
839.506	25065
839.643	24894
839.781	24540
839.918	24608
840.055	24631
840.193	24517
840.33	24566
840.467	24509
840.604	24654
840.742	24859
840.879	24483
841.016	24464
841.153	24346
841.29	24593
841.427	24574
841.564	24547
841.701	24589
841.838	24426
841.975	24540
842.112	24509
842.249	24281
842.385	24205
842.522	24623
842.659	24346
842.796	24224
842.933	24361
843.069	24235
843.206	24213
843.343	24251
843.479	24201
843.616	24300
843.752	23992
843.889	24072
844.025	24148
844.162	24114
844.298	24003
844.435	24117
844.571	24034
844.708	24152
844.844	24068
844.98	24258
845.117	24068
845.253	23977
845.389	23786
845.525	23794
845.661	23840
845.798	23790
845.934	23729
846.07	23794
846.206	23832
846.342	23760
846.478	23779
846.614	23680
846.75	23410
846.886	23516
847.022	23490
847.158	23562
847.294	23562
847.429	23505
847.565	23425
847.701	23714
847.837	23288
847.972	23231
848.108	23368
848.244	23292
848.379	23090
848.515	23037
848.65	22980
848.786	23071
848.921	23109
849.057	23014
849.192	23113
849.328	23105
849.463	23132
849.598	22980
849.734	23029
849.869	22949
850.004	22946
850.14	22877
850.275	22889
850.41	22748
850.545	22725
850.68	22736
850.815	22847
850.95	22991
851.085	22930
851.22	23010
851.355	22805
851.49	22850
851.625	22820
851.76	22771
851.895	22790
852.03	22729
852.165	22797
852.299	22797
852.434	23018
852.569	22858
852.703	22809
852.838	22946
852.973	22877
853.107	22972
853.242	22915
853.376	22694
853.511	22557
853.645	22641
853.78	22672
853.914	22744
854.048	22630
854.183	22660
854.317	22656
854.451	22793
854.585	22687
854.72	22710
854.854	22713
854.988	22630
855.122	22706
855.256	22451
855.39	22649
855.524	22706
855.658	22717
855.792	22637
855.926	22725
856.06	22611
856.194	22801
856.327	22630
856.461	22637
856.595	22679
856.729	22691
856.862	22748
856.996	22786
857.13	22713
857.263	22733
857.397	22790
857.53	22668
857.664	22755
857.797	22706
857.931	22725
858.064	22687
858.197	22774
858.331	22596
858.464	22656
858.597	22569
858.731	22618
858.864	22706
858.997	22618
859.13	22512
859.263	22733
859.396	22713
859.529	22573
859.662	22577
859.795	22634
859.928	22630
860.061	22835
860.194	22862
860.327	22561
860.46	22664
860.592	22778
860.725	22748
860.858	22752
860.99	22607
861.123	22645
861.256	22611
861.388	22626
861.521	23288
861.653	22645
861.786	22447
861.918	22436
862.05	22527
862.183	22531
862.315	22535
862.447	22630
862.58	22497
862.712	22443
862.844	22322
862.976	22497
863.108	22478
863.24	22759
863.372	22371
863.504	22291
863.636	22306
863.768	22402
863.9	22341
864.032	22344
864.164	22226
864.296	22379
864.428	22398
864.559	22421
864.691	22504
864.823	22337
864.954	22329
865.086	22242
865.217	22226
865.349	22169
865.48	22150
865.612	22276
865.743	22352
865.875	22215
866.006	22169
866.137	22318
866.269	22268
866.4	22291
866.531	22124
866.662	22128
866.793	22147
866.924	22173
867.055	22310
867.186	22234
867.317	22143
867.448	22090
867.579	22135
867.71	22124
867.841	22036
867.972	22181
868.103	22112
868.233	22188
868.364	22139
868.495	22238
868.625	22470
868.756	22603
868.886	22375
869.017	22478
869.147	22527
869.278	22561
869.408	22462
869.539	22306
869.669	22424
869.799	22432
869.929	22615
870.06	22519
870.19	22873
870.32	22706
870.45	22812
870.58	22885
870.71	22889
870.84	23003
870.97	22683
871.1	22866
871.23	23094
871.36	23113
871.489	22900
871.619	22980
871.749	22949
871.879	23060
872.008	23022
872.138	23010
872.267	23022
872.397	22862
872.526	22828
872.656	22805
872.785	22987
872.915	23018
873.044	23041
873.173	22995
873.303	22999
873.432	23109
873.561	23162
873.69	23079
873.819	23071
873.948	23037
874.077	23128
874.206	22949
874.335	23018
874.464	23117
874.593	23140
874.722	23250
874.851	23227
874.979	23303
875.108	23292
875.237	23102
875.365	23174
875.494	23223
875.623	23395
875.751	23250
875.88	23200
876.008	23376
876.136	23467
876.265	23478
876.393	23775
876.521	23726
876.65	23779
876.778	23589
876.906	23535
877.034	23630
877.162	23600
877.29	23505
877.418	23558
877.546	23634
877.674	23501
877.802	23596
877.93	23558
878.058	23611
878.185	23478
878.313	23638
878.441	23551
878.568	23356
878.696	23482
878.824	23596
878.951	23672
879.079	23817
879.206	23798
879.333	23912
879.461	23627
879.588	23707
879.715	23649
879.842	23870
879.97	23695
880.097	23341
880.224	23376
880.351	23345
880.478	23429
880.605	23368
880.732	23417
880.859	23699
880.986	23421
881.112	23410
881.239	23345
881.366	23258
881.493	22900
881.619	23044
881.746	22984
881.872	22984
881.999	22854
882.125	22904
882.252	23064
882.378	22831
882.505	22953
882.631	22733
882.757	22630
882.883	22717
883.01	22660
883.136	22615
883.262	22462
883.388	22428
883.514	22626
883.64	22721
883.766	22550
883.892	22398
884.018	22333
884.143	22546
884.269	22626
884.395	22223
884.52	22166
884.646	22253
884.772	22150
884.897	22135
885.023	22230
885.148	22489
885.274	22329
885.399	22257
885.524	22265
885.65	22253
885.775	22310
885.9	22143
886.025	22337
886.15	22356
886.275	22192
886.4	22101
886.525	22200
886.65	22173
886.775	22234
886.9	22356
887.025	22337
887.149	22185
887.274	22040
887.399	22074
887.523	21991
887.648	22010
887.773	21899
887.897	22078
888.021	22013
888.146	21937
888.27	22150
888.395	22055
888.519	22131
888.643	22093
888.767	22074
888.891	21941
889.015	21739
889.139	21903
889.263	21743
889.387	21873
889.511	21945
889.635	21941
889.759	21838
889.883	21785
890.006	21884
890.13	21941
890.254	21724
890.377	21667
890.501	21564
890.624	21572
890.748	21545
890.871	21481
890.995	21424
891.118	21348
891.241	21393
891.364	21401
891.488	21321
891.611	21408
891.734	21325
891.857	21462
891.98	21332
892.103	21401
892.226	21389
892.349	21348
892.471	21161
892.594	21321
892.717	21252
892.839	21222
892.962	21260
893.085	21355
893.207	21245
893.33	21230
893.452	21135
893.575	21157
893.697	21211
893.819	21443
893.941	21466
894.064	21477
894.186	21119
894.308	21032
894.43	21340
894.552	21275
894.674	21355
894.796	21146
894.918	21176
895.04	21188
895.161	21302
895.283	21222
895.405	21112
895.526	21199
895.648	21207
895.769	21268
895.891	21317
896.012	21329
896.134	21431
896.255	21195
896.376	21146
896.498	21165
896.619	21237
896.74	21291
896.861	21226
896.982	21568
897.103	21720
897.224	21530
897.345	21386
897.466	21397
897.587	21382
897.708	21481
897.828	21587
897.949	21252
898.07	21302
898.19	21306
898.311	21538
898.431	21325
898.552	21447
898.672	21462
898.792	21485
898.913	21408
899.033	21260
899.153	21180
899.273	21047
899.393	21024
899.513	21146
899.633	21207
899.753	21135
899.873	21017
899.993	21226
900.113	21123
900.232	21127
900.352	21112
900.472	20963
900.591	21024
900.711	20845
900.83	20815
900.95	20929
901.069	21066
901.189	20853
901.308	20473
901.427	20488
901.546	20507
901.665	20503
901.784	20571
901.904	20244
902.023	20168
902.141	19982
902.26	19982
902.379	20107
902.498	19970
902.617	19917
902.735	19970
902.854	19894
902.973	19803
903.091	19662
903.21	19594
903.328	19582
903.446	19499
903.565	19335
903.683	19415
903.801	19225
903.919	19377
904.038	19343
904.156	19209
904.274	19164
904.392	19084
904.51	19247
904.627	19152
904.745	19285
904.863	19118
904.981	19027
905.098	18932
905.216	18905
905.334	18958
905.451	18829
905.569	18821
905.686	18856
905.803	18840
905.921	18692
906.038	18802
906.155	18707
906.272	18464
906.389	18517
906.506	18502
906.623	18369
906.74	18304
906.857	18292
906.974	18292
907.091	18391
907.208	18437
907.324	18422
907.441	18334
907.557	18140
907.674	18144
907.79	18045
907.907	17980
908.023	18171
908.139	17942
908.256	18011
908.372	17939
908.488	18110
908.604	17752
908.72	17821
908.836	17824
908.952	17764
909.068	17882
909.184	17931
909.3	17783
909.415	17802
909.531	17790
909.647	17501
909.762	17551
909.878	17493
909.993	17535
910.108	17482
910.224	17417
910.339	17505
910.454	17379
910.57	17337
910.685	17193
910.8	17478
910.915	17376
911.03	17326
911.145	17102
911.259	17086
911.374	17090
911.489	17018
911.604	16968
911.718	16877
911.833	16824
911.947	16729
912.062	16611
912.176	16771
912.291	16839
912.405	16805
912.519	16923
912.633	16968
912.748	16736
912.862	16824
912.976	16550
913.09	16535
913.204	16649
913.318	16596
913.431	16801
913.545	16637
913.659	16660
913.772	16596
913.886	16386
914	16367
914.113	16504
914.226	16500
914.34	16470
914.453	16318
914.566	16352
914.68	16344
914.793	16230
914.906	16082
915.019	16082
915.132	15937
915.245	15972
915.358	15968
915.47	15949
915.583	16032
915.696	15918
915.809	16036
915.921	16185
916.034	15922
916.146	15865
916.259	15823
916.371	15937
916.483	15869
916.595	15823
916.708	15819
916.82	15736
916.932	15728
917.044	15701
917.156	15637
917.268	15595
917.38	15701
917.491	15690
917.603	15584
917.715	15724
917.826	15644
917.938	15431
918.049	15405
918.161	15507
918.272	15713
918.384	15671
918.495	15355
918.606	15405
918.717	15367
918.828	15275
918.939	15310
919.05	15344
919.161	15294
919.272	15085
919.383	15211
919.494	15294
919.604	15572
919.715	15329
919.826	15214
919.936	15146
920.047	15431
920.157	15298
920.267	15488
920.378	15363
920.488	15275
920.598	15447
920.708	15488
920.818	15428
920.928	15355
921.038	15633
921.148	15534
921.258	15222
921.368	15192
921.477	15074
921.587	14899
921.697	14914
921.806	15032
921.916	14906
922.025	14678
922.134	14636
922.244	14602
922.353	14590
922.462	14556
922.571	14503
922.68	14366
922.789	14271
922.898	14320
923.007	14275
923.116	14278
923.224	14225
923.333	14176
923.442	14134
923.55	14123
923.659	14138
923.767	14180
923.876	14054
923.984	14035
924.092	13978
924.201	13982
924.309	13997
924.417	14084
924.525	14031
924.633	13974
924.741	14621
924.849	13685
924.956	13932
925.064	13639
925.172	13700
925.279	13658
925.387	13704
925.494	13674
925.602	13605
925.709	13769
925.816	13468
925.924	13578
926.031	13594
926.138	13601
926.245	13639
926.352	13514
926.459	13624
926.566	13674
926.673	13472
926.779	13365
926.886	13308
926.993	13228
927.099	13209
927.206	13168
927.312	13069
927.419	13175
927.525	13209
927.631	13171
927.737	13099
927.843	13050
927.95	12844
928.056	13057
928.162	12958
928.267	13034
928.373	13708
928.479	13046
928.585	12837
928.69	12996
928.796	12993
928.901	12867
929.007	12707
929.112	12795
929.218	12760
929.323	12783
929.428	12741
929.533	12837
929.638	12669
929.743	12601
929.848	12677
929.953	12673
930.058	12563
930.163	12384
930.267	12418
930.372	12532
930.477	12365
930.581	12616
930.685	12403
930.79	12327
930.894	12338
930.998	12167
931.103	12384
931.207	11999
931.311	11980
931.415	11851
931.519	11657
931.623	11577
