Data from test_V78500241_1299.txt Node
Date: Fri Mar 25 15:50:48 CST 2022
User: usil
Spectrometer: V785-0024
Trigger mode: 0
Integration Time (sec): 4.000000E-1
Scans to average: 1
Nonlinearity correction enabled: false
Boxcar width: 0
Storing dark spectrum: false
XAxis mode: Wavelengths
Number of Pixels in Spectrum: 1024
>>>>>Begin Spectral Data<<<<<
801.071	28573
801.214	28424
801.356	28154
801.499	28154
801.641	28173
801.783	28051
801.926	28154
802.068	28017
802.211	27850
802.353	27972
802.496	27785
802.638	27819
802.78	27869
802.923	27732
803.065	27770
803.208	27637
803.35	27660
803.492	27789
803.635	27926
803.777	27705
803.919	27930
804.061	28386
804.204	27998
804.346	28040
804.488	28013
804.63	27956
804.773	27922
804.915	28010
805.057	28109
805.199	28112
805.341	28169
805.483	28310
805.626	28063
805.768	28093
805.91	28223
806.052	28314
806.194	28021
806.336	28523
806.478	28051
806.62	28090
806.762	28291
806.904	28401
807.046	28611
807.188	28497
807.33	28611
807.472	28702
807.614	28607
807.756	28668
807.898	28531
808.04	28462
808.182	28394
808.324	28485
808.465	28679
808.607	28721
808.749	28866
808.891	28961
809.033	29041
809.174	28892
809.316	28824
809.458	28991
809.6	28885
809.741	29025
809.883	29033
810.025	29151
810.166	29155
810.308	29174
810.45	29121
810.591	29159
810.733	28904
810.875	28908
811.016	28637
811.158	28816
811.299	28908
811.441	29067
811.582	29090
811.724	28877
811.865	28949
812.007	28862
812.148	28946
812.29	28873
812.431	29022
812.573	29155
812.714	29246
812.855	29341
812.997	29360
813.138	29646
813.279	29471
813.421	29406
813.562	29436
813.703	29216
813.845	29143
813.986	28892
814.127	28736
814.268	28561
814.41	28573
814.551	28622
814.692	28694
814.833	28493
814.974	28500
815.115	28527
815.256	28466
815.397	28561
815.539	28565
815.68	28341
815.821	28375
815.962	28413
816.103	28432
816.244	28166
816.385	28314
816.526	28093
816.666	27987
816.807	27949
816.948	28185
817.089	27945
817.23	27857
817.371	27880
817.512	27888
817.653	27770
817.793	27778
817.934	27911
818.075	27968
818.216	27949
818.356	27812
818.497	27869
818.638	27599
818.778	27599
818.919	27652
819.06	27652
819.2	27884
819.341	27899
819.481	27812
819.622	28055
819.762	28150
819.903	28207
820.043	27979
820.184	28086
820.324	27918
820.465	28101
820.605	28002
820.746	28101
820.886	27739
821.026	28029
821.167	27861
821.307	28131
821.447	27865
821.588	27743
821.728	27637
821.868	27526
822.008	27389
822.149	27355
822.289	27340
822.429	27104
822.569	27119
822.709	26963
822.849	26800
822.99	26921
823.13	26990
823.27	26834
823.41	26868
823.55	26530
823.69	26644
823.83	26815
823.97	26670
824.11	26442
824.25	26393
824.389	26484
824.529	26594
824.669	26522
824.809	26655
824.949	26651
825.089	26720
825.228	26606
825.368	26374
825.508	26320
825.648	26484
825.787	26537
825.927	26476
826.067	26488
826.206	26305
826.346	26453
826.485	26385
826.625	26389
826.765	26503
826.904	26537
827.044	26168
827.183	26183
827.323	26130
827.462	26134
827.601	26092
827.741	26191
827.88	26130
828.02	25963
828.159	26062
828.298	26092
828.437	26271
828.577	26054
828.716	26092
828.855	26050
828.994	25719
829.134	25788
829.273	25761
829.412	25719
829.551	25613
829.69	25693
829.829	25799
829.968	25807
830.107	25860
830.246	25742
830.385	25841
830.524	25609
830.663	25575
830.802	25521
830.941	25278
831.08	25354
831.219	25407
831.357	25510
831.496	25616
831.635	25369
831.774	25400
831.913	25354
832.051	25293
832.19	25065
832.329	25244
832.467	25057
832.606	25126
832.744	24947
832.883	24962
833.022	25050
833.16	24970
833.299	25118
833.437	25126
833.576	25103
833.714	25034
833.852	25168
833.991	25156
834.129	25312
834.267	25187
834.406	25012
834.544	25175
834.682	25164
834.821	25198
834.959	25320
835.097	25008
835.235	25225
835.373	25168
835.511	25164
835.65	24977
835.788	24973
835.926	24890
836.064	24688
836.202	24681
836.34	25000
836.478	24939
836.615	24966
836.753	25057
836.891	25080
837.029	24970
837.167	24962
837.305	24913
837.443	24817
837.58	24810
837.718	24749
837.856	24890
837.993	24764
838.131	24798
838.269	24642
838.406	24654
838.544	24551
838.681	24410
838.819	24372
838.956	24315
839.094	24174
839.231	24357
839.369	24357
839.506	24673
839.643	24532
839.781	24178
839.918	24197
840.055	24254
840.193	24258
840.33	24106
840.467	24232
840.604	24296
840.742	24456
840.879	24076
841.016	23939
841.153	24110
841.29	24399
841.427	24121
841.564	24129
841.701	24110
841.838	24079
841.975	24072
842.112	24239
842.249	23977
842.385	23817
842.522	24155
842.659	23950
842.796	23920
842.933	23992
843.069	23885
843.206	23752
843.343	24022
843.479	24034
843.616	23878
843.752	23649
843.889	23528
844.025	23779
844.162	23710
844.298	23627
844.435	23615
844.571	23615
844.708	23726
844.844	23843
844.98	23855
845.117	23798
845.253	23570
845.389	23524
845.525	23619
845.661	23463
845.798	23440
845.934	23478
846.07	23353
846.206	23535
846.342	23459
846.478	23364
846.614	23258
846.75	23094
846.886	23124
847.022	23143
847.158	23056
847.294	23113
847.429	23193
847.565	23033
847.701	23402
847.837	22919
847.972	22900
848.108	23060
848.244	22987
848.379	22710
848.515	22755
848.65	22626
848.786	22759
848.921	22744
849.057	22919
849.192	22938
849.328	22854
849.463	22847
849.598	22713
849.734	22630
849.869	22577
850.004	22546
850.14	22474
850.275	22451
850.41	22303
850.545	22459
850.68	22360
850.815	22527
850.95	22478
851.085	22592
851.22	22622
851.355	22607
851.49	22481
851.625	22519
851.76	22344
851.895	22474
852.03	22348
852.165	22421
852.299	22500
852.434	22561
852.569	22500
852.703	22443
852.838	22478
852.973	22687
853.107	22561
853.242	22531
853.376	22375
853.511	22150
853.645	22306
853.78	22402
853.914	22318
854.048	22363
854.183	22265
854.317	22173
854.451	22546
854.585	22287
854.72	22322
854.854	22318
854.988	22398
855.122	22322
855.256	22215
855.39	22219
855.524	22379
855.658	22280
855.792	22284
855.926	22314
856.06	22440
856.194	22443
856.327	22253
856.461	22325
856.595	22284
856.729	22196
856.862	22371
856.996	22344
857.13	22352
857.263	22344
857.397	22394
857.53	22367
857.664	22303
857.797	22219
857.931	22371
858.064	22238
858.197	22417
858.331	22246
858.464	22280
858.597	22166
858.731	22238
858.864	22333
858.997	22181
859.13	22253
859.263	22257
859.396	22432
859.529	22284
859.662	22173
859.795	22185
859.928	22386
860.061	22443
860.194	22611
860.327	22310
860.46	22299
860.592	22382
860.725	22596
860.858	22459
860.99	22344
861.123	22230
861.256	22238
861.388	22207
861.521	22919
861.653	22093
861.786	22093
861.918	22048
862.05	22154
862.183	22344
862.315	22348
862.447	22310
862.58	22181
862.712	21892
862.844	21949
862.976	22154
863.108	22070
863.24	22382
863.372	21945
863.504	22029
863.636	21892
863.768	21991
863.9	21972
864.032	21880
864.164	21983
864.296	21979
864.428	22006
864.559	22070
864.691	22006
864.823	21998
864.954	22002
865.086	21903
865.217	21816
865.349	21789
865.48	21888
865.612	21869
865.743	21884
865.875	21861
866.006	21759
866.137	21915
866.269	21804
866.4	21884
866.531	21842
866.662	21778
866.793	21797
866.924	21827
867.055	21926
867.186	21873
867.317	21838
867.448	21747
867.579	21759
867.71	21732
867.841	21694
867.972	21778
868.103	21804
868.233	21793
868.364	21778
868.495	21846
868.625	22055
868.756	22181
868.886	21949
869.017	22036
869.147	22131
869.278	22131
869.408	22059
869.539	22150
869.669	22135
869.799	22207
869.929	22181
870.06	22147
870.19	22360
870.32	22485
870.45	22481
870.58	22333
870.71	22538
870.84	22504
870.97	22455
871.1	22455
871.23	22557
871.36	22664
871.489	22691
871.619	22660
871.749	22626
871.879	22649
872.008	22809
872.138	22713
872.267	22630
872.397	22519
872.526	22356
872.656	22516
872.785	22363
872.915	22721
873.044	22706
873.173	22706
873.303	22740
873.432	22755
873.561	22774
873.69	22710
873.819	22702
873.948	22816
874.077	22755
874.206	22698
874.335	22656
874.464	22805
874.593	22904
874.722	22809
874.851	22949
874.979	22949
875.108	22850
875.237	22820
875.365	22786
875.494	22820
875.623	22946
875.751	22805
875.88	23048
876.008	23067
876.136	23083
876.265	23216
876.393	23387
876.521	23395
876.65	23433
876.778	23273
876.906	23162
877.034	23296
877.162	23227
877.29	23064
877.418	23292
877.546	23280
877.674	23258
877.802	23307
877.93	23223
878.058	23200
878.185	23143
878.313	23086
878.441	23033
878.568	22995
878.696	23132
878.824	23269
878.951	23303
879.079	23360
879.206	23577
879.333	23368
879.461	23250
879.588	23345
879.715	23326
879.842	23391
879.97	23322
880.097	23014
880.224	23102
880.351	23090
880.478	23071
880.605	23098
880.732	23022
880.859	23254
880.986	22953
881.112	23189
881.239	22843
881.366	22869
881.493	22660
881.619	22615
881.746	22618
881.872	22710
881.999	22660
882.125	22481
882.252	22645
882.378	22500
882.505	22717
882.631	22402
882.757	22356
882.883	22421
883.01	22306
883.136	22169
883.262	22128
883.388	22017
883.514	22299
883.64	22352
883.766	22143
883.892	22101
884.018	22067
884.143	22219
884.269	22268
884.395	22010
884.52	21857
884.646	21953
884.772	21804
884.897	21793
885.023	21835
885.148	21956
885.274	21975
885.399	22036
885.524	21911
885.65	21915
885.775	21895
885.9	21835
886.025	22040
886.15	21953
886.275	21800
886.4	21812
886.525	21934
886.65	21842
886.775	21956
886.9	21975
887.025	22112
887.149	21880
887.274	21675
887.399	21720
887.523	21793
887.648	21587
887.773	21603
887.897	21717
888.021	21747
888.146	21595
888.27	21747
888.395	21793
888.519	21618
888.643	21652
888.767	21755
888.891	21382
889.015	21542
889.139	21526
889.263	21435
889.387	21686
889.511	21709
889.635	21515
889.759	21564
889.883	21485
890.006	21488
890.13	21561
890.254	21226
890.377	21374
890.501	21351
890.624	21146
890.748	21222
890.871	21195
890.995	21070
891.118	21017
891.241	20937
891.364	21161
891.488	21283
891.611	20929
891.734	21039
891.857	20971
891.98	20967
892.103	20956
892.226	21062
892.349	20937
892.471	20815
892.594	20842
892.717	20941
892.839	20842
892.962	20941
893.085	21055
893.207	20864
893.33	20785
893.452	20823
893.575	20929
893.697	20872
893.819	20963
893.941	21100
894.064	21001
894.186	20982
894.308	20815
894.43	20914
894.552	20990
894.674	20982
894.796	20845
894.918	20933
895.04	20838
895.161	20925
895.283	21005
895.405	20819
895.526	21070
895.648	20838
895.769	20876
895.891	20948
896.012	20849
896.134	20899
896.255	20960
896.376	20948
896.498	20857
896.619	20944
896.74	20883
896.861	20914
896.982	21207
897.103	21237
897.224	21218
897.345	21020
897.466	20929
897.587	21108
897.708	21199
897.828	21268
897.949	21195
898.07	20990
898.19	20937
898.311	21119
898.431	21028
898.552	21047
898.672	21157
898.792	21165
898.913	21043
899.033	20975
899.153	20925
899.273	20720
899.393	20857
899.513	20826
899.633	20906
899.753	20845
899.873	20693
899.993	20956
900.113	20731
900.232	20796
900.352	20785
900.472	20670
900.591	20606
900.711	20583
900.83	20552
900.95	20746
901.069	20800
901.189	20385
901.308	20317
901.427	20119
901.546	20081
901.665	20278
901.784	20191
901.904	20024
902.023	19951
902.141	19803
902.26	19757
902.379	19731
902.498	19727
902.617	19586
902.735	19655
902.854	19605
902.973	19628
903.091	19468
903.21	19377
903.328	19373
903.446	19228
903.565	19164
903.683	19171
903.801	18993
903.919	19133
904.038	19057
904.156	18909
904.274	19091
904.392	18932
904.51	18749
904.627	18871
904.745	18970
904.863	19000
904.981	18627
905.098	18536
905.216	18464
905.334	18578
905.451	18536
905.569	18509
905.686	18536
905.803	18528
905.921	18247
906.038	18578
906.155	18342
906.272	18174
906.389	18194
906.506	18053
906.623	18060
906.74	18011
906.857	17923
906.974	18026
907.091	18148
907.208	18155
907.324	18064
907.441	18072
907.557	17775
907.674	17817
907.79	17649
907.907	17745
908.023	17977
908.139	17828
908.256	17775
908.372	17577
908.488	17714
908.604	17589
908.72	17436
908.836	17509
908.952	17482
909.068	17528
909.184	17600
909.3	17512
909.415	17452
909.531	17516
909.647	17250
909.762	17231
909.878	17216
909.993	17170
910.108	17231
910.224	17140
910.339	17174
910.454	17041
910.57	17006
910.685	16995
910.8	17200
910.915	17185
911.03	16980
911.145	16809
911.259	16736
911.374	16820
911.489	16778
911.604	16713
911.718	16497
911.833	16519
911.947	16447
912.062	16489
912.176	16565
912.291	16599
912.405	16440
912.519	16774
912.633	16615
912.748	16500
912.862	16436
912.976	16329
913.09	16211
913.204	16299
913.318	16295
913.431	16512
913.545	16542
913.659	16398
913.772	16322
913.886	16169
914	16158
914.113	16226
914.226	16268
914.34	16226
914.453	15998
914.566	16150
914.68	16044
914.793	15907
914.906	15808
915.019	15675
915.132	15660
915.245	15705
915.358	15618
915.47	15709
915.583	15599
915.696	15724
915.809	15857
915.921	15865
916.034	15656
916.146	15648
916.259	15526
916.371	15785
916.483	15724
916.595	15606
916.708	15519
916.82	15488
916.932	15523
917.044	15519
917.156	15458
917.268	15359
917.38	15374
917.491	15268
917.603	15275
917.715	15462
917.826	15401
917.938	15332
918.049	15249
918.161	15344
918.272	15412
918.384	15469
918.495	15222
918.606	15195
918.717	15066
918.828	15222
918.939	15211
919.05	14956
919.161	15074
919.272	14906
919.383	14925
919.494	15043
919.604	15279
919.715	15058
919.826	15013
919.936	15089
920.047	15116
920.157	15024
920.267	15176
920.378	15123
920.488	15017
920.598	15074
920.708	15287
920.818	15104
920.928	15195
921.038	15340
921.148	15218
921.258	14899
921.368	14948
921.477	14785
921.587	14845
921.697	14564
921.806	14735
921.916	14655
922.025	14442
922.134	14377
922.244	14427
922.353	14480
922.462	14275
922.571	14317
922.68	14119
922.789	14134
922.898	14035
923.007	14024
923.116	14062
923.224	14024
923.333	14005
923.442	13902
923.55	13845
923.659	13875
923.767	13841
923.876	13860
923.984	13860
924.092	13708
924.201	13799
924.309	13753
924.417	13727
924.525	13609
924.633	13677
924.741	14670
924.849	13510
924.956	13674
925.064	13441
925.172	13373
925.279	13441
925.387	13445
925.494	13460
925.602	13521
925.709	13487
925.816	13289
925.924	13377
926.031	13445
926.138	13343
926.245	13396
926.352	13228
926.459	13362
926.566	13476
926.673	13308
926.779	13209
926.886	13217
926.993	12996
927.099	13008
927.206	12897
927.312	12882
927.419	13031
927.525	13008
927.631	12939
927.737	12852
927.843	12738
927.95	12798
928.056	12806
928.162	12715
928.267	12833
928.373	13384
928.479	12848
928.585	12593
928.69	12798
928.796	12745
928.901	12608
929.007	12456
929.112	12646
929.218	12631
929.323	12475
929.428	12498
929.533	12673
929.638	12334
929.743	12456
929.848	12578
929.953	12437
930.058	12308
930.163	12117
930.267	12251
930.372	12376
930.477	12152
930.581	12365
930.685	12296
930.79	12083
930.894	12106
930.998	12083
931.103	12197
931.207	11840
931.311	11726
931.415	11680
931.519	11493
931.623	11372
