Data from test_V78500241_438.txt Node
Date: Fri Mar 25 15:44:50 CST 2022
User: usil
Spectrometer: V785-0024
Trigger mode: 0
Integration Time (sec): 4.000000E-1
Scans to average: 1
Nonlinearity correction enabled: false
Boxcar width: 0
Storing dark spectrum: false
XAxis mode: Wavelengths
Number of Pixels in Spectrum: 1024
>>>>>Begin Spectral Data<<<<<
801.071	28736
801.214	28523
801.356	28451
801.499	28356
801.641	28200
801.783	28295
801.926	28268
802.068	28230
802.211	28128
802.353	28013
802.496	27865
802.638	27800
802.78	27751
802.923	27789
803.065	27812
803.208	27797
803.35	27865
803.492	27994
803.635	28002
803.777	27914
803.919	27926
804.061	28181
804.204	27991
804.346	27846
804.488	27926
804.63	28032
804.773	27854
804.915	28082
805.057	28284
805.199	27892
805.341	28070
805.483	28147
805.626	28162
805.768	27937
805.91	28253
806.052	28135
806.194	28051
806.336	28303
806.478	28147
806.62	28105
806.762	28325
806.904	28462
807.046	28615
807.188	28618
807.33	28489
807.472	28626
807.614	28546
807.756	28584
807.898	28371
808.04	28318
808.182	28379
808.324	28459
808.465	28459
808.607	28615
808.749	28771
808.891	28858
809.033	28866
809.174	28801
809.316	28767
809.458	28896
809.6	28717
809.741	28847
809.883	28824
810.025	29086
810.166	29178
810.308	29003
810.45	28850
810.591	28942
810.733	28831
810.875	28672
811.016	28664
811.158	28713
811.299	28847
811.441	28866
811.582	28828
811.724	28740
811.865	28748
812.007	28710
812.148	28668
812.29	28854
812.431	28949
812.573	28980
812.714	29071
812.855	29254
812.997	29337
813.138	29360
813.279	29474
813.421	29372
813.562	29402
813.703	29018
813.845	29067
813.986	28649
814.127	28717
814.268	28394
814.41	28386
814.551	28474
814.692	28508
814.833	28272
814.974	28424
815.115	28363
815.256	28166
815.397	28230
815.539	28344
815.68	28226
815.821	28120
815.962	28196
816.103	28272
816.244	28032
816.385	27983
816.526	27914
816.666	27804
816.807	27644
816.948	27679
817.089	27751
817.23	27713
817.371	27679
817.512	27766
817.653	27739
817.793	27606
817.934	27770
818.075	27762
818.216	27644
818.356	27488
818.497	27629
818.638	27302
818.778	27405
818.919	27473
819.06	27481
819.2	27519
819.341	27606
819.481	27458
819.622	27838
819.762	27972
819.903	27869
820.043	27759
820.184	27724
820.324	27713
820.465	27732
820.605	27739
820.746	27709
820.886	27462
821.026	27686
821.167	27629
821.307	27713
821.447	27660
821.588	27557
821.728	27504
821.868	27260
822.008	27142
822.149	27127
822.289	27070
822.429	26773
822.569	26773
822.709	26731
822.849	26526
822.99	26674
823.13	26625
823.27	26583
823.41	26389
823.55	26385
823.69	26457
823.83	26419
823.97	26309
824.11	26206
824.25	26145
824.389	26229
824.529	26355
824.669	26100
824.809	26324
824.949	26324
825.089	26206
825.228	26309
825.368	26058
825.508	26100
825.648	26073
825.787	26142
825.927	26035
826.067	25966
826.206	26077
826.346	26084
826.485	26130
826.625	26046
826.765	26244
826.904	26096
827.044	25879
827.183	25700
827.323	25818
827.462	25693
827.601	25864
827.741	25788
827.88	25849
828.02	25575
828.159	25662
828.298	25693
828.437	25826
828.577	25738
828.716	25852
828.855	25723
828.994	25464
829.134	25468
829.273	25537
829.412	25324
829.551	25320
829.69	25411
829.829	25369
829.968	25529
830.107	25514
830.246	25407
830.385	25240
830.524	25259
830.663	25072
830.802	25198
830.941	25145
831.08	24981
831.219	25042
831.357	25141
831.496	25312
831.635	25061
831.774	24981
831.913	24863
832.051	24757
832.19	24741
832.329	24810
832.467	24646
832.606	24517
832.744	24772
832.883	24753
833.022	24631
833.16	24616
833.299	24700
833.437	24692
833.576	24688
833.714	24749
833.852	24730
833.991	24795
834.129	24665
834.267	24776
834.406	24654
834.544	24631
834.682	24707
834.821	24745
834.959	24726
835.097	24604
835.235	24654
835.373	24749
835.511	24730
835.65	24517
835.788	24525
835.926	24456
836.064	24258
836.202	24338
836.34	24521
836.478	24544
836.615	24399
836.753	24399
836.891	24391
837.029	24505
837.167	24517
837.305	24380
837.443	24410
837.58	24247
837.718	24433
837.856	24361
837.993	24346
838.131	24342
838.269	24247
838.406	24243
838.544	24163
838.681	23908
838.819	23790
838.956	23843
839.094	23672
839.231	23783
839.369	24053
839.506	24087
839.643	23973
839.781	23764
839.918	23592
840.055	23813
840.193	23623
840.33	23642
840.467	23676
840.604	23748
840.742	23889
840.879	23680
841.016	23551
841.153	23684
841.29	23676
841.427	23653
841.564	23676
841.701	23531
841.838	23733
841.975	23649
842.112	23657
842.249	23665
842.385	23467
842.522	23570
842.659	23531
842.796	23444
842.933	23322
843.069	23452
843.206	23239
843.343	23417
843.479	23307
843.616	23387
843.752	23216
843.889	23071
844.025	23368
844.162	23029
844.298	23303
844.435	23071
844.571	23025
844.708	23170
844.844	23280
844.98	23372
845.117	23246
845.253	23079
845.389	23075
845.525	23102
845.661	22961
845.798	22892
845.934	22889
846.07	22877
846.206	22748
846.342	23041
846.478	22877
846.614	22725
846.75	22538
846.886	22584
847.022	22592
847.158	22672
847.294	22649
847.429	22630
847.565	22557
847.701	22736
847.837	22257
847.972	22318
848.108	22318
848.244	22341
848.379	22249
848.515	22067
848.65	22109
848.786	22139
848.921	22051
849.057	22272
849.192	22261
849.328	22242
849.463	22188
849.598	22131
849.734	22086
849.869	22070
850.004	21987
850.14	21991
850.275	21926
850.41	21892
850.545	21808
850.68	21770
850.815	21945
850.95	21953
851.085	22067
851.22	21994
851.355	21892
851.49	21991
851.625	21823
851.76	21827
851.895	21850
852.03	21785
852.165	21884
852.299	21926
852.434	21934
852.569	22036
852.703	21979
852.838	22006
852.973	21972
853.107	22048
853.242	21937
853.376	21720
853.511	21500
853.645	21698
853.78	21861
853.914	21675
854.048	21762
854.183	21717
854.317	21667
854.451	21899
854.585	21736
854.72	21797
854.854	21736
854.988	21671
855.122	21656
855.256	21603
855.39	21667
855.524	21713
855.658	21675
855.792	21644
855.926	21846
856.06	21732
856.194	21907
856.327	21663
856.461	21625
856.595	21663
856.729	21671
856.862	21797
856.996	21690
857.13	21804
857.263	21762
857.397	21755
857.53	21804
857.664	21781
857.797	21800
857.931	21819
858.064	21808
858.197	21804
858.331	21705
858.464	21675
858.597	21603
858.731	21614
858.864	21652
858.997	21698
859.13	21743
859.263	21698
859.396	21762
859.529	21656
859.662	21667
859.795	21660
859.928	21724
860.061	21739
860.194	21800
860.327	21876
860.46	21625
860.592	21793
860.725	21857
860.858	21808
860.99	21603
861.123	21637
861.256	21599
861.388	21625
861.521	22272
861.653	21686
861.786	21447
861.918	21515
862.05	21595
862.183	21595
862.315	21599
862.447	21770
862.58	21610
862.712	21393
862.844	21412
862.976	21408
863.108	21485
863.24	21842
863.372	21386
863.504	21431
863.636	21431
863.768	21351
863.9	21393
864.032	21329
864.164	21302
864.296	21317
864.428	21435
864.559	21466
864.691	21515
864.823	21351
864.954	21321
865.086	21359
865.217	21367
865.349	21275
865.48	21226
865.612	21237
865.743	21386
865.875	21351
866.006	21237
866.137	21272
866.269	21272
866.4	21245
866.531	21268
866.662	21119
866.793	21203
866.924	21222
867.055	21184
867.186	21165
867.317	21127
867.448	21116
867.579	21100
867.71	21245
867.841	21093
867.972	21340
868.103	21127
868.233	21218
868.364	21043
868.495	21348
868.625	21416
868.756	21557
868.886	21378
869.017	21443
869.147	21690
869.278	21477
869.408	21424
869.539	21420
869.669	21667
869.799	21538
869.929	21576
870.06	21443
870.19	21907
870.32	21789
870.45	21705
870.58	21960
870.71	21964
870.84	21960
870.97	21816
871.1	21819
871.23	22006
871.36	22029
871.489	22078
871.619	21960
871.749	22063
871.879	22131
872.008	22154
872.138	21937
872.267	21953
872.397	21884
872.526	21816
872.656	21857
872.785	21892
872.915	22044
873.044	22188
873.173	22021
873.303	22051
873.432	22105
873.561	22154
873.69	22017
873.819	21899
873.948	22188
874.077	21994
874.206	22006
874.335	22135
874.464	22181
874.593	22352
874.722	22322
874.851	22500
874.979	22360
875.108	22322
875.237	22318
875.365	22059
875.494	22249
875.623	22417
875.751	22280
875.88	22131
876.008	22443
876.136	22500
876.265	22660
876.393	22755
876.521	22729
876.65	22824
876.778	22584
876.906	22733
877.034	22546
877.162	22668
877.29	22569
877.418	22542
877.546	22618
877.674	22569
877.802	22592
877.93	22653
878.058	22611
878.185	22504
878.313	22508
878.441	22626
878.568	22531
878.696	22573
878.824	22630
878.951	22733
879.079	22820
879.206	22934
879.333	22946
879.461	22622
879.588	22744
879.715	22885
879.842	22866
879.97	22664
880.097	22390
880.224	22462
880.351	22405
880.478	22417
880.605	22398
880.732	22360
880.859	22626
880.986	22527
881.112	22603
881.239	22371
881.366	22261
881.493	22063
881.619	22055
881.746	22063
881.872	21998
881.999	21835
882.125	21911
882.252	22002
882.378	22006
882.505	22116
882.631	22029
882.757	21781
882.883	21819
883.01	21846
883.136	21800
883.262	21599
883.388	21447
883.514	21679
883.64	21797
883.766	21637
883.892	21439
884.018	21534
884.143	21511
884.269	21762
884.395	21534
884.52	21298
884.646	21355
884.772	21359
884.897	21268
885.023	21325
885.148	21431
885.274	21447
885.399	21500
885.524	21473
885.65	21283
885.775	21367
885.9	21233
886.025	21481
886.15	21431
886.275	21420
886.4	21332
886.525	21275
886.65	21275
886.775	21344
886.9	21317
887.025	21667
887.149	21321
887.274	21272
887.399	21104
887.523	21176
887.648	21020
887.773	20975
887.897	21108
888.021	21108
888.146	21093
888.27	21142
888.395	21195
888.519	21176
888.643	21108
888.767	21169
888.891	21032
889.015	20921
889.139	20944
889.263	20845
889.387	20998
889.511	21116
889.635	21146
889.759	20872
889.883	20834
890.006	20891
890.13	20956
890.254	20845
890.377	20868
890.501	20617
890.624	20564
890.748	20636
890.871	20659
890.995	20545
891.118	20533
891.241	20598
891.364	20434
891.488	20594
891.611	20518
891.734	20587
891.857	20457
891.98	20541
892.103	20575
892.226	20476
892.349	20499
892.471	20351
892.594	20366
892.717	20347
892.839	20385
892.962	20282
893.085	20446
893.207	20362
893.33	20305
893.452	20309
893.575	20412
893.697	20313
893.819	20461
893.941	20629
894.064	20530
894.186	20294
894.308	20244
894.43	20434
894.552	20507
894.674	20571
894.796	20301
894.918	20412
895.04	20317
895.161	20389
895.283	20423
895.405	20267
895.526	20221
895.648	20381
895.769	20362
895.891	20393
896.012	20560
896.134	20385
896.255	20404
896.376	20408
896.498	20427
896.619	20427
896.74	20294
896.861	20564
896.982	20800
897.103	20880
897.224	20727
897.345	20651
897.466	20503
897.587	20564
897.708	20750
897.828	20644
897.949	20507
898.07	20438
898.19	20518
898.311	20731
898.431	20518
898.552	20590
898.672	20613
898.792	20621
898.913	20514
899.033	20419
899.153	20370
899.273	20294
899.393	20298
899.513	20377
899.633	20221
899.753	20301
899.873	20282
899.993	20404
900.113	20176
900.232	20244
900.352	20267
900.472	20103
900.591	20115
900.711	20145
900.83	20081
900.95	20199
901.069	20134
901.189	20024
901.308	19807
901.427	19647
901.546	19742
901.665	19700
901.784	19776
901.904	19556
902.023	19384
902.141	19331
902.26	19266
902.379	19160
902.498	19179
902.617	19046
902.735	19209
902.854	19190
902.973	19148
903.091	18844
903.21	18806
903.328	18715
903.446	18730
903.565	18688
903.683	18703
903.801	18601
903.919	18627
904.038	18536
904.156	18483
904.274	18544
904.392	18342
904.51	18399
904.627	18391
904.745	18452
904.863	18467
904.981	18186
905.098	18110
905.216	18060
905.334	18076
905.451	18007
905.569	17992
905.686	18136
905.803	17912
905.921	17878
906.038	17927
906.155	17878
906.272	17760
906.389	17779
906.506	17581
906.623	17634
906.74	17532
906.857	17410
906.974	17482
907.091	17707
907.208	17726
907.324	17608
907.441	17543
907.557	17269
907.674	17326
907.79	17341
907.907	17277
908.023	17383
908.139	17280
908.256	17193
908.372	17178
908.488	17185
908.604	16991
908.72	17010
908.836	17052
908.952	16927
909.068	17056
909.184	17113
909.3	17086
909.415	17022
909.531	17014
909.647	16729
909.762	16683
909.878	16603
909.993	16675
910.108	16645
910.224	16626
910.339	16721
910.454	16558
910.57	16542
910.685	16413
910.8	16672
910.915	16733
911.03	16561
911.145	16333
911.259	16306
911.374	16257
911.489	16139
911.604	16109
911.718	16040
911.833	15903
911.947	15949
912.062	15964
912.176	16086
912.291	16215
912.405	16112
912.519	16211
912.633	16211
912.748	16051
912.862	15991
912.976	15816
913.09	15751
913.204	15797
913.318	15819
913.431	15945
913.545	15800
913.659	15857
913.772	15838
913.886	15694
914	15614
914.113	15747
914.226	15660
914.34	15713
914.453	15496
914.566	15698
914.68	15576
914.793	15431
914.906	15256
915.019	15287
915.132	15188
915.245	15218
915.358	15260
915.47	15272
915.583	15176
915.696	15298
915.809	15393
915.921	15268
916.034	15119
916.146	15157
916.259	15112
916.371	15260
916.483	15211
916.595	15028
916.708	15009
916.82	15032
916.932	14971
917.044	15001
917.156	14925
917.268	14941
917.38	14956
917.491	14929
917.603	14857
917.715	14952
917.826	14960
917.938	14815
918.049	14811
918.161	14788
918.272	14948
918.384	14975
918.495	14887
918.606	14636
918.717	14560
918.828	14629
918.939	14648
919.05	14613
919.161	14617
919.272	14461
919.383	14465
919.494	14686
919.604	14777
919.715	14606
919.826	14511
919.936	14507
920.047	14636
920.157	14674
920.267	14708
920.378	14629
920.488	14552
920.598	14746
920.708	14864
920.818	14693
920.928	14686
921.038	14902
921.148	14819
921.258	14590
921.368	14377
921.477	14324
921.587	14347
921.697	14191
921.806	14328
921.916	14271
922.025	13986
922.134	14039
922.244	14005
922.353	14062
922.462	13894
922.571	13811
922.68	13616
922.789	13571
922.898	13647
923.007	13460
923.116	13556
923.224	13578
923.333	13559
923.442	13510
923.55	13472
923.659	13480
923.767	13510
923.876	13434
923.984	13487
924.092	13285
924.201	13354
924.309	13369
924.417	13419
924.525	13251
924.633	13358
924.741	14092
924.849	13122
924.956	13251
925.064	13076
925.172	12916
925.279	12935
925.387	13088
925.494	12943
925.602	13194
925.709	13042
925.816	12905
925.924	12935
926.031	13027
926.138	12920
926.245	12996
926.352	12886
926.459	12954
926.566	13042
926.673	12924
926.779	12757
926.886	12738
926.993	12646
927.099	12627
927.206	12536
927.312	12563
927.419	12570
927.525	12525
927.631	12563
927.737	12403
927.843	12399
927.95	12296
928.056	12399
928.162	12452
928.267	12471
928.373	13023
928.479	12494
928.585	12281
928.69	12281
928.796	12395
928.901	12365
929.007	12110
929.112	12266
929.218	12224
929.323	12152
929.428	12068
929.533	12251
929.638	12091
929.743	12098
929.848	12171
929.953	12053
930.058	12030
930.163	11699
930.267	11756
930.372	11916
930.477	11767
930.581	11977
930.685	11889
930.79	11638
930.894	11627
930.998	11699
931.103	11851
931.207	11387
931.311	11383
931.415	11258
931.519	11090
931.623	10991
