Data from test_V78500241_431.txt Node
Date: Fri Mar 25 15:44:47 CST 2022
User: usil
Spectrometer: V785-0024
Trigger mode: 0
Integration Time (sec): 4.000000E-1
Scans to average: 1
Nonlinearity correction enabled: false
Boxcar width: 0
Storing dark spectrum: false
XAxis mode: Wavelengths
Number of Pixels in Spectrum: 1024
>>>>>Begin Spectral Data<<<<<
801.071	28143
801.214	28010
801.356	27781
801.499	27644
801.641	27568
801.783	27656
801.926	27682
802.068	27515
802.211	27386
802.353	27431
802.496	27237
802.638	27218
802.78	27233
802.923	27329
803.065	27043
803.208	27017
803.35	27249
803.492	27310
803.635	27340
803.777	27317
803.919	27237
804.061	27538
804.204	27340
804.346	27275
804.488	27161
804.63	27355
804.773	27150
804.915	27089
805.057	27355
805.199	27272
805.341	27336
805.483	27576
805.626	27348
805.768	27264
805.91	27416
806.052	27427
806.194	27389
806.336	27648
806.478	27291
806.62	27405
806.762	27458
806.904	27625
807.046	27998
807.188	27861
807.33	27926
807.472	27835
807.614	27694
807.756	27599
807.898	27610
808.04	27732
808.182	27629
808.324	27572
808.465	27641
808.607	27907
808.749	27903
808.891	28086
809.033	28131
809.174	27945
809.316	28017
809.458	28017
809.6	28006
809.741	28177
809.883	28029
810.025	28128
810.166	28120
810.308	28287
810.45	28295
810.591	28131
810.733	27987
810.875	27934
811.016	27743
811.158	27876
811.299	28025
811.441	28124
811.582	28154
811.724	27987
811.865	27922
812.007	27941
812.148	27983
812.29	28086
812.431	28173
812.573	28310
812.714	28462
812.855	28470
812.997	28630
813.138	28687
813.279	28516
813.421	28459
813.562	28462
813.703	28207
813.845	28059
813.986	27770
814.127	27698
814.268	27530
814.41	27557
814.551	27515
814.692	27614
814.833	27633
814.974	27561
815.115	27606
815.256	27443
815.397	27542
815.539	27466
815.68	27454
815.821	27329
815.962	27332
816.103	27294
816.244	27252
816.385	27218
816.526	27119
816.666	26990
816.807	26967
816.948	26826
817.089	26948
817.23	26830
817.371	26872
817.512	26823
817.653	26880
817.793	26701
817.934	26708
818.075	26910
818.216	26769
818.356	26792
818.497	26727
818.638	26606
818.778	26644
818.919	26457
819.06	26533
819.2	26564
819.341	26667
819.481	26773
819.622	27020
819.762	27142
819.903	26929
820.043	27024
820.184	26868
820.324	26800
820.465	26971
820.605	26982
820.746	26990
820.886	26724
821.026	26720
821.167	26769
821.307	26906
821.447	26788
821.588	26754
821.728	26644
821.868	26332
822.008	26122
822.149	26214
822.289	26168
822.429	26050
822.569	25788
822.709	25970
822.849	25814
822.99	25776
823.13	25628
823.27	25708
823.41	25525
823.55	25327
823.69	25491
823.83	25552
823.97	25419
824.11	25304
824.25	25152
824.389	25324
824.529	25381
824.669	25240
824.809	25506
824.949	25468
825.089	25388
825.228	25449
825.368	25221
825.508	25103
825.648	25198
825.787	25228
825.927	25206
826.067	25091
826.206	25084
826.346	25228
826.485	25190
826.625	25114
826.765	25190
826.904	25095
827.044	25015
827.183	24966
827.323	24817
827.462	24916
827.601	24882
827.741	24745
827.88	24909
828.02	24795
828.159	24772
828.298	24913
828.437	24848
828.577	24821
828.716	25046
828.855	24787
828.994	24593
829.134	24574
829.273	24646
829.412	24589
829.551	24422
829.69	24585
829.829	24536
829.968	24544
830.107	24627
830.246	24456
830.385	24422
830.524	24308
830.663	24338
830.802	24270
830.941	24053
831.08	23996
831.219	24163
831.357	24174
831.496	24342
831.635	23973
831.774	23980
831.913	23878
832.051	23840
832.19	23908
832.329	23809
832.467	23764
832.606	23638
832.744	23733
832.883	23665
833.022	23577
833.16	23665
833.299	23813
833.437	23707
833.576	23703
833.714	23904
833.852	23779
833.991	23592
834.129	23771
834.267	23653
834.406	23798
834.544	23786
834.682	23684
834.821	23718
834.959	23859
835.097	23779
835.235	23718
835.373	23752
835.511	23741
835.65	23707
835.788	23707
835.926	23539
836.064	23421
836.202	23345
836.34	23684
836.478	23680
836.615	23573
836.753	23657
836.891	23653
837.029	23615
837.167	23516
837.305	23467
837.443	23516
837.58	23512
837.718	23558
837.856	23474
837.993	23402
838.131	23353
838.269	23239
838.406	23269
838.544	23193
838.681	23090
838.819	23041
838.956	22908
839.094	22995
839.231	22934
839.369	23102
839.506	23315
839.643	23060
839.781	23041
839.918	22763
840.055	22923
840.193	22915
840.33	22706
840.467	22828
840.604	22862
840.742	23181
840.879	22672
841.016	22717
841.153	22706
841.29	22915
841.427	22763
841.564	22790
841.701	22748
841.838	22641
841.975	22683
842.112	22717
842.249	22634
842.385	22691
842.522	22782
842.659	22717
842.796	22588
842.933	22535
843.069	22295
843.206	22481
843.343	22497
843.479	22459
843.616	22660
843.752	22284
843.889	22318
844.025	22371
844.162	22287
844.298	22352
844.435	22238
844.571	22105
844.708	22341
844.844	22478
844.98	22337
845.117	22310
845.253	22246
845.389	22166
845.525	22021
845.661	22021
845.798	22090
845.934	22051
846.07	21869
846.206	22044
846.342	22207
846.478	21975
846.614	21827
846.75	21747
846.886	21739
847.022	21770
847.158	21816
847.294	21797
847.429	21778
847.565	21564
847.701	21972
847.837	21557
847.972	21504
848.108	21690
848.244	21610
848.379	21496
848.515	21355
848.65	21241
848.786	21344
848.921	21302
849.057	21370
849.192	21454
849.328	21405
849.463	21310
849.598	21081
849.734	21165
849.869	21112
850.004	21024
850.14	20975
850.275	21123
850.41	20979
850.545	21135
850.68	21028
850.815	21104
850.95	20971
851.085	21214
851.22	21116
851.355	21028
851.49	21058
851.625	21154
851.76	21127
851.895	20990
852.03	20849
852.165	20895
852.299	21074
852.434	21119
852.569	21058
852.703	21077
852.838	21142
852.973	21070
853.107	21188
853.242	21001
853.376	20777
853.511	20845
853.645	20724
853.78	21039
853.914	20880
854.048	20883
854.183	20887
854.317	20883
854.451	21001
854.585	20921
854.72	20834
854.854	20906
854.988	20876
855.122	20724
855.256	20720
855.39	20868
855.524	20796
855.658	20849
855.792	20921
855.926	20849
856.06	20982
856.194	20971
856.327	20834
856.461	20682
856.595	20861
856.729	20804
856.862	20956
856.996	20834
857.13	20975
857.263	20979
857.397	21066
857.53	20861
857.664	20891
857.797	20876
857.931	20929
858.064	20781
858.197	20979
858.331	20830
858.464	20853
858.597	20693
858.731	20819
858.864	20796
858.997	20819
859.13	20849
859.263	20982
859.396	20849
859.529	20868
859.662	20834
859.795	20880
859.928	20891
860.061	21058
860.194	20986
860.327	20883
860.46	20853
860.592	20960
860.725	21062
860.858	20975
860.99	20979
861.123	20807
861.256	20823
861.388	21028
861.521	21454
861.653	20583
861.786	20754
861.918	20594
862.05	20731
862.183	20853
862.315	20765
862.447	20880
862.58	20811
862.712	20663
862.844	20537
862.976	20701
863.108	20667
863.24	20998
863.372	20442
863.504	20648
863.636	20598
863.768	20537
863.9	20526
864.032	20438
864.164	20389
864.296	20602
864.428	20659
864.559	20663
864.691	20613
864.823	20667
864.954	20526
865.086	20564
865.217	20442
865.349	20389
865.48	20434
865.612	20408
865.743	20526
865.875	20461
866.006	20454
866.137	20484
866.269	20446
866.4	20442
866.531	20480
866.662	20294
866.793	20438
866.924	20351
867.055	20408
867.186	20492
867.317	20317
867.448	20347
867.579	20503
867.71	20218
867.841	20336
867.972	20404
868.103	20400
868.233	20187
868.364	20366
868.495	20476
868.625	20686
868.756	20670
868.886	20625
869.017	20598
869.147	20750
869.278	20758
869.408	20583
869.539	20556
869.669	20727
869.799	20629
869.929	20640
870.06	20735
870.19	20899
870.32	21017
870.45	21009
870.58	21047
870.71	21165
870.84	21013
870.97	20902
871.1	20990
871.23	21146
871.36	21252
871.489	21138
871.619	21176
871.749	21321
871.879	21306
872.008	21272
872.138	21260
872.267	21062
872.397	21058
872.526	21169
872.656	21001
872.785	20914
872.915	21241
873.044	21249
873.173	21230
873.303	21268
873.432	21268
873.561	21237
873.69	21150
873.819	21218
873.948	21408
874.077	21317
874.206	21131
874.335	21306
874.464	21340
874.593	21534
874.722	21488
874.851	21576
874.979	21534
875.108	21485
875.237	21572
875.365	21428
875.494	21420
875.623	21469
875.751	21511
875.88	21458
876.008	21515
876.136	21637
876.265	21819
876.393	22002
876.521	21903
876.65	21956
876.778	21930
876.906	21850
877.034	21895
877.162	21789
877.29	21728
877.418	21888
877.546	21724
877.674	21888
877.802	21865
877.93	21903
878.058	21835
878.185	21755
878.313	21793
878.441	21857
878.568	21682
878.696	21751
878.824	21759
878.951	21998
879.079	22124
879.206	22059
879.333	21994
879.461	21789
879.588	21949
879.715	22032
879.842	22044
879.97	21835
880.097	21656
880.224	21694
880.351	21660
880.478	21595
880.605	21652
880.732	21564
880.859	21861
880.986	21610
881.112	21576
881.239	21473
881.366	21344
881.493	21321
881.619	21199
881.746	21268
881.872	21218
881.999	21230
882.125	21245
882.252	21203
882.378	21192
882.505	21260
882.631	21142
882.757	21013
882.883	21081
883.01	20925
883.136	20830
883.262	20758
883.388	20773
883.514	21001
883.64	20986
883.766	20880
883.892	20762
884.018	20777
884.143	20845
884.269	20910
884.395	20720
884.52	20678
884.646	20655
884.772	20583
884.897	20476
885.023	20655
885.148	20743
885.274	20773
885.399	20712
885.524	20606
885.65	20629
885.775	20533
885.9	20469
886.025	20682
886.15	20659
886.275	20473
886.4	20427
886.525	20537
886.65	20549
886.775	20518
886.9	20716
887.025	20861
887.149	20549
887.274	20465
887.399	20355
887.523	20339
887.648	20298
887.773	20229
887.897	20328
888.021	20396
888.146	20381
888.27	20404
888.395	20431
888.519	20389
888.643	20393
888.767	20366
888.891	20328
889.015	20126
889.139	20252
889.263	20088
889.387	20267
889.511	20374
889.635	20248
889.759	20145
889.883	20157
890.006	20172
890.13	20248
890.254	20103
890.377	20005
890.501	19925
890.624	19909
890.748	19967
890.871	19788
890.995	19677
891.118	19791
891.241	19795
891.364	19685
891.488	19978
891.611	19769
891.734	19670
891.857	19791
891.98	19776
892.103	19727
892.226	19715
892.349	19689
892.471	19521
892.594	19643
892.717	19681
892.839	19597
892.962	19674
893.085	19552
893.207	19575
893.33	19556
893.452	19502
893.575	19719
893.697	19594
893.819	19803
893.941	19818
894.064	19772
894.186	19578
894.308	19655
894.43	19658
894.552	19887
894.674	19712
894.796	19586
894.918	19723
895.04	19597
895.161	19757
895.283	19746
895.405	19556
895.526	19685
895.648	19502
895.769	19620
895.891	19677
896.012	19696
896.134	19662
896.255	19734
896.376	19677
896.498	19723
896.619	19643
896.74	19666
896.861	19696
896.982	19967
897.103	20142
897.224	19947
897.345	19970
897.466	19864
897.587	19925
897.708	20161
897.828	19902
897.949	19803
898.07	19635
898.19	19818
898.311	19947
898.431	19814
898.552	19811
898.672	19970
898.792	19944
898.913	19902
899.033	19769
899.153	19704
899.273	19719
899.393	19658
899.513	19693
899.633	19712
899.753	19609
899.873	19582
899.993	19681
900.113	19601
900.232	19567
900.352	19540
900.472	19392
900.591	19407
900.711	19407
900.83	19343
900.95	19567
901.069	19377
901.189	19362
901.308	19156
901.427	19065
901.546	19084
901.665	19034
901.784	18909
901.904	18863
902.023	18738
902.141	18585
902.26	18650
902.379	18623
902.498	18582
902.617	18483
902.735	18532
902.854	18502
902.973	18483
903.091	18178
903.21	18228
903.328	18224
903.446	17969
903.565	18140
903.683	18030
903.801	18007
903.919	18041
904.038	17946
904.156	17805
904.274	17828
904.392	17649
904.51	17718
904.627	17764
904.745	17843
904.863	17752
904.981	17539
905.098	17398
905.216	17505
905.334	17505
905.451	17360
905.569	17376
905.686	17421
905.803	17406
905.921	17185
906.038	17356
906.155	17189
906.272	17010
906.389	17083
906.506	17075
906.623	16961
906.74	16862
906.857	16908
906.974	16904
907.091	17022
907.208	17067
907.324	16919
907.441	16873
907.557	16748
907.674	16634
907.79	16656
907.907	16649
908.023	16702
908.139	16710
908.256	16683
908.372	16592
908.488	16523
908.604	16405
908.72	16318
908.836	16443
908.952	16398
909.068	16443
909.184	16421
909.3	16485
909.415	16451
909.531	16394
909.647	16230
909.762	16116
909.878	16177
909.993	16135
910.108	16120
910.224	16063
910.339	15991
910.454	15960
910.57	15964
910.685	15850
910.8	16211
910.915	16032
911.03	15895
911.145	15618
911.259	15709
911.374	15755
911.489	15652
911.604	15614
911.718	15397
911.833	15401
911.947	15344
912.062	15389
912.176	15557
912.291	15488
912.405	15420
912.519	15614
912.633	15618
912.748	15515
912.862	15439
912.976	15363
913.09	15207
913.204	15294
913.318	15252
913.431	15298
913.545	15374
913.659	15408
913.772	15157
913.886	15154
914	15005
914.113	15085
914.226	15184
914.34	15055
914.453	15020
914.566	15032
914.68	15032
914.793	14925
914.906	14678
915.019	14629
915.132	14682
915.245	14705
915.358	14746
915.47	14693
915.583	14769
915.696	14644
915.809	14746
915.921	14876
916.034	14613
916.146	14655
916.259	14568
916.371	14651
916.483	14648
916.595	14522
916.708	14575
916.82	14488
916.932	14454
917.044	14457
917.156	14461
917.268	14374
917.38	14408
917.491	14366
917.603	14404
917.715	14438
917.826	14446
917.938	14267
918.049	14237
918.161	14328
918.272	14484
918.384	14377
918.495	14290
918.606	14107
918.717	14069
918.828	14126
918.939	14046
919.05	14115
919.161	14111
919.272	13925
919.383	13936
919.494	14180
919.604	14282
919.715	14088
919.826	13951
919.936	14107
920.047	14149
920.157	14100
920.267	14301
920.378	14058
920.488	14005
920.598	14180
920.708	14324
920.818	14233
920.928	14096
921.038	14400
921.148	14355
921.258	14062
921.368	13898
921.477	13852
921.587	13753
921.697	13696
921.806	13746
921.916	13712
922.025	13491
922.134	13491
922.244	13430
922.353	13491
922.462	13365
922.571	13350
922.68	13152
922.789	13004
922.898	13050
923.007	13080
923.116	13164
923.224	13031
923.333	13080
923.442	13065
923.55	12894
923.659	12905
923.767	13015
923.876	12935
923.984	13019
924.092	12817
924.201	12966
924.309	12871
924.417	12886
924.525	12707
924.633	12787
924.741	13586
924.849	12570
924.956	12738
925.064	12585
925.172	12467
925.279	12521
925.387	12494
925.494	12544
925.602	12665
925.709	12601
925.816	12479
925.924	12597
926.031	12547
926.138	12513
926.245	12464
926.352	12391
926.459	12502
926.566	12616
926.673	12391
926.779	12266
926.886	12300
926.993	12121
927.099	12148
927.206	12140
927.312	12117
927.419	12182
927.525	12148
927.631	12098
927.737	12068
927.843	12041
927.95	11840
928.056	11950
928.162	11999
928.267	12045
928.373	12612
928.479	12068
928.585	11847
928.69	11935
928.796	11954
928.901	11855
929.007	11714
929.112	11855
929.218	11756
929.323	11718
929.428	11676
929.533	11802
929.638	11680
929.743	11604
929.848	11729
929.953	11714
930.058	11558
930.163	11315
930.267	11398
930.372	11532
930.477	11379
930.581	11608
930.685	11379
930.79	11337
930.894	11341
930.998	11258
931.103	11334
931.207	10995
931.311	10904
931.415	10877
931.519	10683
931.623	10649
