Data from test_V78500241_2498.txt Node
Date: Fri Mar 25 15:59:06 CST 2022
User: usil
Spectrometer: V785-0024
Trigger mode: 0
Integration Time (sec): 4.000000E-1
Scans to average: 1
Nonlinearity correction enabled: false
Boxcar width: 0
Storing dark spectrum: false
XAxis mode: Wavelengths
Number of Pixels in Spectrum: 1024
>>>>>Begin Spectral Data<<<<<
801.071	28675
801.214	28618
801.356	28470
801.499	28424
801.641	28166
801.783	28128
801.926	28230
802.068	28223
802.211	28238
802.353	28021
802.496	28013
802.638	27987
802.78	27880
802.923	27720
803.065	27857
803.208	27922
803.35	27823
803.492	27968
803.635	28070
803.777	27953
803.919	28120
804.061	28466
804.204	28147
804.346	28150
804.488	28029
804.63	28029
804.773	27941
804.915	28246
805.057	28413
805.199	28131
805.341	28131
805.483	28306
805.626	28242
805.768	28086
805.91	28265
806.052	28348
806.194	28177
806.336	28580
806.478	28226
806.62	28265
806.762	28470
806.904	28569
807.046	28759
807.188	28736
807.33	28721
807.472	28877
807.614	28782
807.756	28717
807.898	28577
808.04	28512
808.182	28580
808.324	28577
808.465	28736
808.607	28778
808.749	29067
808.891	29162
809.033	29128
809.174	29079
809.316	29044
809.458	28984
809.6	28900
809.741	29102
809.883	29113
810.025	29303
810.166	29258
810.308	29200
810.45	29117
810.591	29151
810.733	28961
810.875	28946
811.016	28839
811.158	28888
811.299	29041
811.441	29132
811.582	29155
811.724	29064
811.865	29033
812.007	29037
812.148	28866
812.29	28934
812.431	29227
812.573	29337
812.714	29318
812.855	29551
812.997	29646
813.138	29695
813.279	29611
813.421	29520
813.562	29429
813.703	29368
813.845	29318
813.986	29003
814.127	28847
814.268	28584
814.41	28847
814.551	28687
814.692	28824
814.833	28599
814.974	28630
815.115	28577
815.256	28474
815.397	28596
815.539	28584
815.68	28443
815.821	28443
815.962	28554
816.103	28478
816.244	28379
816.385	28348
816.526	28173
816.666	28124
816.807	27922
816.948	28029
817.089	28207
817.23	28154
817.371	27831
817.512	27876
817.653	27953
817.793	27838
817.934	28055
818.075	28006
818.216	27945
818.356	28029
818.497	27842
818.638	27736
818.778	27743
818.919	27778
819.06	27728
819.2	27816
819.341	27994
819.481	28021
819.622	28101
819.762	28356
819.903	28188
820.043	28128
820.184	28086
820.324	27979
820.465	28082
820.605	28074
820.746	28120
820.886	27972
821.026	28032
821.167	27907
821.307	28074
821.447	28055
821.588	27922
821.728	27850
821.868	27542
822.008	27553
822.149	27485
822.289	27450
822.429	27298
822.569	27199
822.709	27195
822.849	26902
822.99	26925
823.13	26971
823.27	26861
823.41	26697
823.55	26632
823.69	26910
823.83	26796
823.97	26659
824.11	26609
824.25	26590
824.389	26636
824.529	26541
824.669	26632
824.809	26743
824.949	26708
825.089	26705
825.228	26678
825.368	26499
825.508	26450
825.648	26488
825.787	26526
825.927	26492
826.067	26419
826.206	26393
826.346	26495
826.485	26495
826.625	26549
826.765	26518
826.904	26431
827.044	26290
827.183	26214
827.323	26225
827.462	26202
827.601	26347
827.741	26100
827.88	26168
828.02	26069
828.159	26248
828.298	26237
828.437	26332
828.577	26100
828.716	26275
828.855	25989
828.994	25974
829.134	25875
829.273	25814
829.412	25951
829.551	25871
829.69	25951
829.829	25917
829.968	25799
830.107	25993
830.246	25982
830.385	25913
830.524	25700
830.663	25674
830.802	25639
830.941	25518
831.08	25411
831.219	25578
831.357	25472
831.496	25909
831.635	25514
831.774	25392
831.913	25518
832.051	25301
832.19	25327
832.329	25365
832.467	25129
832.606	25168
832.744	25110
832.883	25012
833.022	25148
833.16	25122
833.299	25244
833.437	25118
833.576	25244
833.714	25217
833.852	25160
833.991	25316
834.129	25282
834.267	25343
834.406	25244
834.544	25187
834.682	25175
834.821	25324
834.959	25320
835.097	25270
835.235	25411
835.373	25263
835.511	25171
835.65	25107
835.788	25057
835.926	25031
836.064	24798
836.202	24947
836.34	25065
836.478	25122
836.615	24928
836.753	25000
836.891	25137
837.029	24909
837.167	24882
837.305	24840
837.443	24859
837.58	24840
837.718	24951
837.856	24863
837.993	24764
838.131	24928
838.269	24642
838.406	24768
838.544	24753
838.681	24509
838.819	24452
838.956	24410
839.094	24357
839.231	24330
839.369	24521
839.506	24650
839.643	24525
839.781	24490
839.918	24224
840.055	24407
840.193	24395
840.33	24334
840.467	24251
840.604	24350
840.742	24517
840.879	24114
841.016	24163
841.153	24178
841.29	24228
841.427	24117
841.564	24174
841.701	24190
841.838	24190
841.975	24125
842.112	24114
842.249	23946
842.385	23969
842.522	24197
842.659	24114
842.796	24060
842.933	24015
843.069	23828
843.206	23901
843.343	24110
843.479	24041
843.616	24076
843.752	23878
843.889	23794
844.025	23923
844.162	23798
844.298	23843
844.435	23680
844.571	23786
844.708	23748
844.844	23916
844.98	23859
845.117	23832
845.253	23680
845.389	23707
845.525	23611
845.661	23551
845.798	23440
845.934	23554
846.07	23493
846.206	23589
846.342	23573
846.478	23448
846.614	23417
846.75	23181
846.886	23220
847.022	23250
847.158	23242
847.294	23299
847.429	23261
847.565	23246
847.701	23516
847.837	22968
847.972	22858
848.108	23022
848.244	22991
848.379	22908
848.515	22721
848.65	22744
848.786	22927
848.921	22790
849.057	22919
849.192	22942
849.328	22774
849.463	22740
849.598	22866
849.734	22755
849.869	22729
850.004	22656
850.14	22630
850.275	22516
850.41	22542
850.545	22637
850.68	22493
850.815	22557
850.95	22592
851.085	22713
851.22	22725
851.355	22634
851.49	22626
851.625	22497
851.76	22565
851.895	22569
852.03	22398
852.165	22660
852.299	22710
852.434	22687
852.569	22561
852.703	22554
852.838	22744
852.973	22736
853.107	22717
853.242	22542
853.376	22432
853.511	22356
853.645	22421
853.78	22481
853.914	22451
854.048	22451
854.183	22447
854.317	22481
854.451	22664
854.585	22451
854.72	22478
854.854	22542
854.988	22371
855.122	22409
855.256	22223
855.39	22478
855.524	22398
855.658	22428
855.792	22451
855.926	22421
856.06	22303
856.194	22413
856.327	22291
856.461	22325
856.595	22257
856.729	22310
856.862	22447
856.996	22409
857.13	22512
857.263	22379
857.397	22497
857.53	22344
857.664	22424
857.797	22428
857.931	22557
858.064	22421
858.197	22565
858.331	22443
858.464	22329
858.597	22257
858.731	22421
858.864	22352
858.997	22303
859.13	22371
859.263	22348
859.396	22493
859.529	22303
859.662	22371
859.795	22360
859.928	22363
860.061	22588
860.194	22622
860.327	22451
860.46	22386
860.592	22584
860.725	22611
860.858	22565
860.99	22436
861.123	22386
861.256	22409
861.388	22325
861.521	23117
861.653	22348
861.786	22101
861.918	22242
862.05	22192
862.183	22314
862.315	22451
862.447	22451
862.58	22314
862.712	22196
862.844	22124
862.976	22207
863.108	22128
863.24	22512
863.372	22082
863.504	22120
863.636	22116
863.768	22036
863.9	22078
864.032	22097
864.164	22181
864.296	22135
864.428	22124
864.559	22074
864.691	22211
864.823	22219
864.954	22059
865.086	22025
865.217	21945
865.349	21956
865.48	22006
865.612	22010
865.743	22070
865.875	22036
866.006	22078
866.137	21945
866.269	21941
866.4	21945
866.531	21850
866.662	21854
866.793	21907
866.924	21941
867.055	21846
867.186	21972
867.317	21755
867.448	21808
867.579	21922
867.71	21808
867.841	21838
867.972	21781
868.103	21960
868.233	21979
868.364	21934
868.495	21964
868.625	22215
868.756	22325
868.886	22150
869.017	22143
869.147	22390
869.278	22272
869.408	22215
869.539	22154
869.669	22257
869.799	22204
869.929	22344
870.06	22329
870.19	22489
870.32	22474
870.45	22500
870.58	22516
870.71	22634
870.84	22611
870.97	22535
871.1	22573
871.23	22790
871.36	22733
871.489	22672
871.619	22729
871.749	22725
871.879	22854
872.008	22885
872.138	22793
872.267	22675
872.397	22618
872.526	22618
872.656	22603
872.785	22634
872.915	22771
873.044	22824
873.173	22763
873.303	22930
873.432	22839
873.561	22957
873.69	22972
873.819	22793
873.948	22877
874.077	22839
874.206	22713
874.335	22755
874.464	22866
874.593	23022
874.722	22881
874.851	23105
874.979	23064
875.108	23185
875.237	22908
875.365	22862
875.494	22995
875.623	23117
875.751	22949
875.88	22980
876.008	22961
876.136	23189
876.265	23395
876.393	23493
876.521	23547
876.65	23402
876.778	23417
876.906	23318
877.034	23315
877.162	23463
877.29	23406
877.418	23349
877.546	23360
877.674	23284
877.802	23379
877.93	23322
878.058	23284
878.185	23265
878.313	23322
878.441	23368
878.568	23239
878.696	23220
878.824	23296
878.951	23231
879.079	23551
879.206	23512
879.333	23455
879.461	23372
879.588	23395
879.715	23608
879.842	23505
879.97	23341
880.097	23200
880.224	23075
880.351	23200
880.478	23044
880.605	23185
880.732	23223
880.859	23566
880.986	23162
881.112	23155
881.239	23018
881.366	22828
881.493	22858
881.619	22752
881.746	22656
881.872	22721
881.999	22694
882.125	22637
882.252	22835
882.378	22740
882.505	22733
882.631	22645
882.757	22443
882.883	22489
883.01	22417
883.136	22371
883.262	22284
883.388	22154
883.514	22424
883.64	22455
883.766	22398
883.892	21953
884.018	22234
884.143	22333
884.269	22379
884.395	22124
884.52	22006
884.646	22059
884.772	22017
884.897	21960
885.023	21964
885.148	22238
885.274	22188
885.399	22051
885.524	22059
885.65	21941
885.775	21937
885.9	22032
886.025	22120
886.15	22131
886.275	22025
886.4	21975
886.525	21979
886.65	22006
886.775	22006
886.9	22131
887.025	22314
887.149	22116
887.274	21785
887.399	21804
887.523	21816
887.648	21682
887.773	21770
887.897	21838
888.021	21766
888.146	21812
888.27	21960
888.395	21747
888.519	21720
888.643	21865
888.767	21827
888.891	21652
889.015	21599
889.139	21595
889.263	21557
889.387	21663
889.511	21873
889.635	21701
889.759	21492
889.883	21492
890.006	21542
890.13	21606
890.254	21526
890.377	21397
890.501	21313
890.624	21249
890.748	21408
890.871	21176
890.995	21180
891.118	21085
891.241	21085
891.364	21085
891.488	21180
891.611	21024
891.734	21024
891.857	21249
891.98	21081
892.103	21131
892.226	21119
892.349	20914
892.471	20720
892.594	21013
892.717	20998
892.839	20998
892.962	20944
893.085	21135
893.207	21051
893.33	20819
893.452	20910
893.575	21032
893.697	20956
893.819	21169
893.941	21131
894.064	21256
894.186	20887
894.308	20914
894.43	21154
894.552	21104
894.674	21024
894.796	20960
894.918	21081
895.04	20895
895.161	21055
895.283	21005
895.405	20811
895.526	21108
895.648	20887
895.769	21077
895.891	21001
896.012	21108
896.134	21066
896.255	20998
896.376	21005
896.498	21020
896.619	21096
896.74	20921
896.861	20902
896.982	21317
897.103	21447
897.224	21226
897.345	21184
897.466	21123
897.587	21241
897.708	21363
897.828	21279
897.949	21085
898.07	21028
898.19	21081
898.311	21325
898.431	21264
898.552	21096
898.672	21264
898.792	21291
898.913	21237
899.033	21135
899.153	20906
899.273	20902
899.393	20895
899.513	20982
899.633	20956
899.753	20998
899.873	20758
899.993	20944
900.113	20826
900.232	20811
900.352	20796
900.472	20765
900.591	20674
900.711	20701
900.83	20773
900.95	20750
901.069	20796
901.189	20625
901.308	20377
901.427	20221
901.546	20381
901.665	20267
901.784	20256
901.904	20134
902.023	19967
902.141	19788
902.26	19826
902.379	19902
902.498	19826
902.617	19822
902.735	19811
902.854	19738
902.973	19776
903.091	19396
903.21	19468
903.328	19381
903.446	19468
903.565	19179
903.683	19251
903.801	19072
903.919	19156
904.038	19164
904.156	19080
904.274	19091
904.392	18939
904.51	18966
904.627	19038
904.745	19012
904.863	18932
904.981	18791
905.098	18597
905.216	18616
905.334	18658
905.451	18650
905.569	18585
905.686	18772
905.803	18608
905.921	18369
906.038	18574
906.155	18445
906.272	18448
906.389	18304
906.506	18262
906.623	18247
906.74	18140
906.857	18034
906.974	18152
907.091	18251
907.208	18247
907.324	18213
907.441	18079
907.557	17935
907.674	17836
907.79	17756
907.907	17851
908.023	17889
908.139	17866
908.256	17790
908.372	17840
908.488	17771
908.604	17676
908.72	17585
908.836	17573
908.952	17558
909.068	17630
909.184	17649
909.3	17611
909.415	17558
909.531	17718
909.647	17330
909.762	17334
909.878	17296
909.993	17280
910.108	17326
910.224	17208
910.339	17261
910.454	17246
910.57	17155
910.685	16968
910.8	17307
910.915	17200
911.03	17010
911.145	16927
911.259	16889
911.374	16793
911.489	16835
911.604	16759
911.718	16649
911.833	16729
911.947	16508
912.062	16523
912.176	16577
912.291	16580
912.405	16599
912.519	16828
912.633	16812
912.748	16691
912.862	16588
912.976	16436
913.09	16287
913.204	16325
913.318	16443
913.431	16527
913.545	16466
913.659	16504
913.772	16424
913.886	16181
914	16211
914.113	16284
914.226	16295
914.34	16314
914.453	16181
914.566	16261
914.68	16071
914.793	16010
914.906	15991
915.019	15785
915.132	15728
915.245	15800
915.358	15854
915.47	15819
915.583	15698
915.696	15705
915.809	15918
915.921	15934
916.034	15739
916.146	15724
916.259	15686
916.371	15838
916.483	15774
916.595	15618
916.708	15595
916.82	15549
916.932	15614
917.044	15614
917.156	15561
917.268	15389
917.38	15473
917.491	15416
917.603	15507
917.715	15511
917.826	15469
917.938	15359
918.049	15256
918.161	15405
918.272	15576
918.384	15462
918.495	15344
918.606	15154
918.717	15112
918.828	15249
918.939	15169
919.05	14990
919.161	15081
919.272	14975
919.383	15074
919.494	15222
919.604	15348
919.715	15249
919.826	15055
919.936	15108
920.047	15218
920.157	15146
920.267	15283
920.378	15131
920.488	15085
920.598	15214
920.708	15568
920.818	15203
920.928	15336
921.038	15507
921.148	15359
921.258	15093
921.368	14960
921.477	14891
921.587	14967
921.697	14788
921.806	14864
921.916	14693
922.025	14457
922.134	14511
922.244	14549
922.353	14480
922.462	14393
922.571	14263
922.68	14172
922.789	14084
922.898	14149
923.007	14039
923.116	14134
923.224	14153
923.333	14084
923.442	13955
923.55	13917
923.659	13982
923.767	14016
923.876	13830
923.984	13909
924.092	13894
924.201	13906
924.309	13925
924.417	13917
924.525	13753
924.633	13788
924.741	14613
924.849	13567
924.956	13639
925.064	13601
925.172	13483
925.279	13491
925.387	13533
925.494	13422
925.602	13605
925.709	13559
925.816	13480
925.924	13445
926.031	13552
926.138	13373
926.245	13472
926.352	13365
926.459	13468
926.566	13510
926.673	13331
926.779	13301
926.886	13259
926.993	13084
927.099	13080
927.206	13069
927.312	12970
927.419	13149
927.525	13027
927.631	13091
927.737	13015
927.843	12928
927.95	12776
928.056	12825
928.162	12863
928.267	12863
928.373	13548
928.479	13000
928.585	12703
928.69	12894
928.796	12829
928.901	12707
929.007	12597
929.112	12722
929.218	12768
929.323	12551
929.428	12582
929.533	12768
929.638	12540
929.743	12574
929.848	12749
929.953	12555
930.058	12410
930.163	12323
930.267	12304
930.372	12410
930.477	12194
930.581	12559
930.685	12273
930.79	12125
930.894	12171
930.998	12114
931.103	12334
931.207	11950
931.311	11817
931.415	11786
931.519	11592
931.623	11539
