Data from test_V78500241_1119.txt Node
Date: Fri Mar 25 15:49:33 CST 2022
User: usil
Spectrometer: V785-0024
Trigger mode: 0
Integration Time (sec): 4.000000E-1
Scans to average: 1
Nonlinearity correction enabled: false
Boxcar width: 0
Storing dark spectrum: false
XAxis mode: Wavelengths
Number of Pixels in Spectrum: 1024
>>>>>Begin Spectral Data<<<<<
801.071	28527
801.214	28401
801.356	28185
801.499	28158
801.641	27968
801.783	28082
801.926	28086
802.068	28067
802.211	28093
802.353	28040
802.496	27606
802.638	27732
802.78	27694
802.923	27583
803.065	27473
803.208	27717
803.35	27770
803.492	27804
803.635	27869
803.777	27701
803.919	27991
804.061	28124
804.204	27956
804.346	27880
804.488	27816
804.63	27770
804.773	27797
804.915	27895
805.057	28017
805.199	27846
805.341	27987
805.483	28105
805.626	28078
805.768	28006
805.91	28120
806.052	28177
806.194	27899
806.336	28291
806.478	28154
806.62	28040
806.762	28238
806.904	28417
807.046	28531
807.188	28637
807.33	28527
807.472	28672
807.614	28588
807.756	28497
807.898	28356
808.04	28474
808.182	28337
808.324	28371
808.465	28421
808.607	28603
808.749	28847
808.891	28869
809.033	28866
809.174	28824
809.316	28584
809.458	28896
809.6	28702
809.741	28908
809.883	28900
810.025	29067
810.166	29128
810.308	29147
810.45	28965
810.591	28972
810.733	28839
810.875	28675
811.016	28748
811.158	28752
811.299	28915
811.441	28946
811.582	28919
811.724	28793
811.865	28797
812.007	28763
812.148	28702
812.29	28934
812.431	28930
812.573	29044
812.714	29216
812.855	29315
812.997	29341
813.138	29619
813.279	29482
813.421	29296
813.562	29296
813.703	29143
813.845	28980
813.986	28698
814.127	28634
814.268	28599
814.41	28519
814.551	28459
814.692	28641
814.833	28432
814.974	28611
815.115	28493
815.256	28394
815.397	28497
815.539	28432
815.68	28356
815.821	28276
815.962	28325
816.103	28280
816.244	28246
816.385	28150
816.526	28036
816.666	27911
816.807	27797
816.948	27861
817.089	28040
817.23	28017
817.371	27804
817.512	27842
817.653	27770
817.793	27709
817.934	27842
818.075	27625
818.216	27770
818.356	27736
818.497	27759
818.638	27637
818.778	27545
818.919	27545
819.06	27816
819.2	27679
819.341	27842
819.481	27899
819.622	28082
819.762	28215
819.903	28010
820.043	28021
820.184	27964
820.324	27968
820.465	28025
820.605	27918
820.746	27911
820.886	27667
821.026	27827
821.167	27812
821.307	27972
821.447	28013
821.588	27793
821.728	27656
821.868	27496
822.008	27260
822.149	27393
822.289	27317
822.429	27043
822.569	26899
822.709	26899
822.849	26807
822.99	26796
823.13	26861
823.27	26785
823.41	26507
823.55	26473
823.69	26819
823.83	26579
823.97	26476
824.11	26408
824.25	26404
824.389	26518
824.529	26530
824.669	26522
824.809	26617
824.949	26667
825.089	26518
825.228	26530
825.368	26343
825.508	26351
825.648	26309
825.787	26415
825.927	26389
826.067	26347
826.206	26488
826.346	26393
826.485	26362
826.625	26290
826.765	26602
826.904	26545
827.044	26115
827.183	25982
827.323	26062
827.462	26145
827.601	26012
827.741	26058
827.88	26065
828.02	25913
828.159	26050
828.298	26119
828.437	26130
828.577	26081
828.716	26149
828.855	25822
828.994	25742
829.134	25795
829.273	25841
829.412	25689
829.551	25761
829.69	25864
829.829	25696
829.968	25875
830.107	25746
830.246	25864
830.385	25769
830.524	25723
830.663	25586
830.802	25400
830.941	25426
831.08	25240
831.219	25415
831.357	25521
831.496	25495
831.635	25324
831.774	25373
831.913	25232
832.051	25179
832.19	25213
832.329	25148
832.467	25183
832.606	25023
832.744	25038
832.883	25057
833.022	24992
833.16	24943
833.299	25084
833.437	24989
833.576	25091
833.714	25110
833.852	25099
833.991	25114
834.129	25244
834.267	25164
834.406	25103
834.544	25072
834.682	25164
834.821	25095
834.959	25179
835.097	24905
835.235	25187
835.373	24928
835.511	25110
835.65	24970
835.788	24894
835.926	24928
836.064	24817
836.202	24837
836.34	24894
836.478	24943
836.615	24871
836.753	24802
836.891	24825
837.029	24825
837.167	24913
837.305	24745
837.443	24901
837.58	24837
837.718	24833
837.856	24867
837.993	24639
838.131	24760
838.269	24517
838.406	24593
838.544	24544
838.681	24414
838.819	24376
838.956	24117
839.094	24136
839.231	24235
839.369	24445
839.506	24528
839.643	24380
839.781	24083
839.918	24254
840.055	24224
840.193	24159
840.33	24015
840.467	24133
840.604	24197
840.742	24369
840.879	24015
841.016	24018
841.153	24003
841.29	24152
841.427	24098
841.564	24106
841.701	24133
841.838	23988
841.975	23935
842.112	23961
842.249	23855
842.385	23882
842.522	23977
842.659	24022
842.796	23741
842.933	23973
843.069	23847
843.206	23847
843.343	23882
843.479	23828
843.616	23828
843.752	23680
843.889	23684
844.025	23779
844.162	23722
844.298	23836
844.435	23493
844.571	23649
844.708	23691
844.844	23779
844.98	23764
845.117	23733
845.253	23657
845.389	23493
845.525	23482
845.661	23566
845.798	23353
845.934	23345
846.07	23307
846.206	23368
846.342	23379
846.478	23315
846.614	23037
846.75	23025
846.886	23151
847.022	23003
847.158	23048
847.294	23147
847.429	23200
847.565	23071
847.701	23303
847.837	22858
847.972	22782
848.108	22854
848.244	22953
848.379	22862
848.515	22733
848.65	22630
848.786	22622
848.921	22683
849.057	22645
849.192	22755
849.328	22790
849.463	22668
849.598	22588
849.734	22641
849.869	22527
850.004	22455
850.14	22538
850.275	22493
850.41	22348
850.545	22363
850.68	22367
850.815	22447
850.95	22478
851.085	22626
851.22	22588
851.355	22413
851.49	22428
851.625	22371
851.76	22432
851.895	22462
852.03	22440
852.165	22485
852.299	22451
852.434	22561
852.569	22371
852.703	22489
852.838	22500
852.973	22603
853.107	22599
853.242	22508
853.376	22295
853.511	22112
853.645	22295
853.78	22367
853.914	22291
854.048	22249
854.183	22276
854.317	22234
854.451	22413
854.585	22253
854.72	22188
854.854	22310
854.988	22234
855.122	22268
855.256	22097
855.39	22284
855.524	22280
855.658	22284
855.792	22219
855.926	22287
856.06	22246
856.194	22261
856.327	22390
856.461	22215
856.595	22230
856.729	22154
856.862	22329
856.996	22363
857.13	22287
857.263	22310
857.397	22409
857.53	22333
857.664	22424
857.797	22363
857.931	22325
858.064	22215
858.197	22360
858.331	22310
858.464	22177
858.597	22253
858.731	22230
858.864	22067
858.997	22268
859.13	22223
859.263	22230
859.396	22386
859.529	22306
859.662	22131
859.795	22158
859.928	22242
860.061	22356
860.194	22474
860.327	22390
860.46	22276
860.592	22348
860.725	22306
860.858	22413
860.99	22207
861.123	22025
861.256	22192
861.388	22352
861.521	22965
861.653	22177
861.786	21979
861.918	22097
862.05	22139
862.183	22059
862.315	22177
862.447	22249
862.58	22109
862.712	21975
862.844	21884
862.976	22097
863.108	21998
863.24	22519
863.372	22002
863.504	21998
863.636	21930
863.768	21979
863.9	21918
864.032	21911
864.164	21911
864.296	21926
864.428	22032
864.559	22124
864.691	22074
864.823	22093
864.954	21983
865.086	21865
865.217	21876
865.349	21743
865.48	21854
865.612	21911
865.743	21895
865.875	21892
866.006	21918
866.137	21888
866.269	21884
866.4	21808
866.531	21785
866.662	21838
866.793	21743
866.924	21819
867.055	21747
867.186	21888
867.317	21694
867.448	21781
867.579	21705
867.71	21831
867.841	21797
867.972	21846
868.103	21823
868.233	21793
868.364	21819
868.495	21876
868.625	21926
868.756	22078
868.886	21918
869.017	22032
869.147	22139
869.278	22150
869.408	22097
869.539	21975
869.669	22051
869.799	22223
869.929	22207
870.06	22265
870.19	22344
870.32	22295
870.45	22276
870.58	22588
870.71	22588
870.84	22485
870.97	22409
871.1	22527
871.23	22702
871.36	22630
871.489	22516
871.619	22561
871.749	22599
871.879	22664
872.008	22687
872.138	22577
872.267	22626
872.397	22584
872.526	22512
872.656	22417
872.785	22390
872.915	22698
873.044	22759
873.173	22656
873.303	22698
873.432	22748
873.561	22755
873.69	22607
873.819	22622
873.948	22706
874.077	22694
874.206	22580
874.335	22641
874.464	22786
874.593	22908
874.722	22774
874.851	22896
874.979	22869
875.108	22927
875.237	22900
875.365	22767
875.494	22767
875.623	22934
875.751	22900
875.88	22873
876.008	22927
876.136	22987
876.265	23315
876.393	23376
876.521	23242
876.65	23364
876.778	23326
876.906	23181
877.034	23246
877.162	23086
877.29	23159
877.418	23185
877.546	23250
877.674	23216
877.802	23254
877.93	23239
878.058	23212
878.185	23029
878.313	23185
878.441	23212
878.568	22927
878.696	23223
878.824	23197
878.951	23284
879.079	23490
879.206	23372
879.333	23311
879.461	23155
879.588	23337
879.715	23330
879.842	23535
879.97	23330
880.097	23071
880.224	23044
880.351	23083
880.478	23067
880.605	23113
880.732	23090
880.859	23277
880.986	23003
881.112	23132
881.239	22930
881.366	22664
881.493	22656
881.619	22641
881.746	22569
881.872	22554
881.999	22592
882.125	22516
882.252	22588
882.378	22641
882.505	22557
882.631	22447
882.757	22322
882.883	22356
883.01	22204
883.136	22261
883.262	22154
883.388	22101
883.514	22371
883.64	22318
883.766	22093
883.892	22029
884.018	21972
884.143	22158
884.269	22344
884.395	22010
884.52	21785
884.646	21960
884.772	21930
884.897	21759
885.023	21846
885.148	22048
885.274	22101
885.399	22002
885.524	21850
885.65	21895
885.775	21762
885.9	21869
886.025	22063
886.15	21975
886.275	21869
886.4	21842
886.525	22025
886.65	21857
886.775	21808
886.9	21930
887.025	22139
887.149	21819
887.274	21625
887.399	21694
887.523	21500
887.648	21603
887.773	21622
887.897	21682
888.021	21838
888.146	21705
888.27	21800
888.395	21709
888.519	21652
888.643	21717
888.767	21728
888.891	21625
889.015	21416
889.139	21557
889.263	21389
889.387	21587
889.511	21717
889.635	21663
889.759	21458
889.883	21252
890.006	21466
890.13	21595
890.254	21420
890.377	21332
890.501	21119
890.624	21165
890.748	21325
890.871	21112
890.995	20952
891.118	20998
891.241	20979
891.364	20883
891.488	21207
891.611	21055
891.734	21009
891.857	21127
891.98	21066
892.103	20998
892.226	21039
892.349	21024
892.471	20769
892.594	20891
892.717	20902
892.839	20906
892.962	21039
893.085	20918
893.207	20861
893.33	20811
893.452	20781
893.575	20921
893.697	20769
893.819	21089
893.941	21017
894.064	21150
894.186	20815
894.308	20781
894.43	20880
894.552	20921
894.674	20929
894.796	20731
894.918	20872
895.04	20834
895.161	21055
895.283	20830
895.405	20746
895.526	20952
895.648	20830
895.769	20887
895.891	20990
896.012	20941
896.134	20883
896.255	20979
896.376	20800
896.498	20857
896.619	20933
896.74	20872
896.861	20941
896.982	21275
897.103	21336
897.224	21100
897.345	21142
897.466	20990
897.587	21077
897.708	21317
897.828	21085
897.949	21020
898.07	20937
898.19	21070
898.311	21298
898.431	20948
898.552	21085
898.672	21169
898.792	21283
898.913	21138
899.033	21036
899.153	21051
899.273	20754
899.393	20811
899.513	20777
899.633	20880
899.753	20815
899.873	20720
899.993	20838
900.113	20773
900.232	20796
900.352	20807
900.472	20590
900.591	20507
900.711	20629
900.83	20621
900.95	20739
901.069	20632
901.189	20366
901.308	20282
901.427	20138
901.546	20278
901.665	20210
901.784	20161
901.904	20069
902.023	19947
902.141	19666
902.26	19647
902.379	19696
902.498	19605
902.617	19578
902.735	19689
902.854	19776
902.973	19426
903.091	19438
903.21	19301
903.328	19324
903.446	19251
903.565	19084
903.683	19232
903.801	19027
903.919	19114
904.038	19148
904.156	18867
904.274	18958
904.392	18867
904.51	18935
904.627	18802
904.745	18935
904.863	18871
904.981	18639
905.098	18559
905.216	18494
905.334	18582
905.451	18528
905.569	18490
905.686	18464
905.803	18559
905.921	18372
906.038	18384
906.155	18357
906.272	18281
906.389	18300
906.506	18133
906.623	18026
906.74	18068
906.857	17961
906.974	18015
907.091	18133
907.208	18273
907.324	18155
907.441	17950
907.557	17859
907.674	17843
907.79	17710
907.907	17821
908.023	17866
908.139	17805
908.256	17764
908.372	17684
908.488	17661
908.604	17573
908.72	17558
908.836	17543
908.952	17566
909.068	17520
909.184	17653
909.3	17452
909.415	17600
909.531	17414
909.647	17376
909.762	17094
909.878	17216
909.993	17273
910.108	17121
910.224	17178
910.339	17113
910.454	16976
910.57	16991
910.685	16877
910.8	17231
910.915	17170
911.03	17048
911.145	16854
911.259	16828
911.374	16767
911.489	16672
911.604	16599
911.718	16588
911.833	16500
911.947	16440
912.062	16375
912.176	16618
912.291	16630
912.405	16550
912.519	16637
912.633	16733
912.748	16493
912.862	16474
912.976	16329
913.09	16253
913.204	16299
913.318	16333
913.431	16440
913.545	16360
913.659	16523
913.772	16291
913.886	16139
914	16128
914.113	16280
914.226	16284
914.34	16211
914.453	15998
914.566	16135
914.68	15918
914.793	16029
914.906	15903
915.019	15717
915.132	15667
915.245	15770
915.358	15800
915.47	15770
915.583	15720
915.696	15778
915.809	15812
915.921	15800
916.034	15694
916.146	15663
916.259	15713
916.371	15652
916.483	15648
916.595	15633
916.708	15618
916.82	15534
916.932	15435
917.044	15477
917.156	15492
917.268	15294
917.38	15367
917.491	15332
917.603	15378
917.715	15351
917.826	15481
917.938	15306
918.049	15150
918.161	15264
918.272	15359
918.384	15504
918.495	15260
918.606	15157
918.717	15062
918.828	15093
918.939	15135
919.05	14975
919.161	15070
919.272	14952
919.383	14849
919.494	15184
919.604	15249
919.715	15081
919.826	14979
919.936	14971
920.047	15138
920.157	14979
920.267	15283
920.378	15081
920.488	14963
920.598	15195
920.708	15397
920.818	15157
920.928	15135
921.038	15340
921.148	15222
921.258	15020
921.368	14921
921.477	14834
921.587	14727
921.697	14762
921.806	14655
921.916	14659
922.025	14427
922.134	14374
922.244	14400
922.353	14423
922.462	14309
922.571	14202
922.68	14214
922.789	14043
922.898	14084
923.007	13902
923.116	14043
923.224	14043
923.333	14020
923.442	13879
923.55	13856
923.659	13902
923.767	13837
923.876	13856
923.984	13947
924.092	13830
924.201	13852
924.309	13712
924.417	13875
924.525	13731
924.633	13746
924.741	14461
924.849	13480
924.956	13643
925.064	13453
925.172	13407
925.279	13358
925.387	13460
925.494	13480
925.602	13510
925.709	13430
925.816	13327
925.924	13289
926.031	13480
926.138	13308
926.245	13362
926.352	13289
926.459	13373
926.566	13331
926.673	13297
926.779	13126
926.886	13149
926.993	13031
927.099	12924
927.206	12916
927.312	12825
927.419	12970
927.525	12928
927.631	13008
927.737	12829
927.843	12787
927.95	12741
928.056	12821
928.162	12817
928.267	12871
928.373	13373
928.479	12810
928.585	12551
928.69	12787
928.796	12825
928.901	12726
929.007	12559
929.112	12578
929.218	12593
929.323	12532
929.428	12471
929.533	12722
929.638	12448
929.743	12471
929.848	12483
929.953	12509
930.058	12323
930.163	12106
930.267	12216
930.372	12407
930.477	12136
930.581	12403
930.685	12182
930.79	12072
930.894	12079
930.998	12083
931.103	12072
931.207	11790
931.311	11794
931.415	11688
931.519	11444
931.623	11414
