Data from test_V78500241_1563.txt Node
Date: Fri Mar 25 15:52:37 CST 2022
User: usil
Spectrometer: V785-0024
Trigger mode: 0
Integration Time (sec): 4.000000E-1
Scans to average: 1
Nonlinearity correction enabled: false
Boxcar width: 0
Storing dark spectrum: false
XAxis mode: Wavelengths
Number of Pixels in Spectrum: 1024
>>>>>Begin Spectral Data<<<<<
801.071	28044
801.214	27979
801.356	27717
801.499	27743
801.641	27595
801.783	27694
801.926	27732
802.068	27641
802.211	27561
802.353	27462
802.496	27363
802.638	27340
802.78	27355
802.923	27302
803.065	27173
803.208	27184
803.35	27344
803.492	27500
803.635	27462
803.777	27405
803.919	27435
804.061	27842
804.204	27553
804.346	27321
804.488	27496
804.63	27431
804.773	27557
804.915	27515
805.057	27599
805.199	27504
805.341	27606
805.483	27656
805.626	27526
805.768	27504
805.91	27663
806.052	27663
806.194	27576
806.336	27930
806.478	27732
806.62	27519
806.762	27816
806.904	27960
807.046	28230
807.188	28116
807.33	28120
807.472	28074
807.614	27960
807.756	28010
807.898	27899
808.04	27869
808.182	27861
808.324	27930
808.465	28101
808.607	28093
808.749	28287
808.891	28310
809.033	28428
809.174	28421
809.316	28200
809.458	28280
809.6	28306
809.741	28272
809.883	28436
810.025	28554
810.166	28706
810.308	28451
810.45	28550
810.591	28504
810.733	28310
810.875	28265
811.016	28188
811.158	28147
811.299	28234
811.441	28451
811.582	28489
811.724	28363
811.865	28303
812.007	28268
812.148	28299
812.29	28188
812.431	28485
812.573	28634
812.714	28687
812.855	28763
812.997	28831
813.138	29041
813.279	29121
813.421	28691
813.562	28691
813.703	28508
813.845	28584
813.986	28291
814.127	27979
814.268	28070
814.41	27998
814.551	27956
814.692	27907
814.833	27960
814.974	27914
815.115	27960
815.256	27827
815.397	27854
815.539	27766
815.68	27797
815.821	27713
815.962	27797
816.103	27816
816.244	27656
816.385	27443
816.526	27637
816.666	27412
816.807	27241
816.948	27310
817.089	27245
817.23	27405
817.371	27329
817.512	27237
817.653	27268
817.793	27146
817.934	27192
818.075	27252
818.216	27275
818.356	27321
818.497	27230
818.638	27036
818.778	27028
818.919	27074
819.06	27074
819.2	27192
819.341	27302
819.481	27313
819.622	27367
819.762	27488
819.903	27553
820.043	27363
820.184	27386
820.324	27416
820.465	27481
820.605	27359
820.746	27374
820.886	27233
821.026	27420
821.167	27344
821.307	27427
821.447	27260
821.588	27173
821.728	27108
821.868	26883
822.008	26929
822.149	26754
822.289	26678
822.429	26480
822.569	26457
822.709	26396
822.849	26355
822.99	26263
823.13	26294
823.27	26126
823.41	26039
823.55	25936
823.69	26073
823.83	25959
823.97	25917
824.11	25795
824.25	25818
824.389	25799
824.529	26035
824.669	26012
824.809	26027
824.949	25947
825.089	25890
825.228	25944
825.368	25807
825.508	25788
825.648	25738
825.787	25890
825.927	25966
826.067	25769
826.206	25795
826.346	25830
826.485	25902
826.625	25837
826.765	25807
826.904	25966
827.044	25552
827.183	25506
827.323	25502
827.462	25521
827.601	25556
827.741	25396
827.88	25533
828.02	25373
828.159	25449
828.298	25548
828.437	25582
828.577	25384
828.716	25590
828.855	25331
828.994	25297
829.134	25194
829.273	25148
829.412	25126
829.551	25046
829.69	25244
829.829	25266
829.968	25247
830.107	25198
830.246	25240
830.385	25080
830.524	25046
830.663	24935
830.802	24837
830.941	24817
831.08	24726
831.219	24916
831.357	24920
831.496	25069
831.635	24650
831.774	24825
831.913	24719
832.051	24627
832.19	24486
832.329	24627
832.467	24517
832.606	24456
832.744	24429
832.883	24505
833.022	24445
833.16	24532
833.299	24441
833.437	24456
833.576	24574
833.714	24490
833.852	24467
833.991	24513
834.129	24623
834.267	24616
834.406	24486
834.544	24494
834.682	24612
834.821	24532
834.959	24726
835.097	24467
835.235	24715
835.373	24604
835.511	24490
835.65	24399
835.788	24441
835.926	24296
836.064	24171
836.202	24273
836.34	24304
836.478	24342
836.615	24346
836.753	24319
836.891	24380
837.029	24475
837.167	24330
837.305	24239
837.443	24315
837.58	24045
837.718	24133
837.856	24292
837.993	24186
838.131	24091
838.269	24026
838.406	24194
838.544	23992
838.681	23741
838.819	23813
838.956	23687
839.094	23528
839.231	23699
839.369	23710
839.506	24053
839.643	23908
839.781	23638
839.918	23520
840.055	23703
840.193	23627
840.33	23520
840.467	23672
840.604	23756
840.742	23779
840.879	23482
841.016	23436
841.153	23501
841.29	23585
841.427	23554
841.564	23570
841.701	23505
841.838	23505
841.975	23429
842.112	23520
842.249	23433
842.385	23296
842.522	23554
842.659	23429
842.796	23242
842.933	23326
843.069	23181
843.206	23376
843.343	23425
843.479	23383
843.616	23265
843.752	23086
843.889	23189
844.025	23334
844.162	23102
844.298	23132
844.435	23159
844.571	23113
844.708	23117
844.844	23322
844.98	23242
845.117	23200
845.253	23044
845.389	22953
845.525	22976
845.661	22892
845.798	22889
845.934	22923
846.07	22805
846.206	22858
846.342	22850
846.478	22797
846.614	22615
846.75	22405
846.886	22523
847.022	22660
847.158	22546
847.294	22603
847.429	22596
847.565	22382
847.701	22713
847.837	22303
847.972	22230
848.108	22341
848.244	22314
848.379	22044
848.515	22051
848.65	22086
848.786	22078
848.921	22185
849.057	22333
849.192	22181
849.328	22154
849.463	22169
849.598	22158
849.734	22086
849.869	21960
850.004	21964
850.14	21899
850.275	21945
850.41	21838
850.545	21854
850.68	21812
850.815	21854
850.95	21876
851.085	22086
851.22	22010
851.355	21987
851.49	21846
851.625	21770
851.76	21903
851.895	21785
852.03	21926
852.165	21762
852.299	21854
852.434	21987
852.569	21873
852.703	22029
852.838	21895
852.973	22013
853.107	21983
853.242	21895
853.376	21698
853.511	21641
853.645	21663
853.78	21709
853.914	21633
854.048	21800
854.183	21755
854.317	21724
854.451	21934
854.585	21781
854.72	21713
854.854	21861
854.988	21701
855.122	21762
855.256	21591
855.39	21652
855.524	21724
855.658	21759
855.792	21724
855.926	21751
856.06	21884
856.194	21880
856.327	21781
856.461	21618
856.595	21591
856.729	21675
856.862	21823
856.996	21766
857.13	21800
857.263	21857
857.397	21884
857.53	21804
857.664	21778
857.797	21808
857.931	21819
858.064	21705
858.197	21884
858.331	21778
858.464	21656
858.597	21625
858.731	21728
858.864	21717
858.997	21785
859.13	21675
859.263	21652
859.396	21720
859.529	21644
859.662	21679
859.795	21667
859.928	21717
860.061	21911
860.194	21854
860.327	21762
860.46	21656
860.592	21793
860.725	21884
860.858	21743
860.99	21698
861.123	21698
861.256	21629
861.388	21648
861.521	22265
861.653	21576
861.786	21515
861.918	21481
862.05	21526
862.183	21648
862.315	21724
862.447	21747
862.58	21667
862.712	21557
862.844	21397
862.976	21477
863.108	21382
863.24	21994
863.372	21485
863.504	21329
863.636	21378
863.768	21454
863.9	21386
864.032	21374
864.164	21363
864.296	21420
864.428	21477
864.559	21530
864.691	21485
864.823	21477
864.954	21351
865.086	21454
865.217	21405
865.349	21199
865.48	21272
865.612	21272
865.743	21515
865.875	21374
866.006	21222
866.137	21283
866.269	21351
866.4	21363
866.531	21222
866.662	21176
866.793	21165
866.924	21329
867.055	21199
867.186	21249
867.317	21245
867.448	21260
867.579	21317
867.71	21173
867.841	21180
867.972	21241
868.103	21199
868.233	21218
868.364	21272
868.495	21519
868.625	21485
868.756	21606
868.886	21477
869.017	21515
869.147	21507
869.278	21564
869.408	21576
869.539	21572
869.669	21625
869.799	21591
869.929	21675
870.06	21614
870.19	21762
870.32	21793
870.45	21800
870.58	21861
870.71	21972
870.84	21876
870.97	21800
871.1	21918
871.23	22120
871.36	21994
871.489	22105
871.619	21975
871.749	22109
871.879	22051
872.008	22226
872.138	22086
872.267	22105
872.397	21972
872.526	21899
872.656	21876
872.785	21979
872.915	22162
873.044	22261
873.173	22048
873.303	22090
873.432	22166
873.561	22287
873.69	22230
873.819	22139
873.948	22234
874.077	22211
874.206	22040
874.335	22154
874.464	22158
874.593	22375
874.722	22295
874.851	22333
874.979	22268
875.108	22367
875.237	22295
875.365	22158
875.494	22226
875.623	22462
875.751	22280
875.88	22268
876.008	22379
876.136	22459
876.265	22873
876.393	22797
876.521	22763
876.65	22797
876.778	22797
876.906	22771
877.034	22649
877.162	22725
877.29	22538
877.418	22630
877.546	22717
877.674	22706
877.802	22694
877.93	22713
878.058	22592
878.185	22474
878.313	22512
878.441	22713
878.568	22504
878.696	22573
878.824	22645
878.951	22801
879.079	22942
879.206	22946
879.333	22900
879.461	22706
879.588	22805
879.715	22805
879.842	22850
879.97	22740
880.097	22413
880.224	22413
880.351	22466
880.478	22481
880.605	22554
880.732	22550
880.859	22809
880.986	22489
881.112	22493
881.239	22356
881.366	22306
881.493	22154
881.619	22105
881.746	22131
881.872	21972
881.999	22070
882.125	22109
882.252	22021
882.378	22074
882.505	22246
882.631	21854
882.757	21717
882.883	21972
883.01	21846
883.136	21747
883.262	21641
883.388	21656
883.514	21800
883.64	21861
883.766	21633
883.892	21542
884.018	21500
884.143	21720
884.269	21751
884.395	21561
884.52	21408
884.646	21401
884.772	21272
884.897	21298
885.023	21378
885.148	21557
885.274	21534
885.399	21416
885.524	21306
885.65	21428
885.775	21378
885.9	21439
886.025	21492
886.15	21447
886.275	21466
886.4	21401
886.525	21230
886.65	21310
886.775	21275
886.9	21500
887.025	21583
887.149	21507
887.274	21249
887.399	21272
887.523	21306
887.648	21169
887.773	21039
887.897	21298
888.021	21218
888.146	21116
888.27	21279
888.395	21325
888.519	21214
888.643	21211
888.767	21123
888.891	20990
889.015	20971
889.139	21055
889.263	20960
889.387	21142
889.511	21195
889.635	21112
889.759	20929
889.883	20914
890.006	21024
890.13	21032
890.254	20914
890.377	20895
890.501	20746
890.624	20796
890.748	20659
890.871	20560
890.995	20651
891.118	20415
891.241	20564
891.364	20511
891.488	20663
891.611	20503
891.734	20533
891.857	20530
891.98	20415
892.103	20579
892.226	20545
892.349	20545
892.471	20305
892.594	20446
892.717	20434
892.839	20358
892.962	20503
893.085	20484
893.207	20355
893.33	20393
893.452	20469
893.575	20495
893.697	20320
893.819	20556
893.941	20651
894.064	20545
894.186	20328
894.308	20347
894.43	20495
894.552	20537
894.674	20511
894.796	20324
894.918	20431
895.04	20278
895.161	20469
895.283	20457
895.405	20450
895.526	20408
895.648	20438
895.769	20454
895.891	20377
896.012	20533
896.134	20476
896.255	20450
896.376	20374
896.498	20499
896.619	20533
896.74	20442
896.861	20419
896.982	20746
897.103	20815
897.224	20735
897.345	20674
897.466	20518
897.587	20598
897.708	20796
897.828	20667
897.949	20613
898.07	20431
898.19	20552
898.311	20640
898.431	20514
898.552	20720
898.672	20754
898.792	20743
898.913	20636
899.033	20587
899.153	20396
899.273	20298
899.393	20336
899.513	20358
899.633	20366
899.753	20412
899.873	20309
899.993	20381
900.113	20301
900.232	20298
900.352	20339
900.472	20153
900.591	20164
900.711	20145
900.83	20035
900.95	20240
901.069	20191
901.189	20119
901.308	19811
901.427	19693
901.546	19799
901.665	19616
901.784	19788
901.904	19556
902.023	19540
902.141	19327
902.26	19308
902.379	19221
902.498	19209
902.617	19202
902.735	19270
902.854	19217
902.973	19168
903.091	18848
903.21	18951
903.328	18833
903.446	18840
903.565	18688
903.683	18760
903.801	18650
903.919	18585
904.038	18677
904.156	18502
904.274	18540
904.392	18403
904.51	18384
904.627	18456
904.745	18528
904.863	18506
904.981	18300
905.098	18140
905.216	18102
905.334	18213
905.451	18152
905.569	18057
905.686	18327
905.803	18174
905.921	18053
906.038	18087
906.155	17897
906.272	17805
906.389	17824
906.506	17718
906.623	17771
906.74	17642
906.857	17668
906.974	17665
907.091	17863
907.208	17802
907.324	17615
907.441	17630
907.557	17509
907.674	17402
907.79	17322
907.907	17421
908.023	17376
908.139	17410
908.256	17337
908.372	17261
908.488	17280
908.604	17261
908.72	17178
908.836	17170
908.952	17136
909.068	17075
909.184	17220
909.3	17155
909.415	17029
909.531	17064
909.647	16820
909.762	16896
909.878	16824
909.993	16889
910.108	16710
910.224	16748
910.339	16721
910.454	16637
910.57	16607
910.685	16618
910.8	16820
910.915	16702
911.03	16630
911.145	16398
911.259	16360
911.374	16318
911.489	16287
911.604	16291
911.718	16109
911.833	16154
911.947	16188
912.062	15968
912.176	16181
912.291	16303
912.405	16124
912.519	16303
912.633	16299
912.748	16139
912.862	16063
912.976	16010
913.09	15816
913.204	15949
913.318	15983
913.431	15975
913.545	16128
913.659	16013
913.772	15926
913.886	15800
914	15709
914.113	15876
914.226	15918
914.34	15690
914.453	15580
914.566	15785
914.68	15629
914.793	15545
914.906	15298
915.019	15291
915.132	15252
915.245	15272
915.358	15378
915.47	15378
915.583	15424
915.696	15359
915.809	15431
915.921	15466
916.034	15192
916.146	15336
916.259	15218
916.371	15439
916.483	15306
916.595	15214
916.708	15169
916.82	15157
916.932	15116
917.044	15161
917.156	15085
917.268	14975
917.38	15005
917.491	14952
917.603	14929
917.715	15108
917.826	15108
917.938	14861
918.049	14823
918.161	15020
918.272	14994
918.384	15036
918.495	14925
918.606	14762
918.717	14640
918.828	14815
918.939	14785
919.05	14651
919.161	14724
919.272	14530
919.383	14537
919.494	14921
919.604	14891
919.715	14857
919.826	14590
919.936	14689
920.047	14811
920.157	14693
920.267	14910
920.378	14765
920.488	14800
920.598	14876
920.708	15001
920.818	14914
920.928	14872
921.038	14971
921.148	14952
921.258	14663
921.368	14648
921.477	14404
921.587	14465
921.697	14305
921.806	14446
921.916	14301
922.025	14153
922.134	14142
922.244	14005
922.353	14096
922.462	14005
922.571	13959
922.68	13784
922.789	13860
922.898	13670
923.007	13628
923.116	13799
923.224	13708
923.333	13658
923.442	13594
923.55	13460
923.659	13632
923.767	13647
923.876	13476
923.984	13540
924.092	13457
924.201	13537
924.309	13491
924.417	13464
924.525	13407
924.633	13445
924.741	14374
924.849	13198
924.956	13346
925.064	13133
925.172	13065
925.279	13110
925.387	13141
925.494	13209
925.602	13327
925.709	13217
925.816	13080
925.924	13050
926.031	13209
926.138	12966
926.245	13141
926.352	12970
926.459	13255
926.566	13152
926.673	13015
926.779	12859
926.886	12920
926.993	12730
927.099	12783
927.206	12620
927.312	12669
927.419	12703
927.525	12673
927.631	12669
927.737	12547
927.843	12517
927.95	12414
928.056	12509
928.162	12509
928.267	12448
928.373	13095
928.479	12544
928.585	12350
928.69	12441
928.796	12479
928.901	12323
929.007	12330
929.112	12270
929.218	12338
929.323	12292
929.428	12270
929.533	12376
929.638	12159
929.743	12140
929.848	12251
929.953	12201
930.058	12098
930.163	11969
930.267	11916
930.372	12049
930.477	11916
930.581	12083
930.685	11878
930.79	11893
930.894	11897
930.998	11840
931.103	11969
931.207	11551
931.311	11486
931.415	11353
931.519	11220
931.623	11143
