Data from test_V78500241_3591.txt Node
Date: Fri Mar 25 16:06:40 CST 2022
User: usil
Spectrometer: V785-0024
Trigger mode: 0
Integration Time (sec): 4.000000E-1
Scans to average: 1
Nonlinearity correction enabled: false
Boxcar width: 0
Storing dark spectrum: false
XAxis mode: Wavelengths
Number of Pixels in Spectrum: 1024
>>>>>Begin Spectral Data<<<<<
801.071	28778
801.214	28862
801.356	28527
801.499	28592
801.641	28478
801.783	28424
801.926	28424
802.068	28382
802.211	28405
802.353	28390
802.496	28333
802.638	28223
802.78	28055
802.923	28021
803.065	28002
803.208	28150
803.35	28116
803.492	28322
803.635	28272
803.777	28230
803.919	28325
804.061	28649
804.204	28424
804.346	28211
804.488	28295
804.63	28443
804.773	28333
804.915	28500
805.057	28538
805.199	28253
805.341	28527
805.483	28546
805.626	28481
805.768	28360
805.91	28531
806.052	28592
806.194	28519
806.336	28854
806.478	28459
806.62	28504
806.762	28660
806.904	28953
807.046	29060
807.188	29025
807.33	28968
807.472	28927
807.614	28812
807.756	28847
807.898	28892
808.04	28748
808.182	28771
808.324	28877
808.465	28923
808.607	29117
808.749	29254
808.891	29372
809.033	29383
809.174	29364
809.316	29239
809.458	29239
809.6	29159
809.741	29299
809.883	29425
810.025	29444
810.166	29448
810.308	29668
810.45	29421
810.591	29353
810.733	29311
810.875	29220
811.016	29258
811.158	29303
811.299	29364
811.441	29372
811.582	29440
811.724	29231
811.865	29330
812.007	29322
812.148	29185
812.29	29387
812.431	29299
812.573	29634
812.714	29551
812.855	29718
812.997	29843
813.138	30053
813.279	29878
813.421	29847
813.562	29866
813.703	29653
813.845	29566
813.986	29414
814.127	29147
814.268	29037
814.41	28915
814.551	28858
814.692	28976
814.833	28968
814.974	29067
815.115	28881
815.256	28774
815.397	28786
815.539	28835
815.68	28748
815.821	28630
815.962	28801
816.103	28744
816.244	28790
816.385	28660
816.526	28569
816.666	28287
816.807	28204
816.948	28310
817.089	28360
817.23	28291
817.371	28268
817.512	28303
817.653	28314
817.793	28341
817.934	28284
818.075	28166
818.216	28375
818.356	28169
818.497	28143
818.638	28002
818.778	28090
818.919	28238
819.06	28143
819.2	28154
819.341	28306
819.481	28272
819.622	28276
819.762	28573
819.903	28538
820.043	28401
820.184	28310
820.324	28470
820.465	28577
820.605	28344
820.746	28322
820.886	28246
821.026	28371
821.167	28382
821.307	28447
821.447	28211
821.588	28295
821.728	28010
821.868	27914
822.008	27793
822.149	27751
822.289	27728
822.429	27644
822.569	27450
822.709	27397
822.849	27306
822.99	27306
823.13	27351
823.27	27218
823.41	27123
823.55	26990
823.69	27104
823.83	27131
823.97	27024
824.11	26849
824.25	26982
824.389	26887
824.529	26952
824.669	26876
824.809	27062
824.949	27039
825.089	26952
825.228	26952
825.368	26845
825.508	26765
825.648	26826
825.787	26925
825.927	26940
826.067	26739
826.206	26731
826.346	26998
826.485	26792
826.625	26819
826.765	26906
826.904	26944
827.044	26625
827.183	26571
827.323	26492
827.462	26552
827.601	26469
827.741	26461
827.88	26571
828.02	26457
828.159	26526
828.298	26514
828.437	26530
828.577	26571
828.716	26613
828.855	26404
828.994	26172
829.134	26298
829.273	26305
829.412	26355
829.551	26221
829.69	26218
829.829	26362
829.968	26161
830.107	26206
830.246	26206
830.385	26225
830.524	26062
830.663	26008
830.802	25921
830.941	25868
831.08	25784
831.219	25807
831.357	25852
831.496	26012
831.635	25856
831.774	25849
831.913	25643
832.051	25552
832.19	25571
832.329	25670
832.467	25434
832.606	25479
832.744	25358
832.883	25419
833.022	25457
833.16	25544
833.299	25430
833.437	25460
833.576	25575
833.714	25537
833.852	25693
833.991	25651
834.129	25594
834.267	25563
834.406	25601
834.544	25624
834.682	25510
834.821	25616
834.959	25651
835.097	25457
835.235	25597
835.373	25521
835.511	25628
835.65	25453
835.788	25537
835.926	25251
836.064	25240
836.202	25168
836.34	25358
836.478	25422
836.615	25369
836.753	25426
836.891	25335
837.029	25419
837.167	25327
837.305	25343
837.443	25362
837.58	25232
837.718	25274
837.856	25099
837.993	25194
838.131	25206
838.269	25091
838.406	25069
838.544	25046
838.681	24707
838.819	24897
838.956	24623
839.094	24654
839.231	24749
839.369	24894
839.506	25103
839.643	24825
839.781	24776
839.918	24639
840.055	24677
840.193	24654
840.33	24612
840.467	24593
840.604	24650
840.742	24867
840.879	24407
841.016	24528
841.153	24536
841.29	24589
841.427	24528
841.564	24604
841.701	24559
841.838	24429
841.975	24384
842.112	24521
842.249	24388
842.385	24266
842.522	24631
842.659	24448
842.796	24167
842.933	24308
843.069	24346
843.206	24273
843.343	24365
843.479	24311
843.616	24361
843.752	24155
843.889	24079
844.025	24243
844.162	24163
844.298	24209
844.435	24110
844.571	24098
844.708	24144
844.844	24254
844.98	24311
845.117	24254
845.253	24106
845.389	23946
845.525	24018
845.661	23863
845.798	23901
845.934	23813
846.07	23893
846.206	23897
846.342	23969
846.478	23821
846.614	23554
846.75	23478
846.886	23615
847.022	23638
847.158	23604
847.294	23623
847.429	23642
847.565	23558
847.701	23805
847.837	23311
847.972	23315
848.108	23463
848.244	23364
848.379	23143
848.515	23258
848.65	23159
848.786	23083
848.921	23242
849.057	23185
849.192	23155
849.328	23220
849.463	23212
849.598	23121
849.734	22991
849.869	22904
850.004	22930
850.14	23060
850.275	22934
850.41	22778
850.545	22885
850.68	22972
850.815	22972
850.95	22782
851.085	23109
851.22	22923
851.355	22869
851.49	22877
851.625	22873
851.76	22847
851.895	22850
852.03	22858
852.165	22854
852.299	22889
852.434	22961
852.569	22938
852.703	22949
852.838	22843
852.973	22930
853.107	23033
853.242	22710
853.376	22790
853.511	22664
853.645	22755
853.78	22900
853.914	22752
854.048	22809
854.183	22729
854.317	22759
854.451	22896
854.585	22831
854.72	22733
854.854	22858
854.988	22649
855.122	22679
855.256	22599
855.39	22801
855.524	22824
855.658	22725
855.792	22733
855.926	22752
856.06	22820
856.194	22805
856.327	22702
856.461	22668
856.595	22641
856.729	22687
856.862	22771
856.996	22812
857.13	22812
857.263	22816
857.397	22831
857.53	22759
857.664	22835
857.797	22691
857.931	22930
858.064	22713
858.197	22816
858.331	22748
858.464	22698
858.597	22656
858.731	22664
858.864	22702
858.997	22694
859.13	22630
859.263	22752
859.396	22812
859.529	22721
859.662	22672
859.795	22611
859.928	22763
860.061	22694
860.194	22987
860.327	22774
860.46	22790
860.592	22816
860.725	22858
860.858	22850
860.99	22637
861.123	22622
861.256	22713
861.388	22816
861.521	23459
861.653	22542
861.786	22561
861.918	22672
862.05	22561
862.183	22637
862.315	22672
862.447	22683
862.58	22588
862.712	22440
862.844	22451
862.976	22569
863.108	22402
863.24	22866
863.372	22428
863.504	22531
863.636	22565
863.768	22436
863.9	22500
864.032	22348
864.164	22474
864.296	22398
864.428	22637
864.559	22459
864.691	22516
864.823	22500
864.954	22360
865.086	22291
865.217	22341
865.349	22097
865.48	22382
865.612	22223
865.743	22314
865.875	22333
866.006	22352
866.137	22314
866.269	22314
866.4	22310
866.531	22200
866.662	22272
866.793	22207
866.924	22242
867.055	22272
867.186	22367
867.317	22200
867.448	22162
867.579	22112
867.71	22173
867.841	22230
867.972	22192
868.103	22150
868.233	22242
868.364	22181
868.495	22363
868.625	22428
868.756	22596
868.886	22451
869.017	22470
869.147	22592
869.278	22603
869.408	22459
869.539	22459
869.669	22611
869.799	22561
869.929	22622
870.06	22615
870.19	22744
870.32	22725
870.45	22740
870.58	22854
870.71	22968
870.84	22930
870.97	22839
871.1	22850
871.23	23102
871.36	23102
871.489	23003
871.619	23022
871.749	23052
871.879	23117
872.008	23181
872.138	23086
872.267	23064
872.397	22877
872.526	22938
872.656	22889
872.785	22866
872.915	23113
873.044	23159
873.173	23212
873.303	23006
873.432	23166
873.561	23189
873.69	23136
873.819	23098
873.948	23060
874.077	23083
874.206	22987
874.335	23117
874.464	23200
874.593	23246
874.722	23166
874.851	23315
874.979	23330
875.108	23395
875.237	23315
875.365	23105
875.494	23280
875.623	23402
875.751	23220
875.88	23330
876.008	23414
876.136	23395
876.265	23676
876.393	23718
876.521	23703
876.65	23824
876.778	23726
876.906	23722
877.034	23554
877.162	23630
877.29	23592
877.418	23585
877.546	23661
877.674	23638
877.802	23684
877.93	23535
878.058	23733
878.185	23634
878.313	23638
878.441	23668
878.568	23585
878.696	23600
878.824	23623
878.951	23676
879.079	23741
879.206	23931
879.333	23790
879.461	23672
879.588	23737
879.715	23790
879.842	23927
879.97	23581
880.097	23414
880.224	23417
880.351	23543
880.478	23547
880.605	23459
880.732	23406
880.859	23653
880.986	23505
881.112	23425
881.239	23429
881.366	23223
881.493	23029
881.619	23086
881.746	23033
881.872	22995
881.999	22980
882.125	23006
882.252	23056
882.378	22999
882.505	23029
882.631	22869
882.757	22786
882.883	22752
883.01	22637
883.136	22706
883.262	22577
883.388	22413
883.514	22615
883.64	22805
883.766	22660
883.892	22573
884.018	22493
884.143	22615
884.269	22691
884.395	22497
884.52	22424
884.646	22265
884.772	22234
884.897	22154
885.023	22409
885.148	22371
885.274	22474
885.399	22268
885.524	22265
885.65	22306
885.775	22367
885.9	22329
886.025	22459
886.15	22363
886.275	22253
886.4	22246
886.525	22291
886.65	22299
886.775	22272
886.9	22265
887.025	22493
887.149	22211
887.274	22101
887.399	22097
887.523	22154
887.648	22078
887.773	21983
887.897	22093
888.021	22150
888.146	21994
888.27	22074
888.395	22097
888.519	22051
888.643	22158
888.767	22257
888.891	21915
889.015	21915
889.139	21934
889.263	21823
889.387	21930
889.511	22040
889.635	21926
889.759	21915
889.883	21781
890.006	21930
890.13	21937
890.254	21679
890.377	21770
890.501	21580
890.624	21542
890.748	21682
890.871	21511
890.995	21466
891.118	21340
891.241	21420
891.364	21526
891.488	21580
891.611	21408
891.734	21344
891.857	21466
891.98	21450
892.103	21439
892.226	21382
892.349	21386
892.471	21199
892.594	21298
892.717	21431
892.839	21291
892.962	21329
893.085	21420
893.207	21264
893.33	21199
893.452	21268
893.575	21313
893.697	21241
893.819	21408
893.941	21504
894.064	21348
894.186	21218
894.308	21169
894.43	21302
894.552	21374
894.674	21310
894.796	21176
894.918	21294
895.04	21348
895.161	21218
895.283	21241
895.405	21245
895.526	21283
895.648	21222
895.769	21275
895.891	21169
896.012	21374
896.134	21222
896.255	21241
896.376	21233
896.498	21260
896.619	21203
896.74	21211
896.861	21382
896.982	21511
897.103	21644
897.224	21614
897.345	21382
897.466	21355
897.587	21469
897.708	21561
897.828	21523
897.949	21408
898.07	21294
898.19	21264
898.311	21580
898.431	21408
898.552	21340
898.672	21595
898.792	21469
898.913	21386
899.033	21214
899.153	21256
899.273	20937
899.393	21203
899.513	21146
899.633	21192
899.753	21157
899.873	21146
899.993	21291
900.113	21146
900.232	21104
900.352	21112
900.472	21005
900.591	20960
900.711	20990
900.83	20872
900.95	21062
901.069	20994
901.189	20800
901.308	20689
901.427	20526
901.546	20526
901.665	20503
901.784	20545
901.904	20419
902.023	20324
902.141	20054
902.26	20024
902.379	20199
902.498	19997
902.617	19989
902.735	20073
902.854	20005
902.973	19849
903.091	19628
903.21	19647
903.328	19601
903.446	19658
903.565	19419
903.683	19533
903.801	19403
903.919	19502
904.038	19510
904.156	19301
904.274	19278
904.392	19183
904.51	19213
904.627	19263
904.745	19251
904.863	19251
904.981	19103
905.098	18954
905.216	18909
905.334	18932
905.451	18897
905.569	18886
905.686	19008
905.803	18757
905.921	18677
906.038	18783
906.155	18650
906.272	18681
906.389	18711
906.506	18448
906.623	18464
906.74	18426
906.857	18323
906.974	18296
907.091	18403
907.208	18589
907.324	18460
907.441	18365
907.557	18144
907.674	18178
907.79	18087
907.907	18095
908.023	18133
908.139	18178
908.256	18022
908.372	18034
908.488	17935
908.604	17832
908.72	17859
908.836	17855
908.952	17863
909.068	17836
909.184	17942
909.3	17794
909.415	17950
909.531	17832
909.647	17486
909.762	17577
909.878	17600
909.993	17509
910.108	17463
910.224	17543
910.339	17512
910.454	17372
910.57	17452
910.685	17349
910.8	17623
910.915	17497
911.03	17353
911.145	17189
911.259	17075
911.374	17037
911.489	16991
911.604	16968
911.718	16949
911.833	16839
911.947	16672
912.062	16733
912.176	16843
912.291	16885
912.405	16900
912.519	16991
912.633	17010
912.748	16889
912.862	16816
912.976	16710
913.09	16599
913.204	16565
913.318	16641
913.431	16717
913.545	16748
913.659	16767
913.772	16611
913.886	16428
914	16440
914.113	16577
914.226	16622
914.34	16497
914.453	16512
914.566	16512
914.68	16280
914.793	16257
914.906	16135
915.019	16112
915.132	15994
915.245	16002
915.358	16071
915.47	15937
915.583	15964
915.696	16082
915.809	16173
915.921	16074
916.034	15983
916.146	15785
916.259	15918
916.371	15975
916.483	15968
916.595	15922
916.708	15861
916.82	15816
916.932	15686
917.044	15759
917.156	15686
917.268	15713
917.38	15671
917.491	15622
917.603	15724
917.715	15739
917.826	15736
917.938	15580
918.049	15599
918.161	15622
918.272	15793
918.384	15652
918.495	15557
918.606	15496
918.717	15310
918.828	15511
918.939	15507
919.05	15241
919.161	15408
919.272	15157
919.383	15161
919.494	15408
919.604	15477
919.715	15405
919.826	15211
919.936	15310
920.047	15447
920.157	15340
920.267	15488
920.378	15291
920.488	15367
920.598	15454
920.708	15717
920.818	15401
920.928	15389
921.038	15549
921.148	15519
921.258	15252
921.368	15180
921.477	15077
921.587	15043
921.697	14925
921.806	15051
921.916	14960
922.025	14693
922.134	14629
922.244	14750
922.353	14651
922.462	14579
922.571	14526
922.68	14374
922.789	14259
922.898	14320
923.007	14267
923.116	14366
923.224	14355
923.333	14324
923.442	14077
923.55	14123
923.659	14065
923.767	14221
923.876	14077
923.984	14058
924.092	14012
924.201	14043
924.309	14031
924.417	14027
924.525	13940
924.633	14046
924.741	14842
924.849	13822
924.956	13868
925.064	13731
925.172	13590
925.279	13658
925.387	13628
925.494	13696
925.602	13837
925.709	13681
925.816	13571
925.924	13658
926.031	13700
926.138	13601
926.245	13681
926.352	13537
926.459	13590
926.566	13715
926.673	13575
926.779	13419
926.886	13453
926.993	13206
927.099	13232
927.206	13187
927.312	13179
927.419	13263
927.525	13190
927.631	13202
927.737	12962
927.843	13042
927.95	12939
928.056	12981
928.162	13080
928.267	13076
928.373	13590
928.479	13061
928.585	12806
928.69	13015
928.796	12928
928.901	12894
929.007	12783
929.112	12993
929.218	12875
929.323	12779
929.428	12673
929.533	12825
929.638	12692
929.743	12677
929.848	12719
929.953	12715
930.058	12555
930.163	12376
930.267	12448
930.372	12585
930.477	12361
930.581	12642
930.685	12418
930.79	12247
930.894	12391
930.998	12247
931.103	12334
931.207	11923
931.311	11939
931.415	11824
931.519	11611
931.623	11688
