Data from test_V78500241_2242.txt Node
Date: Fri Mar 25 15:57:19 CST 2022
User: usil
Spectrometer: V785-0024
Trigger mode: 0
Integration Time (sec): 4.000000E-1
Scans to average: 1
Nonlinearity correction enabled: false
Boxcar width: 0
Storing dark spectrum: false
XAxis mode: Wavelengths
Number of Pixels in Spectrum: 1024
>>>>>Begin Spectral Data<<<<<
801.071	28622
801.214	28535
801.356	28291
801.499	28246
801.641	28116
801.783	28082
801.926	28013
802.068	28048
802.211	28090
802.353	28116
802.496	27857
802.638	27865
802.78	27888
802.923	27835
803.065	27797
803.208	27743
803.35	27808
803.492	28070
803.635	28105
803.777	27873
803.919	28090
804.061	28466
804.204	28029
804.346	28051
804.488	27934
804.63	28078
804.773	28006
804.915	28048
805.057	28154
805.199	27907
805.341	28192
805.483	28276
805.626	28226
805.768	28093
805.91	28185
806.052	28261
806.194	28048
806.336	28428
806.478	28299
806.62	28325
806.762	28257
806.904	28497
807.046	28607
807.188	28596
807.33	28679
807.472	28717
807.614	28561
807.756	28645
807.898	28512
808.04	28512
808.182	28550
808.324	28478
808.465	28470
808.607	28790
808.749	28984
808.891	29056
809.033	29159
809.174	28965
809.316	28885
809.458	28873
809.6	28763
809.741	28892
809.883	29006
810.025	29208
810.166	29223
810.308	29155
810.45	29083
810.591	29109
810.733	28892
810.875	28873
811.016	28805
811.158	28797
811.299	28953
811.441	28984
811.582	28942
811.724	28904
811.865	29025
812.007	28930
812.148	28957
812.29	28942
812.431	29044
812.573	29318
812.714	29273
812.855	29383
812.997	29467
813.138	29668
813.279	29630
813.421	29368
813.562	29395
813.703	29212
813.845	29162
813.986	28999
814.127	28683
814.268	28535
814.41	28729
814.551	28653
814.692	28759
814.833	28588
814.974	28512
815.115	28603
815.256	28569
815.397	28367
815.539	28497
815.68	28341
815.821	28363
815.962	28401
816.103	28401
816.244	28143
816.385	28219
816.526	28097
816.666	28006
816.807	27869
816.948	27899
817.089	28029
817.23	28044
817.371	27838
817.512	27842
817.653	27930
817.793	27869
817.934	27884
818.075	27979
818.216	27918
818.356	27918
818.497	27778
818.638	27610
818.778	27538
818.919	27644
819.06	27797
819.2	27838
819.341	27994
819.481	27869
819.622	28097
819.762	28211
819.903	28215
820.043	28135
820.184	28017
820.324	27964
820.465	28192
820.605	28139
820.746	28032
820.886	27774
821.026	27880
821.167	28070
821.307	28013
821.447	27922
821.588	27876
821.728	27823
821.868	27698
822.008	27469
822.149	27526
822.289	27363
822.429	27089
822.569	27135
822.709	27165
822.849	26864
822.99	26902
823.13	26960
823.27	26868
823.41	26838
823.55	26613
823.69	26686
823.83	26735
823.97	26625
824.11	26499
824.25	26453
824.389	26522
824.529	26632
824.669	26629
824.809	26765
824.949	26575
825.089	26583
825.228	26552
825.368	26480
825.508	26320
825.648	26476
825.787	26400
825.927	26423
826.067	26450
826.206	26370
826.346	26526
826.485	26537
826.625	26374
826.765	26495
826.904	26488
827.044	26271
827.183	26271
827.323	26202
827.462	26119
827.601	26237
827.741	26077
827.88	26267
828.02	26077
828.159	26233
828.298	26138
828.437	26195
828.577	26088
828.716	26180
828.855	26081
828.994	25822
829.134	25860
829.273	25883
829.412	25776
829.551	25738
829.69	25799
829.829	25822
829.968	25940
830.107	25928
830.246	25925
830.385	25734
830.524	25784
830.663	25738
830.802	25548
830.941	25331
831.08	25362
831.219	25460
831.357	25434
831.496	25643
831.635	25457
831.774	25441
831.913	25335
832.051	25217
832.19	25129
832.329	25301
832.467	25038
832.606	25023
832.744	25050
832.883	25088
833.022	25050
833.16	25168
833.299	25129
833.437	25110
833.576	25206
833.714	25194
833.852	25175
833.991	25160
834.129	25266
834.267	25247
834.406	25244
834.544	25129
834.682	25141
834.821	25095
834.959	25327
835.097	25122
835.235	25293
835.373	25129
835.511	25209
835.65	24992
835.788	25038
835.926	24863
836.064	24916
836.202	24798
836.34	25027
836.478	25156
836.615	24848
836.753	25065
836.891	25023
837.029	24989
837.167	24932
837.305	24840
837.443	24749
837.58	24795
837.718	24738
837.856	24802
837.993	24776
838.131	24776
838.269	24692
838.406	24620
838.544	24734
838.681	24475
838.819	24479
838.956	24209
839.094	24232
839.231	24353
839.369	24456
839.506	24620
839.643	24422
839.781	24209
839.918	24201
840.055	24155
840.193	24243
840.33	24076
840.467	24110
840.604	24243
840.742	24410
840.879	24041
841.016	24083
841.153	23973
841.29	24186
841.427	24182
841.564	24083
841.701	24148
841.838	24053
841.975	24064
842.112	24155
842.249	23935
842.385	23901
842.522	24228
842.659	24022
842.796	23992
842.933	23942
843.069	23958
843.206	23813
843.343	23980
843.479	23984
843.616	23958
843.752	23722
843.889	23798
844.025	23882
844.162	23737
844.298	23912
844.435	23726
844.571	23653
844.708	23707
844.844	23790
844.98	23824
845.117	23775
845.253	23649
845.389	23467
845.525	23642
845.661	23543
845.798	23391
845.934	23531
846.07	23444
846.206	23315
846.342	23509
846.478	23436
846.614	23254
846.75	23143
846.886	23220
847.022	23197
847.158	23178
847.294	23147
847.429	23200
847.565	23086
847.701	23421
847.837	22885
847.972	22877
848.108	22919
848.244	22976
848.379	22885
848.515	22854
848.65	22691
848.786	22793
848.921	22733
849.057	22850
849.192	22812
849.328	22759
849.463	22786
849.598	22835
849.734	22569
849.869	22516
850.004	22588
850.14	22554
850.275	22592
850.41	22360
850.545	22500
850.68	22447
850.815	22512
850.95	22462
851.085	22634
851.22	22588
851.355	22489
851.49	22451
851.625	22443
851.76	22478
851.895	22489
852.03	22447
852.165	22527
852.299	22546
852.434	22679
852.569	22489
852.703	22607
852.838	22641
852.973	22641
853.107	22767
853.242	22512
853.376	22470
853.511	22192
853.645	22223
853.78	22379
853.914	22306
854.048	22238
854.183	22280
854.317	22443
854.451	22542
854.585	22265
854.72	22249
854.854	22478
854.988	22360
855.122	22299
855.256	22204
855.39	22325
855.524	22325
855.658	22459
855.792	22436
855.926	22337
856.06	22390
856.194	22424
856.327	22325
856.461	22276
856.595	22291
856.729	22295
856.862	22424
856.996	22325
857.13	22341
857.263	22447
857.397	22314
857.53	22360
857.664	22318
857.797	22322
857.931	22440
858.064	22261
858.197	22421
858.331	22333
858.464	22192
858.597	22162
858.731	22303
858.864	22246
858.997	22306
859.13	22360
859.263	22348
859.396	22470
859.529	22306
859.662	22242
859.795	22261
859.928	22299
860.061	22489
860.194	22478
860.327	22253
860.46	22284
860.592	22405
860.725	22421
860.858	22451
860.99	22333
861.123	22379
861.256	22211
861.388	22329
861.521	22915
861.653	22242
861.786	22002
861.918	22124
862.05	22291
862.183	22124
862.315	22242
862.447	22352
862.58	22211
862.712	22048
862.844	22006
862.976	22181
863.108	22032
863.24	22611
863.372	22006
863.504	22101
863.636	22010
863.768	22032
863.9	22006
864.032	21915
864.164	21972
864.296	22200
864.428	22025
864.559	22112
864.691	22177
864.823	22078
864.954	22055
865.086	21926
865.217	21770
865.349	21903
865.48	21812
865.612	21850
865.743	22169
865.875	21884
866.006	21895
866.137	21915
866.269	21812
866.4	21816
866.531	21842
866.662	21823
866.793	21838
866.924	21823
867.055	21823
867.186	21835
867.317	21717
867.448	21831
867.579	21846
867.71	21732
867.841	21629
867.972	21911
868.103	21778
868.233	21918
868.364	21800
868.495	21838
868.625	22097
868.756	22128
868.886	22055
869.017	22006
869.147	22055
869.278	22109
869.408	22017
869.539	22029
869.669	22200
869.799	21998
869.929	22223
870.06	22158
870.19	22371
870.32	22348
870.45	22443
870.58	22337
870.71	22599
870.84	22584
870.97	22436
871.1	22447
871.23	22668
871.36	22645
871.489	22599
871.619	22771
871.749	22683
871.879	22672
872.008	22656
872.138	22664
872.267	22573
872.397	22668
872.526	22603
872.656	22542
872.785	22481
872.915	22634
873.044	22843
873.173	22710
873.303	22683
873.432	22839
873.561	22793
873.69	22672
873.819	22599
873.948	22691
874.077	22721
874.206	22759
874.335	22660
874.464	22778
874.593	22869
874.722	22805
874.851	22957
874.979	22942
875.108	22900
875.237	22755
875.365	22801
875.494	22885
875.623	22953
875.751	22911
875.88	23052
876.008	23090
876.136	23044
876.265	23269
876.393	23493
876.521	23402
876.65	23341
876.778	23242
876.906	23223
877.034	23341
877.162	23299
877.29	23162
877.418	23296
877.546	23235
877.674	23239
877.802	23292
877.93	23273
878.058	23140
878.185	23022
878.313	23254
878.441	23151
878.568	23006
878.696	23235
878.824	23231
878.951	23379
879.079	23467
879.206	23646
879.333	23318
879.461	23379
879.588	23318
879.715	23391
879.842	23482
879.97	23197
880.097	23052
880.224	23010
880.351	23121
880.478	23117
880.605	23052
880.732	23014
880.859	23299
880.986	23185
881.112	23083
881.239	22980
881.366	22812
881.493	22831
881.619	22740
881.746	22710
881.872	22713
881.999	22637
882.125	22706
882.252	22694
882.378	22561
882.505	22725
882.631	22691
882.757	22341
882.883	22478
883.01	22295
883.136	22284
883.262	22154
883.388	22006
883.514	22287
883.64	22287
883.766	22348
883.892	22112
884.018	22173
884.143	22181
884.269	22386
884.395	22036
884.52	21869
884.646	21945
884.772	21873
884.897	21899
885.023	21907
885.148	22036
885.274	22040
885.399	21945
885.524	22002
885.65	21922
885.775	21926
885.9	21865
886.025	21964
886.15	22044
886.275	21876
886.4	21857
886.525	21930
886.65	21876
886.775	21880
886.9	21991
887.025	22143
887.149	21884
887.274	21709
887.399	21637
887.523	21709
887.648	21667
887.773	21629
887.897	21698
888.021	21679
888.146	21633
888.27	21751
888.395	21819
888.519	21736
888.643	21572
888.767	21690
888.891	21686
889.015	21519
889.139	21530
889.263	21561
889.387	21690
889.511	21736
889.635	21492
889.759	21443
889.883	21405
890.006	21458
890.13	21595
890.254	21458
890.377	21431
890.501	21325
890.624	21298
890.748	21199
890.871	21104
890.995	21013
891.118	21085
891.241	21119
891.364	21112
891.488	21135
891.611	21028
891.734	21020
891.857	21104
891.98	20998
892.103	21131
892.226	21005
892.349	21024
892.471	20918
892.594	20979
892.717	21028
892.839	20811
892.962	21051
893.085	21017
893.207	20861
893.33	20861
893.452	20868
893.575	21005
893.697	20899
893.819	21058
893.941	21074
894.064	21089
894.186	20982
894.308	20819
894.43	21055
894.552	21024
894.674	20990
894.796	20788
894.918	20963
895.04	20880
895.161	21020
895.283	20979
895.405	20819
895.526	20918
895.648	20967
895.769	20834
895.891	20838
896.012	20986
896.134	20990
896.255	20864
896.376	20868
896.498	20944
896.619	20944
896.74	21039
896.861	20990
896.982	21233
897.103	21313
897.224	21230
897.345	21138
897.466	21024
897.587	21020
897.708	21237
897.828	21302
897.949	21199
898.07	20952
898.19	21104
898.311	21211
898.431	21036
898.552	21161
898.672	21096
898.792	21218
898.913	21161
899.033	21032
899.153	20982
899.273	20769
899.393	20967
899.513	20853
899.633	20834
899.753	20880
899.873	20823
899.993	20857
900.113	20891
900.232	20956
900.352	20800
900.472	20731
900.591	20598
900.711	20617
900.83	20549
900.95	20777
901.069	20750
901.189	20503
901.308	20225
901.427	20176
901.546	20298
901.665	20161
901.784	20183
901.904	20176
902.023	19970
902.141	19746
902.26	19761
902.379	19784
902.498	19765
902.617	19715
902.735	19833
902.854	19655
902.973	19552
903.091	19384
903.21	19316
903.328	19324
903.446	19346
903.565	19217
903.683	19209
903.801	19103
903.919	19133
904.038	19061
904.156	18973
904.274	18932
904.392	18840
904.51	18871
904.627	18787
904.745	18920
904.863	18920
904.981	18776
905.098	18559
905.216	18661
905.334	18509
905.451	18498
905.569	18570
905.686	18658
905.803	18612
905.921	18403
906.038	18418
906.155	18281
906.272	18243
906.389	18342
906.506	18125
906.623	18205
906.74	18057
906.857	18057
906.974	17961
907.091	18034
907.208	18197
907.324	18152
907.441	18098
907.557	17840
907.674	17771
907.79	17840
907.907	17828
908.023	17798
908.139	17748
908.256	17893
908.372	17737
908.488	17604
908.604	17638
908.72	17585
908.836	17558
908.952	17425
909.068	17524
909.184	17638
909.3	17425
909.415	17596
909.531	17581
909.647	17261
909.762	17330
909.878	17132
909.993	17220
910.108	17170
910.224	17212
910.339	17288
910.454	17094
910.57	17052
910.685	16911
910.8	17204
910.915	17132
911.03	16976
911.145	16771
911.259	16771
911.374	16854
911.489	16706
911.604	16641
911.718	16508
911.833	16573
911.947	16584
912.062	16432
912.176	16512
912.291	16565
912.405	16546
912.519	16763
912.633	16805
912.748	16550
912.862	16519
912.976	16371
913.09	16253
913.204	16276
913.318	16246
913.431	16493
913.545	16356
913.659	16371
913.772	16215
913.886	16207
914	16242
914.113	16242
914.226	16181
914.34	16188
914.453	16044
914.566	16207
914.68	16029
914.793	16025
914.906	15857
915.019	15770
915.132	15736
915.245	15641
915.358	15724
915.47	15648
915.583	15785
915.696	15785
915.809	15876
915.921	15937
916.034	15606
916.146	15633
916.259	15648
916.371	15747
916.483	15625
916.595	15549
916.708	15591
916.82	15618
916.932	15595
917.044	15549
917.156	15526
917.268	15416
917.38	15416
917.491	15348
917.603	15443
917.715	15462
917.826	15485
917.938	15298
918.049	15214
918.161	15329
918.272	15500
918.384	15492
918.495	15272
918.606	15180
918.717	15070
918.828	15180
918.939	15104
919.05	15039
919.161	15066
919.272	15001
919.383	15055
919.494	15230
919.604	15165
919.715	15112
919.826	15039
919.936	15077
920.047	15199
920.157	15005
920.267	15313
920.378	15127
920.488	15093
920.598	15252
920.708	15443
920.818	15256
920.928	15203
921.038	15332
921.148	15393
921.258	15017
921.368	14948
921.477	14902
921.587	14899
921.697	14754
921.806	14849
921.916	14712
922.025	14568
922.134	14473
922.244	14339
922.353	14507
922.462	14377
922.571	14351
922.68	14142
922.789	14103
922.898	14126
923.007	14046
923.116	14058
923.224	14138
923.333	14043
923.442	13947
923.55	13909
923.659	14058
923.767	13974
923.876	13879
923.984	13989
924.092	13731
924.201	13902
924.309	13898
924.417	13772
924.525	13727
924.633	13841
924.741	14438
924.849	13582
924.956	13632
925.064	13464
925.172	13419
925.279	13407
925.387	13407
925.494	13533
925.602	13571
925.709	13525
925.816	13400
925.924	13434
926.031	13525
926.138	13415
926.245	13480
926.352	13327
926.459	13499
926.566	13506
926.673	13426
926.779	13255
926.886	13270
926.993	13137
927.099	13164
927.206	13072
927.312	13031
927.419	13019
927.525	12943
927.631	13129
927.737	12897
927.843	12897
927.95	12783
928.056	12791
928.162	12863
928.267	12924
928.373	13544
928.479	12913
928.585	12681
928.69	12726
928.796	12791
928.901	12787
929.007	12479
929.112	12673
929.218	12662
929.323	12544
929.428	12517
929.533	12738
929.638	12441
929.743	12570
929.848	12585
929.953	12525
930.058	12429
930.163	12304
930.267	12243
930.372	12410
930.477	12235
930.581	12414
930.685	12262
930.79	12117
930.894	12182
930.998	12049
931.103	12213
931.207	11897
931.311	11661
931.415	11630
931.519	11505
931.623	11467
