Data from test_V78500241_3227.txt Node
Date: Fri Mar 25 16:04:09 CST 2022
User: usil
Spectrometer: V785-0024
Trigger mode: 0
Integration Time (sec): 4.000000E-1
Scans to average: 1
Nonlinearity correction enabled: false
Boxcar width: 0
Storing dark spectrum: false
XAxis mode: Wavelengths
Number of Pixels in Spectrum: 1024
>>>>>Begin Spectral Data<<<<<
801.071	28847
801.214	28919
801.356	28592
801.499	28569
801.641	28424
801.783	28390
801.926	28588
802.068	28375
802.211	28417
802.353	28310
802.496	28314
802.638	28086
802.78	28154
802.923	28086
803.065	28135
803.208	28139
803.35	28147
803.492	28287
803.635	28322
803.777	28291
803.919	28382
804.061	28782
804.204	28538
804.346	28379
804.488	28375
804.63	28348
804.773	28557
804.915	28432
805.057	28630
805.199	28436
805.341	28512
805.483	28557
805.626	28611
805.768	28337
805.91	28554
806.052	28596
806.194	28451
806.336	28721
806.478	28702
806.62	28542
806.762	28683
806.904	28999
807.046	29052
807.188	29014
807.33	29079
807.472	28999
807.614	29048
807.756	28965
807.898	28862
808.04	28729
808.182	28934
808.324	28877
808.465	28949
808.607	28995
808.749	29299
808.891	29277
809.033	29277
809.174	29398
809.316	29216
809.458	29250
809.6	29132
809.741	29421
809.883	29296
810.025	29570
810.166	29497
810.308	29524
810.45	29543
810.591	29509
810.733	29311
810.875	29189
811.016	29212
811.158	29250
811.299	29379
811.441	29486
811.582	29387
811.724	29189
811.865	29307
812.007	29250
812.148	29197
812.29	29421
812.431	29478
812.573	29543
812.714	29767
812.855	29790
812.997	29809
813.138	30038
813.279	30018
813.421	29908
813.562	29737
813.703	29756
813.845	29570
813.986	29185
814.127	29124
814.268	29044
814.41	28984
814.551	28957
814.692	29193
814.833	28812
814.974	29022
815.115	29079
815.256	28873
815.397	28873
815.539	28824
815.68	28820
815.821	28847
815.962	28767
816.103	28801
816.244	28668
816.385	28546
816.526	28622
816.666	28341
816.807	28375
816.948	28447
817.089	28341
817.23	28466
817.371	28379
817.512	28261
817.653	28276
817.793	28242
817.934	28447
818.075	28325
818.216	28265
818.356	28348
818.497	28318
818.638	28090
818.778	28147
818.919	28150
819.06	28166
819.2	28234
819.341	28360
819.481	28386
819.622	28497
819.762	28736
819.903	28580
820.043	28409
820.184	28428
820.324	28451
820.465	28470
820.605	28523
820.746	28344
820.886	28188
821.026	28459
821.167	28375
821.307	28413
821.447	28341
821.588	28246
821.728	28154
821.868	27888
822.008	27819
822.149	27759
822.289	27804
822.429	27412
822.569	27462
822.709	27511
822.849	27279
822.99	27348
823.13	27218
823.27	27230
823.41	27104
823.55	27009
823.69	27211
823.83	27195
823.97	27077
824.11	27032
824.25	26929
824.389	26902
824.529	27024
824.669	27017
824.809	27127
824.949	27036
825.089	27036
825.228	27020
825.368	26876
825.508	26739
825.648	26880
825.787	26857
825.927	26933
826.067	26880
826.206	26781
826.346	27020
826.485	26929
826.625	26853
826.765	26937
826.904	26906
827.044	26731
827.183	26693
827.323	26750
827.462	26571
827.601	26594
827.741	26594
827.88	26606
828.02	26446
828.159	26499
828.298	26587
828.437	26655
828.577	26465
828.716	26678
828.855	26511
828.994	26225
829.134	26263
829.273	26339
829.412	26290
829.551	26263
829.69	26225
829.829	26180
829.968	26374
830.107	26377
830.246	26187
830.385	26187
830.524	26126
830.663	25970
830.802	26142
830.941	25917
831.08	25913
831.219	25966
831.357	25940
831.496	26088
831.635	25887
831.774	25826
831.913	25651
832.051	25712
832.19	25693
832.329	25708
832.467	25594
832.606	25510
832.744	25479
832.883	25658
833.022	25567
833.16	25434
833.299	25559
833.437	25655
833.576	25582
833.714	25483
833.852	25738
833.991	25514
834.129	25632
834.267	25769
834.406	25734
834.544	25662
834.682	25689
834.821	25548
834.959	25681
835.097	25586
835.235	25620
835.373	25696
835.511	25556
835.65	25362
835.788	25476
835.926	25335
836.064	25251
836.202	25088
836.34	25502
836.478	25483
836.615	25609
836.753	25373
836.891	25616
837.029	25369
837.167	25384
837.305	25152
837.443	25472
837.58	25247
837.718	25285
837.856	25297
837.993	25240
838.131	25312
838.269	25145
838.406	25160
838.544	25148
838.681	24932
838.819	24791
838.956	24810
839.094	24673
839.231	24783
839.369	24992
839.506	25027
839.643	24973
839.781	24703
839.918	24734
840.055	24654
840.193	24540
840.33	24642
840.467	24494
840.604	24589
840.742	24962
840.879	24509
841.016	24597
841.153	24426
841.29	24665
841.427	24559
841.564	24825
841.701	24570
841.838	24612
841.975	24429
842.112	24620
842.249	24437
842.385	24304
842.522	24661
842.659	24361
842.796	24399
842.933	24498
843.069	24277
843.206	24399
843.343	24380
843.479	24372
843.616	24437
843.752	24114
843.889	24171
844.025	24323
844.162	24038
844.298	24296
844.435	24026
844.571	24091
844.708	24235
844.844	24167
844.98	24311
845.117	24292
845.253	24091
845.389	23954
845.525	24201
845.661	24015
845.798	23843
845.934	23969
846.07	23893
846.206	23771
846.342	24060
846.478	23874
846.614	23661
846.75	23577
846.886	23531
847.022	23729
847.158	23676
847.294	23600
847.429	23573
847.565	23627
847.701	23805
847.837	23368
847.972	23292
848.108	23410
848.244	23356
848.379	23250
848.515	23254
848.65	23200
848.786	23121
848.921	23128
849.057	23341
849.192	23204
849.328	23269
849.463	23159
849.598	23151
849.734	23014
849.869	22976
850.004	22911
850.14	23052
850.275	23044
850.41	22831
850.545	22919
850.68	22919
850.815	23006
850.95	22968
851.085	23231
851.22	23098
851.355	23022
851.49	22968
851.625	22972
851.76	22995
851.895	22889
852.03	22763
852.165	22858
852.299	22911
852.434	22999
852.569	23056
852.703	22949
852.838	23090
852.973	23151
853.107	23105
853.242	22854
853.376	22805
853.511	22691
853.645	22710
853.78	22927
853.914	22820
854.048	22782
854.183	22828
854.317	22752
854.451	22953
854.585	22820
854.72	22839
854.854	22793
854.988	22736
855.122	22809
855.256	22607
855.39	22645
855.524	22885
855.658	22843
855.792	22824
855.926	22759
856.06	22774
856.194	22820
856.327	22843
856.461	22694
856.595	22759
856.729	22820
856.862	22965
856.996	22763
857.13	22858
857.263	22763
857.397	22976
857.53	22733
857.664	22828
857.797	22763
857.931	22824
858.064	22835
858.197	22919
858.331	22797
858.464	22702
858.597	22615
858.731	22687
858.864	22748
858.997	22713
859.13	22759
859.263	22915
859.396	22908
859.529	22675
859.662	22854
859.795	22641
859.928	22972
860.061	22889
860.194	22927
860.327	22847
860.46	22831
860.592	22930
860.725	22946
860.858	22915
860.99	22809
861.123	22683
861.256	22611
861.388	22634
861.521	23600
861.653	22630
861.786	22592
861.918	22683
862.05	22698
862.183	22752
862.315	22717
862.447	22755
862.58	22717
862.712	22512
862.844	22489
862.976	22542
863.108	22542
863.24	22740
863.372	22459
863.504	22531
863.636	22436
863.768	22447
863.9	22504
864.032	22428
864.164	22379
864.296	22466
864.428	22706
864.559	22596
864.691	22500
864.823	22527
864.954	22493
865.086	22512
865.217	22295
865.349	22253
865.48	22333
865.612	22363
865.743	22428
865.875	22329
866.006	22280
866.137	22398
866.269	22310
866.4	22322
866.531	22276
866.662	22188
866.793	22318
866.924	22356
867.055	22341
867.186	22257
867.317	22390
867.448	22337
867.579	22078
867.71	22166
867.841	22284
867.972	22253
868.103	22261
868.233	22234
868.364	22280
868.495	22318
868.625	22466
868.756	22611
868.886	22386
869.017	22459
869.147	22630
869.278	22599
869.408	22451
869.539	22500
869.669	22672
869.799	22615
869.929	22713
870.06	22538
870.19	22881
870.32	22710
870.45	22820
870.58	22999
870.71	23025
870.84	22957
870.97	23044
871.1	22782
871.23	23136
871.36	23140
871.489	23071
871.619	23124
871.749	23086
871.879	23075
872.008	23387
872.138	23330
872.267	23079
872.397	23052
872.526	22934
872.656	23010
872.785	22980
872.915	23079
873.044	23242
873.173	23223
873.303	23189
873.432	23121
873.561	23258
873.69	23216
873.819	23193
873.948	23250
874.077	23265
874.206	23048
874.335	23143
874.464	23185
874.593	23326
874.722	23277
874.851	23455
874.979	23356
875.108	23440
875.237	23296
875.365	23326
875.494	23246
875.623	23353
875.751	23261
875.88	23311
876.008	23410
876.136	23543
876.265	23623
876.393	24018
876.521	23802
876.65	23691
876.778	23779
876.906	23665
877.034	23630
877.162	23737
877.29	23707
877.418	23748
877.546	23764
877.674	23710
877.802	23745
877.93	23596
878.058	23718
878.185	23543
878.313	23589
878.441	23585
878.568	23531
878.696	23547
878.824	23779
878.951	23707
879.079	23954
879.206	23950
879.333	23805
879.461	23680
879.588	23604
879.715	23904
879.842	24011
879.97	23562
880.097	23581
880.224	23493
880.351	23570
880.478	23547
880.605	23642
880.732	23524
880.859	23600
880.986	23486
881.112	23649
881.239	23330
881.366	23220
881.493	23189
881.619	23143
881.746	23010
881.872	23075
881.999	23060
882.125	22942
882.252	23090
882.378	22980
882.505	23086
882.631	22930
882.757	22828
882.883	22809
883.01	22767
883.136	22649
883.262	22527
883.388	22580
883.514	22698
883.64	22740
883.766	22683
883.892	22390
884.018	22569
884.143	22687
884.269	22630
884.395	22531
884.52	22352
884.646	22352
884.772	22386
884.897	22280
885.023	22413
885.148	22360
885.274	22478
885.399	22493
885.524	22497
885.65	22287
885.775	22272
885.9	22299
886.025	22470
886.15	22295
886.275	22341
886.4	22344
886.525	22333
886.65	22261
886.775	22280
886.9	22504
887.025	22603
887.149	22360
887.274	22185
887.399	22067
887.523	22078
887.648	22166
887.773	22063
887.897	22185
888.021	22040
888.146	22032
888.27	22207
888.395	22238
888.519	22200
888.643	22063
888.767	22257
888.891	22048
889.015	21911
889.139	21949
889.263	21892
889.387	22017
889.511	22044
889.635	22067
889.759	21789
889.883	21949
890.006	21945
890.13	21945
890.254	21812
890.377	21785
890.501	21736
890.624	21530
890.748	21568
890.871	21561
890.995	21462
891.118	21458
891.241	21454
891.364	21488
891.488	21614
891.611	21538
891.734	21393
891.857	21599
891.98	21447
892.103	21485
892.226	21473
892.349	21386
892.471	21275
892.594	21313
892.717	21412
892.839	21211
892.962	21435
893.085	21458
893.207	21443
893.33	21199
893.452	21241
893.575	21424
893.697	21291
893.819	21382
893.941	21454
894.064	21515
894.186	21207
894.308	21241
894.43	21329
894.552	21302
894.674	21462
894.796	21245
894.918	21325
895.04	21291
895.161	21389
895.283	21264
895.405	21283
895.526	21313
895.648	21275
895.769	21237
895.891	21336
896.012	21313
896.134	21412
896.255	21393
896.376	21230
896.498	21245
896.619	21233
896.74	21173
896.861	21275
896.982	21641
897.103	21705
897.224	21583
897.345	21542
897.466	21519
897.587	21420
897.708	21641
897.828	21488
897.949	21450
898.07	21325
898.19	21332
898.311	21603
898.431	21435
898.552	21458
898.672	21523
898.792	21622
898.913	21542
899.033	21264
899.153	21268
899.273	21138
899.393	21195
899.513	21264
899.633	21310
899.753	21230
899.873	21192
899.993	21203
900.113	21199
900.232	21142
900.352	21051
900.472	20937
900.591	21013
900.711	21108
900.83	21005
900.95	21154
901.069	21096
901.189	20918
901.308	20640
901.427	20583
901.546	20617
901.665	20526
901.784	20655
901.904	20446
902.023	20294
902.141	20119
902.26	20073
902.379	20111
902.498	20024
902.617	20016
902.735	20096
902.854	20012
902.973	19993
903.091	19708
903.21	19662
903.328	19700
903.446	19544
903.565	19552
903.683	19483
903.801	19457
903.919	19445
904.038	19495
904.156	19316
904.274	19350
904.392	19251
904.51	19190
904.627	19320
904.745	19259
904.863	19388
904.981	19091
905.098	18943
905.216	18966
905.334	18939
905.451	18973
905.569	19000
905.686	18935
905.803	18901
905.921	18738
906.038	18760
906.155	18692
906.272	18661
906.389	18661
906.506	18372
906.623	18456
906.74	18334
906.857	18353
906.974	18365
907.091	18593
907.208	18570
907.324	18536
907.441	18414
907.557	18247
907.674	18186
907.79	18178
907.907	18144
908.023	18106
908.139	18224
908.256	18087
908.372	18106
908.488	18068
908.604	17878
908.72	17828
908.836	17859
908.952	17889
909.068	17897
909.184	17874
909.3	17878
909.415	17885
909.531	17775
909.647	17611
909.762	17558
909.878	17501
909.993	17490
910.108	17501
910.224	17482
910.339	17581
910.454	17376
910.57	17512
910.685	17311
910.8	17642
910.915	17486
911.03	17452
911.145	17208
911.259	17189
911.374	17174
911.489	17041
911.604	17121
911.718	16755
911.833	16839
911.947	16820
912.062	16717
912.176	16862
912.291	16949
912.405	16930
912.519	17060
912.633	17037
912.748	16908
912.862	16900
912.976	16713
913.09	16599
913.204	16683
913.318	16767
913.431	16812
913.545	16824
913.659	16828
913.772	16668
913.886	16493
914	16402
914.113	16554
914.226	16580
914.34	16577
914.453	16348
914.566	16474
914.68	16306
914.793	16386
914.906	16211
915.019	16090
915.132	15964
915.245	16044
915.358	16082
915.47	16002
915.583	16154
915.696	16059
915.809	16234
915.921	16196
916.034	16109
916.146	15835
916.259	15911
916.371	15991
916.483	16010
916.595	15964
916.708	15899
916.82	15903
916.932	15903
917.044	15850
917.156	15884
917.268	15652
917.38	15633
917.491	15641
917.603	15743
917.715	15774
917.826	15732
917.938	15530
918.049	15549
918.161	15595
918.272	15800
918.384	15705
918.495	15641
918.606	15462
918.717	15291
918.828	15348
918.939	15374
919.05	15359
919.161	15336
919.272	15165
919.383	15302
919.494	15420
919.604	15686
919.715	15370
919.826	15291
919.936	15252
920.047	15317
920.157	15389
920.267	15530
920.378	15332
920.488	15252
920.598	15625
920.708	15652
920.818	15492
920.928	15507
921.038	15724
921.148	15652
921.258	15325
921.368	15226
921.477	15100
921.587	15017
921.697	14902
921.806	15066
921.916	14937
922.025	14750
922.134	14682
922.244	14674
922.353	14724
922.462	14564
922.571	14575
922.68	14370
922.789	14431
922.898	14366
923.007	14225
923.116	14374
923.224	14370
923.333	14328
923.442	14218
923.55	14100
923.659	14199
923.767	14244
923.876	14092
923.984	14176
924.092	14008
924.201	14035
924.309	14100
924.417	14069
924.525	13925
924.633	13940
924.741	14746
924.849	13780
924.956	13814
925.064	13780
925.172	13693
925.279	13700
925.387	13784
925.494	13753
925.602	13822
925.709	13761
925.816	13620
925.924	13575
926.031	13704
926.138	13620
926.245	13670
926.352	13510
926.459	13704
926.566	13693
926.673	13620
926.779	13384
926.886	13495
926.993	13327
927.099	13263
927.206	13198
927.312	13255
927.419	13285
927.525	13240
927.631	13320
927.737	13137
927.843	13069
927.95	12977
928.056	13061
928.162	13069
928.267	13023
928.373	13613
928.479	13164
928.585	12901
928.69	13000
928.796	13027
928.901	12932
929.007	12707
929.112	12871
929.218	12909
929.323	12783
929.428	12783
929.533	12878
929.638	12711
929.743	12817
929.848	12730
929.953	12665
930.058	12646
930.163	12448
930.267	12460
930.372	12521
930.477	12395
930.581	12563
930.685	12475
930.79	12273
930.894	12372
930.998	12235
931.103	12380
931.207	12091
931.311	12022
931.415	11874
931.519	11718
931.623	11600
