Data from test_V78500241_1463.txt Node
Date: Fri Mar 25 15:51:56 CST 2022
User: usil
Spectrometer: V785-0024
Trigger mode: 0
Integration Time (sec): 4.000000E-1
Scans to average: 1
Nonlinearity correction enabled: false
Boxcar width: 0
Storing dark spectrum: false
XAxis mode: Wavelengths
Number of Pixels in Spectrum: 1024
>>>>>Begin Spectral Data<<<<<
801.071	27633
801.214	27450
801.356	27382
801.499	27207
801.641	27108
801.783	27173
801.926	27119
802.068	26998
802.211	27020
802.353	26956
802.496	26796
802.638	26864
802.78	26838
802.923	26609
803.065	26708
803.208	26727
803.35	26857
803.492	26929
803.635	26845
803.777	26864
803.919	26956
804.061	27199
804.204	26921
804.346	26902
804.488	27001
804.63	27001
804.773	26727
804.915	26940
805.057	26960
805.199	26952
805.341	27123
805.483	27020
805.626	27184
805.768	26960
805.91	27043
806.052	27085
806.194	27119
806.336	27275
806.478	27199
806.62	27116
806.762	27123
806.904	27264
807.046	27439
807.188	27549
807.33	27633
807.472	27534
807.614	27515
807.756	27317
807.898	27298
808.04	27279
808.182	27408
808.324	27469
808.465	27393
808.607	27538
808.749	27690
808.891	27663
809.033	27926
809.174	27698
809.316	27603
809.458	27755
809.6	27663
809.741	27800
809.883	27785
810.025	27842
810.166	27994
810.308	27934
810.45	27994
810.591	27819
810.733	27663
810.875	27534
811.016	27500
811.158	27644
811.299	27873
811.441	27816
811.582	27895
811.724	27625
811.865	27667
812.007	27724
812.148	27743
812.29	27633
812.431	27857
812.573	27968
812.714	27880
812.855	28329
812.997	28215
813.138	28424
813.279	28181
813.421	28238
813.562	28078
813.703	27949
813.845	27747
813.986	27583
814.127	27504
814.268	27344
814.41	27378
814.551	27226
814.692	27283
814.833	27222
814.974	27351
815.115	27378
815.256	27218
815.397	27275
815.539	27096
815.68	27154
815.821	26986
815.962	27017
816.103	27096
816.244	27165
816.385	26929
816.526	26944
816.666	26739
816.807	26545
816.948	26785
817.089	26545
817.23	26670
817.371	26613
817.512	26606
817.653	26689
817.793	26511
817.934	26697
818.075	26667
818.216	26750
818.356	26629
818.497	26686
818.638	26305
818.778	26256
818.919	26320
819.06	26514
819.2	26606
819.341	26674
819.481	26678
819.622	26838
819.762	26864
819.903	26887
820.043	26754
820.184	26830
820.324	26731
820.465	26804
820.605	26735
820.746	26667
820.886	26552
821.026	26785
821.167	26686
821.307	26895
821.447	26571
821.588	26503
821.728	26450
821.868	26214
822.008	26100
822.149	26027
822.289	25928
822.429	25868
822.569	25772
822.709	25807
822.849	25677
822.99	25559
823.13	25609
823.27	25567
823.41	25316
823.55	25324
823.69	25411
823.83	25407
823.97	25411
824.11	25274
824.25	25114
824.389	25282
824.529	25312
824.669	25251
824.809	25438
824.949	25312
825.089	25400
825.228	25228
825.368	25038
825.508	25053
825.648	25129
825.787	25141
825.927	25225
826.067	25065
826.206	25034
826.346	25194
826.485	25206
826.625	25168
826.765	25183
826.904	25065
827.044	24886
827.183	24745
827.323	24897
827.462	24791
827.601	24825
827.741	24764
827.88	24764
828.02	24631
828.159	24833
828.298	24928
828.437	24909
828.577	24711
828.716	24848
828.855	24612
828.994	24646
829.134	24395
829.273	24570
829.412	24448
829.551	24418
829.69	24494
829.829	24608
829.968	24551
830.107	24540
830.246	24593
830.385	24475
830.524	24384
830.663	24323
830.802	24239
830.941	24117
831.08	24087
831.219	24068
831.357	24163
831.496	24403
831.635	24095
831.774	23992
831.913	23965
832.051	23847
832.19	24110
832.329	23851
832.467	23687
832.606	23851
832.744	23710
832.883	23779
833.022	23775
833.16	23726
833.299	23843
833.437	23821
833.576	23775
833.714	23775
833.852	23798
833.991	23889
834.129	23961
834.267	23954
834.406	23821
834.544	23798
834.682	23847
834.821	23813
834.959	24045
835.097	23771
835.235	23935
835.373	23882
835.511	23775
835.65	23600
835.788	23737
835.926	23478
836.064	23562
836.202	23539
836.34	23634
836.478	23771
836.615	23718
836.753	23585
836.891	23710
837.029	23611
837.167	23623
837.305	23573
837.443	23642
837.58	23471
837.718	23474
837.856	23554
837.993	23398
838.131	23501
838.269	23490
838.406	23520
838.544	23349
838.681	23075
838.819	23239
838.956	22968
839.094	22980
839.231	22896
839.369	23204
839.506	23296
839.643	23239
839.781	23003
839.918	22904
840.055	23140
840.193	22984
840.33	22900
840.467	22835
840.604	22873
840.742	23303
840.879	22626
841.016	22828
841.153	22778
841.29	22999
841.427	22877
841.564	22801
841.701	22927
841.838	22850
841.975	22736
842.112	22824
842.249	22744
842.385	22713
842.522	22892
842.659	22763
842.796	22664
842.933	22580
843.069	22588
843.206	22634
843.343	22599
843.479	22744
843.616	22584
843.752	22493
843.889	22417
844.025	22561
844.162	22375
844.298	22424
844.435	22371
844.571	22325
844.708	22329
844.844	22596
844.98	22535
845.117	22596
845.253	22314
845.389	22276
845.525	22200
845.661	22192
845.798	22044
845.934	22226
846.07	22150
846.206	22131
846.342	22348
846.478	22120
846.614	21903
846.75	21915
846.886	21983
847.022	21899
847.158	21941
847.294	21876
847.429	22090
847.565	21865
847.701	21991
847.837	21698
847.972	21583
848.108	21835
848.244	21739
848.379	21462
848.515	21473
848.65	21374
848.786	21553
848.921	21583
849.057	21545
849.192	21614
849.328	21469
849.463	21534
849.598	21386
849.734	21359
849.869	21298
850.004	21306
850.14	21272
850.275	21211
850.41	21180
850.545	21131
850.68	21218
850.815	21287
850.95	21294
851.085	21424
851.22	21408
851.355	21268
851.49	21169
851.625	21199
851.76	21218
851.895	21138
852.03	21173
852.165	21173
852.299	21294
852.434	21545
852.569	21176
852.703	21165
852.838	21329
852.973	21500
853.107	21386
853.242	21214
853.376	21123
853.511	20918
853.645	21020
853.78	21195
853.914	21081
854.048	21020
854.183	21161
854.317	21119
854.451	21199
854.585	21104
854.72	21077
854.854	21214
854.988	21017
855.122	21108
855.256	21005
855.39	20971
855.524	21241
855.658	21005
855.792	20982
855.926	21188
856.06	21176
856.194	21298
856.327	20998
856.461	21184
856.595	21104
856.729	21017
856.862	21123
856.996	21070
857.13	21150
857.263	21165
857.397	21138
857.53	21214
857.664	21116
857.797	21222
857.931	21104
858.064	21058
858.197	21173
858.331	21085
858.464	20948
858.597	21013
858.731	21135
858.864	20979
858.997	21135
859.13	21013
859.263	21039
859.396	21135
859.529	21066
859.662	21100
859.795	20929
859.928	21043
860.061	21313
860.194	21310
860.327	21169
860.46	21036
860.592	21287
860.725	21291
860.858	21154
860.99	20986
861.123	21024
861.256	21009
861.388	21039
861.521	21778
861.653	20956
861.786	20906
861.918	20944
862.05	20952
862.183	21009
862.315	21051
862.447	21001
862.58	21055
862.712	20864
862.844	20701
862.976	20910
863.108	20842
863.24	21291
863.372	20792
863.504	20800
863.636	20838
863.768	20815
863.9	20811
864.032	20815
864.164	20697
864.296	20724
864.428	20921
864.559	20777
864.691	20739
864.823	20883
864.954	20735
865.086	20876
865.217	20701
865.349	20636
865.48	20712
865.612	20712
865.743	20758
865.875	20712
866.006	20705
866.137	20670
866.269	20720
866.4	20807
866.531	20724
866.662	20526
866.793	20564
866.924	20670
867.055	20651
867.186	20644
867.317	20568
867.448	20499
867.579	20625
867.71	20518
867.841	20560
867.972	20708
868.103	20621
868.233	20731
868.364	20549
868.495	20674
868.625	20811
868.756	20853
868.886	20663
869.017	20891
869.147	20937
869.278	21043
869.408	20792
869.539	20887
869.669	20933
869.799	20864
869.929	21055
870.06	21009
870.19	21074
870.32	21180
870.45	21230
870.58	21348
870.71	21325
870.84	21351
870.97	21188
871.1	21233
871.23	21580
871.36	21481
871.489	21291
871.619	21378
871.749	21405
871.879	21576
872.008	21519
872.138	21492
872.267	21424
872.397	21370
872.526	21298
872.656	21325
872.785	21306
872.915	21450
873.044	21473
873.173	21542
873.303	21663
873.432	21557
873.561	21587
873.69	21450
873.819	21458
873.948	21435
874.077	21477
874.206	21424
874.335	21538
874.464	21637
874.593	21747
874.722	21656
874.851	21793
874.979	21766
875.108	21842
875.237	21644
875.365	21652
875.494	21686
875.623	21857
875.751	21641
875.88	21823
876.008	21915
876.136	21998
876.265	22219
876.393	22291
876.521	22215
876.65	22306
876.778	22188
876.906	22105
877.034	21998
877.162	22154
877.29	22120
877.418	22021
877.546	22093
877.674	22029
877.802	22120
877.93	22093
878.058	22120
878.185	22010
878.313	21998
878.441	22105
878.568	22025
878.696	22051
878.824	22059
878.951	22177
879.079	22223
879.206	22527
879.333	22188
879.461	22105
879.588	22143
879.715	22253
879.842	22447
879.97	22112
880.097	21899
880.224	21930
880.351	21884
880.478	21819
880.605	21899
880.732	21907
880.859	22131
880.986	22025
881.112	22002
881.239	21873
881.366	21633
881.493	21553
881.619	21454
881.746	21447
881.872	21439
881.999	21450
882.125	21435
882.252	21526
882.378	21428
882.505	21454
882.631	21313
882.757	21176
882.883	21306
883.01	21256
883.136	21306
883.262	21055
883.388	20982
883.514	21245
883.64	21222
883.766	21150
883.892	20899
884.018	20944
884.143	21207
884.269	21302
884.395	20857
884.52	20838
884.646	20921
884.772	20750
884.897	20731
885.023	20838
885.148	20933
885.274	20925
885.399	20982
885.524	20887
885.65	20777
885.775	20750
885.9	20952
886.025	20925
886.15	21001
886.275	20807
886.4	20712
886.525	20758
886.65	20868
886.775	20724
886.9	20834
887.025	21081
887.149	20754
887.274	20530
887.399	20667
887.523	20659
887.648	20568
887.773	20507
887.897	20746
888.021	20667
888.146	20568
888.27	20670
888.395	20762
888.519	20693
888.643	20701
888.767	20625
888.891	20545
889.015	20400
889.139	20503
889.263	20438
889.387	20541
889.511	20598
889.635	20396
889.759	20446
889.883	20301
890.006	20301
890.13	20419
890.254	20278
890.377	20278
890.501	20138
890.624	20081
890.748	20263
890.871	19955
890.995	20005
891.118	19947
891.241	19967
891.364	19921
891.488	20020
891.611	20027
891.734	20008
891.857	20050
891.98	20043
892.103	20065
892.226	19982
892.349	19997
892.471	19826
892.594	19940
892.717	19887
892.839	19925
892.962	19879
893.085	19906
893.207	19887
893.33	19662
893.452	19761
893.575	20058
893.697	19841
893.819	20043
893.941	20100
894.064	20016
894.186	19795
894.308	19757
894.43	20027
894.552	20054
894.674	19925
894.796	19928
894.918	19788
895.04	19830
895.161	19902
895.283	19989
895.405	19791
895.526	19925
895.648	19947
895.769	20031
895.891	19951
896.012	19970
896.134	19887
896.255	19978
896.376	19822
896.498	19928
896.619	19833
896.74	19887
896.861	19887
896.982	20263
897.103	20336
897.224	20183
897.345	20103
897.466	19963
897.587	20142
897.708	20195
897.828	20153
897.949	20142
898.07	19925
898.19	20024
898.311	20183
898.431	20111
898.552	20107
898.672	20161
898.792	20183
898.913	20252
899.033	20092
899.153	19814
899.273	19715
899.393	19887
899.513	19940
899.633	19951
899.753	19826
899.873	19738
899.993	19928
900.113	19811
900.232	19852
900.352	19883
900.472	19704
900.591	19559
900.711	19651
900.83	19738
900.95	19799
901.069	19677
901.189	19628
901.308	19365
901.427	19187
901.546	19285
901.665	19160
901.784	19206
901.904	19228
902.023	19027
902.141	18798
902.26	18745
902.379	18798
902.498	18814
902.617	18776
902.735	18806
902.854	18787
902.973	18707
903.091	18513
903.21	18475
903.328	18486
903.446	18296
903.565	18270
903.683	18114
903.801	18197
903.919	18133
904.038	18247
904.156	17988
904.274	18060
904.392	17969
904.51	18015
904.627	17992
904.745	18106
904.863	18045
904.981	17798
905.098	17684
905.216	17752
905.334	17805
905.451	17722
905.569	17668
905.686	17718
905.803	17661
905.921	17395
906.038	17619
906.155	17490
906.272	17395
906.389	17410
906.506	17181
906.623	17174
906.74	17288
906.857	17094
906.974	17159
907.091	17242
907.208	17383
907.324	17299
907.441	17227
907.557	16869
907.674	16923
907.79	16809
907.907	16771
908.023	16930
908.139	16953
908.256	16885
908.372	16946
908.488	16847
908.604	16717
908.72	16603
908.836	16649
908.952	16611
909.068	16717
909.184	16672
909.3	16649
909.415	16763
909.531	16653
909.647	16386
909.762	16348
909.878	16440
909.993	16390
910.108	16276
910.224	16261
910.339	16325
910.454	16280
910.57	16207
910.685	16013
910.8	16478
910.915	16341
911.03	16246
911.145	16032
911.259	15972
911.374	15895
911.489	15953
911.604	15736
911.718	15720
911.833	15717
911.947	15637
912.062	15564
912.176	15743
912.291	15701
912.405	15713
912.519	15876
912.633	15869
912.748	15755
912.862	15652
912.976	15469
913.09	15340
913.204	15511
913.318	15530
913.431	15652
913.545	15561
913.659	15622
913.772	15511
913.886	15412
914	15298
914.113	15397
914.226	15393
914.34	15435
914.453	15230
914.566	15344
914.68	15252
914.793	15104
914.906	15028
915.019	14872
915.132	14830
915.245	14944
915.358	14929
915.47	14948
915.583	14979
915.696	14872
915.809	15070
915.921	15062
916.034	14807
916.146	14842
916.259	14819
916.371	14925
916.483	14902
916.595	14800
916.708	14781
916.82	14838
916.932	14731
917.044	14746
917.156	14815
917.268	14552
917.38	14644
917.491	14533
917.603	14590
917.715	14689
917.826	14678
917.938	14503
918.049	14442
918.161	14545
918.272	14644
918.384	14708
918.495	14499
918.606	14457
918.717	14355
918.828	14351
918.939	14431
919.05	14313
919.161	14358
919.272	14176
919.383	14168
919.494	14431
919.604	14514
919.715	14286
919.826	14199
919.936	14252
920.047	14343
920.157	14381
920.267	14484
920.378	14282
920.488	14225
920.598	14495
920.708	14594
920.818	14484
920.928	14442
921.038	14636
921.148	14484
921.258	14168
921.368	14229
921.477	14073
921.587	14039
921.697	13963
921.806	14210
921.916	13883
922.025	13742
922.134	13708
922.244	13776
922.353	13734
922.462	13609
922.571	13571
922.68	13327
922.789	13369
922.898	13392
923.007	13266
923.116	13438
923.224	13320
923.333	13320
923.442	13183
923.55	13164
923.659	13179
923.767	13316
923.876	13152
923.984	13228
924.092	13118
924.201	13145
924.309	13095
924.417	13137
924.525	12970
924.633	13008
924.741	13856
924.849	12840
924.956	12985
925.064	12829
925.172	12779
925.279	12772
925.387	12859
925.494	12810
925.602	12871
925.709	12897
925.816	12604
925.924	12730
926.031	12791
926.138	12726
926.245	12741
926.352	12646
926.459	12776
926.566	12920
926.673	12681
926.779	12574
926.886	12448
926.993	12365
927.099	12338
927.206	12372
927.312	12323
927.419	12292
927.525	12292
927.631	12456
927.737	12201
927.843	12175
927.95	12110
928.056	12121
928.162	12213
928.267	12194
928.373	12916
928.479	12395
928.585	12053
928.69	12079
928.796	12136
928.901	12045
929.007	11977
929.112	12011
929.218	12034
929.323	11984
929.428	11843
929.533	12038
929.638	11908
929.743	11874
929.848	11958
929.953	11828
930.058	11775
930.163	11608
930.267	11619
930.372	11817
930.477	11608
930.581	11874
930.685	11615
930.79	11509
930.894	11452
930.998	11505
931.103	11661
931.207	11273
931.311	11201
931.415	11155
931.519	10862
931.623	10923
