Data from test_V78500241_1686.txt Node
Date: Fri Mar 25 15:53:28 CST 2022
User: usil
Spectrometer: V785-0024
Trigger mode: 0
Integration Time (sec): 4.000000E-1
Scans to average: 1
Nonlinearity correction enabled: false
Boxcar width: 0
Storing dark spectrum: false
XAxis mode: Wavelengths
Number of Pixels in Spectrum: 1024
>>>>>Begin Spectral Data<<<<<
801.071	28352
801.214	28196
801.356	28242
801.499	28063
801.641	28021
801.783	27922
801.926	27994
802.068	27991
802.211	27934
802.353	27838
802.496	27595
802.638	27812
802.78	27526
802.923	27686
803.065	27576
803.208	27504
803.35	27686
803.492	27743
803.635	27941
803.777	27819
803.919	27895
804.061	28299
804.204	27766
804.346	27812
804.488	27732
804.63	27975
804.773	27899
804.915	27861
805.057	28032
805.199	27842
805.341	27892
805.483	28090
805.626	28143
805.768	27778
805.91	27930
806.052	28059
806.194	27911
806.336	28215
806.478	28150
806.62	27937
806.762	28162
806.904	28265
807.046	28382
807.188	28382
807.33	28489
807.472	28527
807.614	28417
807.756	28481
807.898	28405
808.04	28207
808.182	28337
808.324	28314
808.465	28333
808.607	28478
808.749	28797
808.891	28649
809.033	28919
809.174	28675
809.316	28687
809.458	28615
809.6	28615
809.741	28755
809.883	28740
810.025	29086
810.166	28900
810.308	28999
810.45	28930
810.591	28881
810.733	28691
810.875	28767
811.016	28653
811.158	28668
811.299	28740
811.441	28843
811.582	28809
811.724	28721
811.865	28645
812.007	28641
812.148	28702
812.29	28630
812.431	28744
812.573	29128
812.714	29159
812.855	29311
812.997	29254
813.138	29490
813.279	29402
813.421	29288
813.562	29041
813.703	28995
813.845	28896
813.986	28500
814.127	28531
814.268	28485
814.41	28474
814.551	28375
814.692	28462
814.833	28367
814.974	28440
815.115	28371
815.256	28322
815.397	28200
815.539	28162
815.68	28219
815.821	28120
815.962	28280
816.103	28143
816.244	28116
816.385	27972
816.526	27926
816.666	27831
816.807	27599
816.948	27819
817.089	27869
817.23	27652
817.371	27660
817.512	27690
817.653	27629
817.793	27648
817.934	27675
818.075	27762
818.216	27675
818.356	27583
818.497	27519
818.638	27382
818.778	27412
818.919	27420
819.06	27526
819.2	27523
819.341	27785
819.481	27511
819.622	27941
819.762	27987
819.903	27987
820.043	27850
820.184	27854
820.324	27838
820.465	27808
820.605	27899
820.746	27762
820.886	27606
821.026	27812
821.167	27641
821.307	27865
821.447	27842
821.588	27583
821.728	27370
821.868	27252
822.008	27279
822.149	27192
822.289	27146
822.429	26864
822.569	26895
822.709	26636
822.849	26659
822.99	26705
823.13	26682
823.27	26587
823.41	26362
823.55	26442
823.69	26461
823.83	26507
823.97	26453
824.11	26313
824.25	26180
824.389	26377
824.529	26453
824.669	26362
824.809	26400
824.949	26450
825.089	26393
825.228	26480
825.368	26263
825.508	26130
825.648	26248
825.787	26240
825.927	26343
826.067	26206
826.206	26233
826.346	26214
826.485	26176
826.625	26210
826.765	26282
826.904	26122
827.044	25902
827.183	25925
827.323	25917
827.462	25849
827.601	25917
827.741	25936
827.88	25837
828.02	25795
828.159	25803
828.298	25955
828.437	25822
828.577	25852
828.716	25986
828.855	25849
828.994	25495
829.134	25582
829.273	25556
829.412	25544
829.551	25483
829.69	25597
829.829	25818
829.968	25765
830.107	25776
830.246	25677
830.385	25525
830.524	25495
830.663	25438
830.802	25304
830.941	25278
831.08	25190
831.219	25297
831.357	25339
831.496	25335
831.635	25255
831.774	25118
831.913	25095
832.051	24943
832.19	24962
832.329	25069
832.467	24901
832.606	24722
832.744	24757
832.883	24973
833.022	24928
833.16	24814
833.299	24867
833.437	24916
833.576	24943
833.714	24890
833.852	25038
833.991	24924
834.129	24962
834.267	25012
834.406	24875
834.544	24954
834.682	24848
834.821	24977
834.959	25103
835.097	24783
835.235	24871
835.373	24935
835.511	24814
835.65	24768
835.788	24703
835.926	24654
836.064	24570
836.202	24540
836.34	24856
836.478	24753
836.615	24741
836.753	24681
836.891	24833
837.029	24757
837.167	24593
837.305	24650
837.443	24612
837.58	24623
837.718	24646
837.856	24601
837.993	24540
838.131	24631
838.269	24490
838.406	24456
838.544	24304
838.681	24041
838.819	24106
838.956	23969
839.094	23973
839.231	24076
839.369	24190
839.506	24471
839.643	24247
839.781	24171
839.918	23942
840.055	24011
840.193	24095
840.33	23923
840.467	23832
840.604	23999
840.742	24292
840.879	23901
841.016	23908
841.153	23851
841.29	24102
841.427	23935
841.564	23904
841.701	23923
841.838	23874
841.975	23904
842.112	23813
842.249	23882
842.385	23832
842.522	23977
842.659	23737
842.796	23741
842.933	23596
843.069	23608
843.206	23729
843.343	23840
843.479	23646
843.616	23581
843.752	23417
843.889	23406
844.025	23573
844.162	23547
844.298	23497
844.435	23543
844.571	23501
844.708	23516
844.844	23471
844.98	23604
845.117	23577
845.253	23471
845.389	23273
845.525	23433
845.661	23383
845.798	23178
845.934	23235
846.07	23189
846.206	23227
846.342	23379
846.478	23280
846.614	22854
846.75	22949
846.886	23010
847.022	22892
847.158	22869
847.294	22984
847.429	22919
847.565	22942
847.701	23220
847.837	22561
847.972	22653
848.108	22904
848.244	22850
848.379	22402
848.515	22660
848.65	22569
848.786	22432
848.921	22542
849.057	22596
849.192	22618
849.328	22630
849.463	22599
849.598	22607
849.734	22398
849.869	22280
850.004	22375
850.14	22363
850.275	22348
850.41	22124
850.545	22200
850.68	22238
850.815	22287
850.95	22223
851.085	22356
851.22	22360
851.355	22409
851.49	22219
851.625	22265
851.76	22261
851.895	22261
852.03	22139
852.165	22363
852.299	22272
852.434	22390
852.569	22398
852.703	22268
852.838	22276
852.973	22367
853.107	22485
853.242	22173
853.376	22067
853.511	21998
853.645	22036
853.78	22238
853.914	22139
854.048	22093
854.183	22063
854.317	22025
854.451	22356
854.585	22093
854.72	22116
854.854	22109
854.988	22116
855.122	22074
855.256	22021
855.39	22131
855.524	22128
855.658	22067
855.792	22036
855.926	22135
856.06	22261
856.194	22204
856.327	22093
856.461	21968
856.595	22006
856.729	22090
856.862	22268
856.996	22128
857.13	22101
857.263	22173
857.397	22246
857.53	22169
857.664	22097
857.797	22215
857.931	22169
858.064	22097
858.197	22242
858.331	22158
858.464	21975
858.597	21911
858.731	22025
858.864	22032
858.997	22131
859.13	22188
859.263	22101
859.396	22211
859.529	22097
859.662	21983
859.795	22124
859.928	22143
860.061	22131
860.194	22314
860.327	22196
860.46	22162
860.592	22257
860.725	22200
860.858	22226
860.99	22112
861.123	22116
861.256	22025
861.388	22112
861.521	22816
861.653	21983
861.786	21964
861.918	21998
862.05	22036
862.183	22059
862.315	22105
862.447	22074
862.58	21918
862.712	21857
862.844	21774
862.976	21907
863.108	21812
863.24	22284
863.372	21705
863.504	21850
863.636	21774
863.768	21770
863.9	21846
864.032	21728
864.164	21770
864.296	21949
864.428	21953
864.559	21781
864.691	21884
864.823	21762
864.954	21732
865.086	21808
865.217	21713
865.349	21656
865.48	21606
865.612	21743
865.743	21759
865.875	21781
866.006	21686
866.137	21694
866.269	21663
866.4	21610
866.531	21625
866.662	21530
866.793	21667
866.924	21614
867.055	21595
867.186	21660
867.317	21568
867.448	21698
867.579	21561
867.71	21462
867.841	21580
867.972	21671
868.103	21587
868.233	21606
868.364	21633
868.495	21648
868.625	21827
868.756	21953
868.886	21850
869.017	21850
869.147	21953
869.278	21949
869.408	21941
869.539	21895
869.669	21953
869.799	21945
869.929	21930
870.06	21960
870.19	22185
870.32	22162
870.45	22226
870.58	22284
870.71	22314
870.84	22314
870.97	22265
871.1	22295
871.23	22485
871.36	22360
871.489	22341
871.619	22443
871.749	22474
871.879	22390
872.008	22683
872.138	22478
872.267	22443
872.397	22272
872.526	22249
872.656	22352
872.785	22360
872.915	22436
873.044	22554
873.173	22474
873.303	22675
873.432	22538
873.561	22588
873.69	22618
873.819	22371
873.948	22497
874.077	22447
874.206	22394
874.335	22565
874.464	22531
874.593	22641
874.722	22569
874.851	22797
874.979	22744
875.108	22653
875.237	22698
875.365	22569
875.494	22691
875.623	22649
875.751	22687
875.88	22744
876.008	22797
876.136	22904
876.265	23181
876.393	23140
876.521	23193
876.65	23189
876.778	22980
876.906	22972
877.034	23003
877.162	23071
877.29	22957
877.418	23060
877.546	22987
877.674	23037
877.802	22999
877.93	23003
878.058	22896
878.185	22889
878.313	23006
878.441	22976
878.568	22801
878.696	23018
878.824	22968
878.951	23075
879.079	23128
879.206	23322
879.333	23170
879.461	23113
879.588	23048
879.715	23124
879.842	23277
879.97	23307
880.097	22892
880.224	22824
880.351	22927
880.478	22889
880.605	22771
880.732	22748
880.859	23105
880.986	22812
881.112	22850
881.239	22691
881.366	22546
881.493	22516
881.619	22436
881.746	22371
881.872	22409
881.999	22409
882.125	22329
882.252	22436
882.378	22405
882.505	22542
882.631	22223
882.757	22131
882.883	22253
883.01	22200
883.136	22109
883.262	21949
883.388	21934
883.514	22215
883.64	22101
883.766	22067
883.892	21892
884.018	21953
884.143	22082
884.269	22150
884.395	21846
884.52	21846
884.646	21717
884.772	21686
884.897	21660
885.023	21842
885.148	21831
885.274	21888
885.399	21861
885.524	21717
885.65	21800
885.775	21667
885.9	21873
886.025	21781
886.15	21964
886.275	21648
886.4	21701
886.525	21618
886.65	21557
886.775	21705
886.9	21895
887.025	21930
887.149	21660
887.274	21591
887.399	21587
887.523	21496
887.648	21416
887.773	21435
887.897	21671
888.021	21515
888.146	21431
888.27	21511
888.395	21538
888.519	21519
888.643	21591
888.767	21534
888.891	21416
889.015	21370
889.139	21351
889.263	21279
889.387	21306
889.511	21511
889.635	21397
889.759	21275
889.883	21211
890.006	21237
890.13	21291
890.254	21169
890.377	21165
890.501	21051
890.624	21009
890.748	21157
890.871	20990
890.995	20929
891.118	20758
891.241	20880
891.364	20864
891.488	21020
891.611	20792
891.734	20902
891.857	20902
891.98	20838
892.103	20895
892.226	20971
892.349	20746
892.471	20720
892.594	20785
892.717	20796
892.839	20792
892.962	20804
893.085	20845
893.207	20754
893.33	20621
893.452	20632
893.575	20804
893.697	20708
893.819	20872
893.941	20956
894.064	20967
894.186	20720
894.308	20648
894.43	20891
894.552	21020
894.674	20807
894.796	20632
894.918	20762
895.04	20758
895.161	20788
895.283	20773
895.405	20735
895.526	20678
895.648	20845
895.769	20693
895.891	20724
896.012	20804
896.134	20895
896.255	20804
896.376	20625
896.498	20815
896.619	20823
896.74	20712
896.861	20678
896.982	20975
897.103	21184
897.224	20921
897.345	21058
897.466	20834
897.587	20849
897.708	21058
897.828	21020
897.949	20925
898.07	20861
898.19	20914
898.311	20990
898.431	20815
898.552	20967
898.672	21009
898.792	20975
898.913	20971
899.033	20880
899.153	20648
899.273	20556
899.393	20629
899.513	20731
899.633	20743
899.753	20670
899.873	20602
899.993	20629
900.113	20518
900.232	20518
900.352	20545
900.472	20495
900.591	20396
900.711	20522
900.83	20324
900.95	20682
901.069	20507
901.189	20328
901.308	20065
901.427	20065
901.546	20012
901.665	19989
901.784	20107
901.904	19928
902.023	19894
902.141	19609
902.26	19559
902.379	19632
902.498	19510
902.617	19487
902.735	19483
902.854	19540
902.973	19537
903.091	19297
903.21	19247
903.328	19171
903.446	19000
903.565	18970
903.683	18993
903.801	18890
903.919	18882
904.038	18882
904.156	18840
904.274	18798
904.392	18631
904.51	18646
904.627	18802
904.745	18722
904.863	18776
904.981	18589
905.098	18376
905.216	18464
905.334	18536
905.451	18342
905.569	18490
905.686	18460
905.803	18422
905.921	18201
906.038	18194
906.155	18281
906.272	18125
906.389	18121
906.506	17843
906.623	18041
906.74	17958
906.857	17733
906.974	17813
907.091	17859
907.208	18064
907.324	17775
907.441	17764
907.557	17676
907.674	17630
907.79	17596
907.907	17661
908.023	17722
908.139	17691
908.256	17573
908.372	17623
908.488	17520
908.604	17436
908.72	17315
908.836	17330
908.952	17273
909.068	17425
909.184	17387
909.3	17414
909.415	17372
909.531	17326
909.647	17064
909.762	17075
909.878	17045
909.993	17117
910.108	17010
910.224	17105
910.339	17071
910.454	16877
910.57	16953
910.685	16866
910.8	17128
910.915	17006
911.03	16904
911.145	16725
911.259	16622
911.374	16603
911.489	16588
911.604	16565
911.718	16352
911.833	16478
911.947	16325
912.062	16246
912.176	16409
912.291	16363
912.405	16379
912.519	16584
912.633	16504
912.748	16402
912.862	16352
912.976	16253
913.09	16181
913.204	16207
913.318	16093
913.431	16284
913.545	16276
913.659	16371
913.772	16173
913.886	16051
914	15968
914.113	16074
914.226	16128
914.34	16101
914.453	15869
914.566	15994
914.68	15895
914.793	15789
914.906	15656
915.019	15603
915.132	15591
915.245	15542
915.358	15519
915.47	15534
915.583	15625
915.696	15652
915.809	15800
915.921	15778
916.034	15603
916.146	15477
916.259	15492
916.371	15591
916.483	15606
916.595	15359
916.708	15439
916.82	15443
916.932	15310
917.044	15351
917.156	15393
917.268	15192
917.38	15302
917.491	15226
917.603	15173
917.715	15268
917.826	15287
917.938	15211
918.049	15028
918.161	15127
918.272	15268
918.384	15275
918.495	15093
918.606	15097
918.717	14891
918.828	15024
918.939	14925
919.05	14864
919.161	15036
919.272	14834
919.383	14754
919.494	15001
919.604	15104
919.715	15070
919.826	14796
919.936	14937
920.047	14998
920.157	14944
920.267	15077
920.378	15001
920.488	14975
920.598	15104
920.708	15192
920.818	15024
920.928	15066
921.038	15119
921.148	15207
921.258	14948
921.368	14777
921.477	14716
921.587	14667
921.697	14579
921.806	14621
921.916	14457
922.025	14404
922.134	14389
922.244	14324
922.353	14389
922.462	14130
922.571	14084
922.68	13921
922.789	13982
922.898	14001
923.007	13898
923.116	13951
923.224	13883
923.333	13856
923.442	13765
923.55	13769
923.659	13761
923.767	13822
923.876	13689
923.984	13696
924.092	13616
924.201	13670
924.309	13636
924.417	13609
924.525	13636
924.633	13651
924.741	14370
924.849	13403
924.956	13377
925.064	13415
925.172	13221
925.279	13270
925.387	13278
925.494	13331
925.602	13400
925.709	13430
925.816	13209
925.924	13293
926.031	13335
926.138	13225
926.245	13289
926.352	13141
926.459	13263
926.566	13304
926.673	13175
926.779	13103
926.886	13076
926.993	12882
927.099	12909
927.206	12825
927.312	12825
927.419	12958
927.525	12844
927.631	12844
927.737	12760
927.843	12795
927.95	12555
928.056	12665
928.162	12639
928.267	12749
928.373	13346
928.479	12779
928.585	12536
928.69	12642
928.796	12734
928.901	12570
929.007	12456
929.112	12604
929.218	12525
929.323	12513
929.428	12376
929.533	12540
929.638	12350
929.743	12418
929.848	12490
929.953	12361
930.058	12277
930.163	12102
930.267	12144
930.372	12216
930.477	12079
930.581	12270
930.685	12171
930.79	11988
930.894	12072
930.998	11996
931.103	12079
931.207	11718
931.311	11573
931.415	11509
931.519	11372
931.623	11356
