Data from test_V78500241_3044.txt Node
Date: Fri Mar 25 16:02:53 CST 2022
User: usil
Spectrometer: V785-0024
Trigger mode: 0
Integration Time (sec): 4.000000E-1
Scans to average: 1
Nonlinearity correction enabled: false
Boxcar width: 0
Storing dark spectrum: false
XAxis mode: Wavelengths
Number of Pixels in Spectrum: 1024
>>>>>Begin Spectral Data<<<<<
801.071	28276
801.214	28086
801.356	27941
801.499	27846
801.641	27553
801.783	27747
801.926	27797
802.068	27800
802.211	27751
802.353	27599
802.496	27538
802.638	27416
802.78	27427
802.923	27393
803.065	27408
803.208	27473
803.35	27424
803.492	27526
803.635	27739
803.777	27606
803.919	27660
804.061	27861
804.204	27759
804.346	27553
804.488	27576
804.63	27641
804.773	27591
804.915	27709
805.057	27873
805.199	27622
805.341	27629
805.483	27888
805.626	27644
805.768	27564
805.91	27778
806.052	27869
806.194	27705
806.336	27857
806.478	27793
806.62	27797
806.762	27861
806.904	28070
807.046	28379
807.188	28135
807.33	28086
807.472	28284
807.614	28238
807.756	28287
807.898	28154
808.04	28124
808.182	28086
808.324	28067
808.465	28154
808.607	28284
808.749	28523
808.891	28337
809.033	28561
809.174	28493
809.316	28455
809.458	28497
809.6	28333
809.741	28516
809.883	28497
810.025	28767
810.166	28664
810.308	28824
810.45	28603
810.591	28607
810.733	28462
810.875	28405
811.016	28382
811.158	28375
811.299	28542
811.441	28653
811.582	28691
811.724	28398
811.865	28417
812.007	28367
812.148	28550
812.29	28390
812.431	28618
812.573	28687
812.714	28888
812.855	28999
812.997	29117
813.138	29200
813.279	29064
813.421	29006
813.562	28987
813.703	28934
813.845	28481
813.986	28379
814.127	28230
814.268	28086
814.41	28150
814.551	28185
814.692	28177
814.833	28276
814.974	28059
815.115	28177
815.256	28006
815.397	28093
815.539	28063
815.68	28078
815.821	27838
815.962	28006
816.103	27850
816.244	27869
816.385	27785
816.526	27930
816.666	27488
816.807	27599
816.948	27450
817.089	27469
817.23	27458
817.371	27500
817.512	27374
817.653	27431
817.793	27420
817.934	27469
818.075	27439
818.216	27511
818.356	27481
818.497	27306
818.638	27173
818.778	27119
818.919	27135
819.06	27279
819.2	27344
819.341	27416
819.481	27424
819.622	27542
819.762	27770
819.903	27679
820.043	27682
820.184	27549
820.324	27545
820.465	27561
820.605	27576
820.746	27576
820.886	27515
821.026	27523
821.167	27431
821.307	27500
821.447	27473
821.588	27272
821.728	27268
821.868	27188
822.008	27001
822.149	26929
822.289	26891
822.429	26621
822.569	26625
822.709	26609
822.849	26461
822.99	26377
823.13	26381
823.27	26275
823.41	26339
823.55	26100
823.69	26221
823.83	26282
823.97	26180
824.11	26103
824.25	25860
824.389	26138
824.529	26153
824.669	26001
824.809	26199
824.949	26073
825.089	26100
825.228	26176
825.368	25959
825.508	25917
825.648	25951
825.787	26001
825.927	26024
826.067	25917
826.206	25879
826.346	25982
826.485	25963
826.625	25997
826.765	26119
826.904	25894
827.044	25674
827.183	25643
827.323	25609
827.462	25674
827.601	25605
827.741	25731
827.88	25689
828.02	25441
828.159	25609
828.298	25731
828.437	25613
828.577	25552
828.716	25548
828.855	25537
828.994	25335
829.134	25266
829.273	25312
829.412	25244
829.551	25282
829.69	25293
829.829	25301
829.968	25506
830.107	25419
830.246	25304
830.385	25274
830.524	25293
830.663	25228
830.802	25046
830.941	24776
831.08	25008
831.219	24996
831.357	24981
831.496	25122
831.635	24924
831.774	24779
831.913	24783
832.051	24741
832.19	24684
832.329	24814
832.467	24677
832.606	24555
832.744	24471
832.883	24593
833.022	24601
833.16	24498
833.299	24681
833.437	24696
833.576	24772
833.714	24726
833.852	24726
833.991	24772
834.129	24669
834.267	24719
834.406	24559
834.544	24753
834.682	24661
834.821	24604
834.959	24711
835.097	24635
835.235	24726
835.373	24646
835.511	24677
835.65	24357
835.788	24593
835.926	24289
836.064	24133
836.202	24384
836.34	24608
836.478	24608
836.615	24486
836.753	24429
836.891	24505
837.029	24486
837.167	24429
837.305	24418
837.443	24418
837.58	24232
837.718	24327
837.856	24399
837.993	24292
838.131	24338
838.269	24220
838.406	24174
838.544	24194
838.681	23980
838.819	23992
838.956	24007
839.094	23809
839.231	23821
839.369	23965
839.506	24224
839.643	23969
839.781	23760
839.918	23775
840.055	23630
840.193	23695
840.33	23642
840.467	23699
840.604	23767
840.742	24007
840.879	23672
841.016	23665
841.153	23611
841.29	23927
841.427	23722
841.564	23718
841.701	23680
841.838	23551
841.975	23608
842.112	23634
842.249	23528
842.385	23478
842.522	23642
842.659	23509
842.796	23581
842.933	23379
843.069	23482
843.206	23364
843.343	23512
843.479	23608
843.616	23524
843.752	23178
843.889	23277
844.025	23326
844.162	23235
844.298	23452
844.435	23330
844.571	23269
844.708	23250
844.844	23398
844.98	23406
845.117	23474
845.253	23200
845.389	23098
845.525	23102
845.661	22999
845.798	23018
845.934	22991
846.07	22999
846.206	22999
846.342	23113
846.478	22858
846.614	22713
846.75	22694
846.886	22729
847.022	22706
847.158	22778
847.294	22771
847.429	22763
847.565	22854
847.701	22908
847.837	22379
847.972	22306
848.108	22470
848.244	22565
848.379	22253
848.515	22204
848.65	22314
848.786	22287
848.921	22306
849.057	22341
849.192	22371
849.328	22303
849.463	22325
849.598	22211
849.734	22303
849.869	22131
850.004	22162
850.14	22074
850.275	22143
850.41	21991
850.545	22032
850.68	22044
850.815	22044
850.95	21895
851.085	22261
851.22	22280
851.355	22128
851.49	22147
851.625	22010
851.76	21979
851.895	22006
852.03	22109
852.165	22029
852.299	22173
852.434	22207
852.569	22158
852.703	22078
852.838	22211
852.973	22211
853.107	22181
853.242	22051
853.376	21903
853.511	21831
853.645	21743
853.78	21960
853.914	21903
854.048	21819
854.183	21937
854.317	21960
854.451	22120
854.585	21968
854.72	21953
854.854	21922
854.988	21876
855.122	21949
855.256	21663
855.39	21808
855.524	21968
855.658	22010
855.792	21949
855.926	21835
856.06	21987
856.194	22044
856.327	21819
856.461	21884
856.595	21865
856.729	21888
856.862	21968
856.996	21941
857.13	21899
857.263	22109
857.397	22021
857.53	21991
857.664	21964
857.797	21911
857.931	22006
858.064	21907
858.197	22093
858.331	21895
858.464	21793
858.597	21739
858.731	21892
858.864	21835
858.997	21937
859.13	21934
859.263	21876
859.396	21903
859.529	21835
859.662	21895
859.795	21720
859.928	21778
860.061	22021
860.194	22116
860.327	22032
860.46	21850
860.592	22044
860.725	22017
860.858	21968
860.99	22044
861.123	21911
861.256	21960
861.388	21831
861.521	22580
861.653	21831
861.786	21603
861.918	21701
862.05	21701
862.183	21922
862.315	21838
862.447	21991
862.58	21854
862.712	21576
862.844	21694
862.976	21751
863.108	21660
863.24	22044
863.372	21648
863.504	21606
863.636	21591
863.768	21663
863.9	21595
864.032	21587
864.164	21618
864.296	21717
864.428	21793
864.559	21694
864.691	21595
864.823	21564
864.954	21667
865.086	21603
865.217	21515
865.349	21469
865.48	21443
865.612	21435
865.743	21637
865.875	21549
866.006	21355
866.137	21564
866.269	21443
866.4	21458
866.531	21416
866.662	21466
866.793	21386
866.924	21439
867.055	21408
867.186	21374
867.317	21325
867.448	21397
867.579	21378
867.71	21485
867.841	21260
867.972	21469
868.103	21485
868.233	21447
868.364	21424
868.495	21500
868.625	21557
868.756	21720
868.886	21644
869.017	21701
869.147	21907
869.278	21778
869.408	21743
869.539	21675
869.669	21816
869.799	21808
869.929	21888
870.06	21774
870.19	22013
870.32	22147
870.45	21934
870.58	22093
870.71	22188
870.84	22181
870.97	22070
871.1	22150
871.23	22257
871.36	22230
871.489	22226
871.619	22215
871.749	22360
871.879	22230
872.008	22310
872.138	22223
872.267	22287
872.397	22166
872.526	22101
872.656	22059
872.785	22131
872.915	22272
873.044	22367
873.173	22207
873.303	22329
873.432	22306
873.561	22409
873.69	22329
873.819	22303
873.948	22367
874.077	22325
874.206	22295
874.335	22246
874.464	22325
874.593	22580
874.722	22356
874.851	22656
874.979	22546
875.108	22569
875.237	22481
875.365	22375
875.494	22413
875.623	22653
875.751	22626
875.88	22611
876.008	22561
876.136	22729
876.265	23029
876.393	23033
876.521	22896
876.65	23003
876.778	23056
876.906	22850
877.034	22809
877.162	22809
877.29	22828
877.418	22869
877.546	22965
877.674	22854
877.802	22938
877.93	22900
878.058	22847
878.185	22733
878.313	22892
878.441	22843
878.568	22721
878.696	22801
878.824	22908
878.951	22889
879.079	23052
879.206	23102
879.333	22984
879.461	22923
879.588	23060
879.715	22968
879.842	23098
879.97	22892
880.097	22752
880.224	22717
880.351	22717
880.478	22698
880.605	22729
880.732	22607
880.859	22885
880.986	22755
881.112	22767
881.239	22470
881.366	22360
881.493	22421
881.619	22261
881.746	22200
881.872	22253
881.999	22268
882.125	22196
882.252	22341
882.378	22242
882.505	22386
882.631	22040
882.757	21987
882.883	21979
883.01	21903
883.136	21926
883.262	21804
883.388	21679
883.514	21865
883.64	22006
883.766	21930
883.892	21698
884.018	21648
884.143	21857
884.269	21918
884.395	21633
884.52	21557
884.646	21637
884.772	21618
884.897	21431
885.023	21557
885.148	21633
885.274	21732
885.399	21572
885.524	21622
885.65	21663
885.775	21641
885.9	21420
886.025	21580
886.15	21595
886.275	21591
886.4	21469
886.525	21625
886.65	21500
886.775	21393
886.9	21644
887.025	21682
887.149	21523
887.274	21310
887.399	21332
887.523	21279
887.648	21329
887.773	21222
887.897	21332
888.021	21397
888.146	21287
888.27	21382
888.395	21424
888.519	21275
888.643	21359
888.767	21469
888.891	21233
889.015	21096
889.139	21207
889.263	20998
889.387	21157
889.511	21382
889.635	21195
889.759	21237
889.883	21123
890.006	21127
890.13	21298
890.254	21104
890.377	21074
890.501	20788
890.624	20781
890.748	20971
890.871	20826
890.995	20621
891.118	20545
891.241	20686
891.364	20682
891.488	20800
891.611	20644
891.734	20743
891.857	20640
891.98	20632
892.103	20689
892.226	20613
892.349	20590
892.471	20549
892.594	20575
892.717	20629
892.839	20499
892.962	20587
893.085	20644
893.207	20552
893.33	20587
893.452	20465
893.575	20682
893.697	20541
893.819	20800
893.941	20868
894.064	20708
894.186	20503
894.308	20511
894.43	20678
894.552	20659
894.674	20727
894.796	20457
894.918	20651
895.04	20434
895.161	20678
895.283	20545
895.405	20400
895.526	20552
895.648	20484
895.769	20621
895.891	20648
896.012	20678
896.134	20571
896.255	20609
896.376	20541
896.498	20583
896.619	20621
896.74	20518
896.861	20556
896.982	20872
897.103	21051
897.224	20952
897.345	20708
897.466	20792
897.587	20788
897.708	20849
897.828	20735
897.949	20819
898.07	20598
898.19	20746
898.311	20887
898.431	20579
898.552	20788
898.672	20804
898.792	20853
898.913	20887
899.033	20716
899.153	20625
899.273	20431
899.393	20579
899.513	20495
899.633	20507
899.753	20609
899.873	20545
899.993	20465
900.113	20632
900.232	20533
900.352	20476
900.472	20374
900.591	20362
900.711	20412
900.83	20305
900.95	20408
901.069	20393
901.189	20157
901.308	19959
901.427	19902
901.546	19909
901.665	19989
901.784	19921
901.904	19704
902.023	19685
902.141	19449
902.26	19487
902.379	19567
902.498	19274
902.617	19381
902.735	19453
902.854	19308
902.973	19266
903.091	19187
903.21	19114
903.328	19000
903.446	18920
903.565	18909
903.683	18779
903.801	18734
903.919	18783
904.038	18795
904.156	18635
904.274	18726
904.392	18646
904.51	18544
904.627	18654
904.745	18692
904.863	18574
904.981	18388
905.098	18270
905.216	18277
905.334	18350
905.451	18319
905.569	18270
905.686	18338
905.803	18334
905.921	18011
906.038	18178
906.155	18041
906.272	17946
906.389	17992
906.506	17908
906.623	17836
906.74	17843
906.857	17718
906.974	17783
907.091	17878
907.208	18022
907.324	17885
907.441	17741
907.557	17642
907.674	17543
907.79	17509
907.907	17455
908.023	17486
908.139	17474
908.256	17376
908.372	17429
908.488	17337
908.604	17250
908.72	17155
908.836	17216
908.952	17258
909.068	17223
909.184	17364
909.3	17220
909.415	17220
909.531	17197
909.647	17041
909.762	16991
909.878	16919
909.993	16877
910.108	16942
910.224	16850
910.339	16911
910.454	16733
910.57	16740
910.685	16710
910.8	16942
910.915	16850
911.03	16801
911.145	16645
911.259	16592
911.374	16542
911.489	16470
911.604	16390
911.718	16139
911.833	16280
911.947	16093
912.062	16124
912.176	16215
912.291	16253
912.405	16303
912.519	16512
912.633	16337
912.748	16192
912.862	16265
912.976	16162
913.09	15975
913.204	16116
913.318	16112
913.431	16242
913.545	16173
913.659	16211
913.772	15865
913.886	15987
914	15865
914.113	15968
914.226	15975
914.34	15895
914.453	15759
914.566	15953
914.68	15686
914.793	15762
914.906	15641
915.019	15447
915.132	15412
915.245	15450
915.358	15519
915.47	15542
915.583	15492
915.696	15424
915.809	15492
915.921	15595
916.034	15504
916.146	15325
916.259	15408
916.371	15397
916.483	15397
916.595	15203
916.708	15313
916.82	15298
916.932	15302
917.044	15294
917.156	15214
917.268	15146
917.38	15089
917.491	15127
917.603	15161
917.715	15211
917.826	15142
917.938	14979
918.049	14929
918.161	15081
918.272	15104
918.384	15047
918.495	15081
918.606	14933
918.717	14815
918.828	14864
918.939	14960
919.05	14788
919.161	14857
919.272	14716
919.383	14727
919.494	14899
919.604	15066
919.715	14819
919.826	14739
919.936	14849
920.047	14910
920.157	14963
920.267	15009
920.378	14815
920.488	14891
920.598	14998
920.708	15119
920.818	14914
920.928	14963
921.038	15123
921.148	15051
921.258	14834
921.368	14663
921.477	14621
921.587	14495
921.697	14400
921.806	14625
921.916	14450
922.025	14157
922.134	14225
922.244	14202
922.353	14290
922.462	14157
922.571	14054
922.68	13841
922.789	13746
922.898	13712
923.007	13811
923.116	13788
923.224	13822
923.333	13757
923.442	13784
923.55	13594
923.659	13738
923.767	13715
923.876	13487
923.984	13715
924.092	13586
924.201	13533
924.309	13578
924.417	13533
924.525	13434
924.633	13457
924.741	14275
924.849	13354
924.956	13434
925.064	13255
925.172	13145
925.279	13187
925.387	13259
925.494	13270
925.602	13343
925.709	13225
925.816	13137
925.924	13168
926.031	13251
926.138	13194
926.245	13213
926.352	13122
926.459	13164
926.566	13236
926.673	13206
926.779	12943
926.886	13004
926.993	12954
927.099	12776
927.206	12753
927.312	12768
927.419	12890
927.525	12768
927.631	12779
927.737	12589
927.843	12654
927.95	12502
928.056	12677
928.162	12608
928.267	12703
928.373	13297
928.479	12719
928.585	12494
928.69	12490
928.796	12627
928.901	12429
929.007	12353
929.112	12445
929.218	12372
929.323	12342
929.428	12315
929.533	12384
929.638	12213
929.743	12334
929.848	12334
929.953	12235
930.058	12224
930.163	12041
930.267	11965
930.372	12106
930.477	11984
930.581	12197
930.685	12060
930.79	11855
930.894	11946
930.998	11863
931.103	12057
931.207	11649
931.311	11600
931.415	11379
931.519	11356
931.623	11258
