Data from test_V78500241_2619.txt Node
Date: Fri Mar 25 15:59:56 CST 2022
User: usil
Spectrometer: V785-0024
Trigger mode: 0
Integration Time (sec): 4.000000E-1
Scans to average: 1
Nonlinearity correction enabled: false
Boxcar width: 0
Storing dark spectrum: false
XAxis mode: Wavelengths
Number of Pixels in Spectrum: 1024
>>>>>Begin Spectral Data<<<<<
801.071	29041
801.214	28972
801.356	28816
801.499	28679
801.641	28538
801.783	28596
801.926	28641
802.068	28622
802.211	28569
802.353	28325
802.496	28375
802.638	28291
802.78	28196
802.923	28207
803.065	28029
803.208	28185
803.35	28322
803.492	28436
803.635	28508
803.777	28413
803.919	28554
804.061	28915
804.204	28618
804.346	28474
804.488	28554
804.63	28653
804.773	28405
804.915	28672
805.057	28626
805.199	28569
805.341	28721
805.483	28706
805.626	28748
805.768	28664
805.91	28679
806.052	28660
806.194	28569
806.336	28839
806.478	28752
806.62	28733
806.762	28752
806.904	28953
807.046	29334
807.188	29231
807.33	29143
807.472	29406
807.614	29220
807.756	29117
807.898	29079
808.04	28858
808.182	28991
808.324	28995
808.465	29193
808.607	29322
808.749	29311
808.891	29486
809.033	29554
809.174	29467
809.316	29512
809.458	29364
809.6	29482
809.741	29581
809.883	29657
810.025	29870
810.166	29729
810.308	29570
810.45	29703
810.591	29516
810.733	29280
810.875	29490
811.016	29368
811.158	29334
811.299	29531
811.441	29680
811.582	29661
811.724	29570
811.865	29303
812.007	29539
812.148	29414
812.29	29562
812.431	29672
812.573	29748
812.714	29828
812.855	29973
812.997	29965
813.138	30174
813.279	29942
813.421	30022
813.562	29901
813.703	29824
813.845	29691
813.986	29372
814.127	29311
814.268	29280
814.41	29151
814.551	29136
814.692	29239
814.833	29170
814.974	29200
815.115	29246
815.256	29041
815.397	29010
815.539	29090
815.68	28885
815.821	28938
815.962	29067
816.103	28930
816.244	28763
816.385	28725
816.526	28577
816.666	28569
816.807	28478
816.948	28565
817.089	28546
817.23	28512
817.371	28516
817.512	28481
817.653	28417
817.793	28466
817.934	28565
818.075	28466
818.216	28512
818.356	28421
818.497	28360
818.638	28246
818.778	28131
818.919	28200
819.06	28291
819.2	28390
819.341	28462
819.481	28561
819.622	28717
819.762	28919
819.903	28809
820.043	28660
820.184	28626
820.324	28698
820.465	28645
820.605	28653
820.746	28641
820.886	28516
821.026	28637
821.167	28523
821.307	28637
821.447	28504
821.588	28348
821.728	28306
821.868	28173
822.008	28040
822.149	28086
822.289	27907
822.429	27789
822.569	27682
822.709	27736
822.849	27576
822.99	27557
823.13	27454
823.27	27332
823.41	27230
823.55	27260
823.69	27275
823.83	27431
823.97	27317
824.11	27070
824.25	27096
824.389	27169
824.529	27195
824.669	27165
824.809	27222
824.949	27340
825.089	27233
825.228	27256
825.368	26956
825.508	27032
825.648	26937
825.787	27142
825.927	27116
826.067	26899
826.206	27066
826.346	27058
826.485	27024
826.625	27020
826.765	27138
826.904	27157
827.044	26830
827.183	26781
827.323	26727
827.462	26689
827.601	26815
827.741	26682
827.88	26773
828.02	26533
828.159	26765
828.298	26777
828.437	26785
828.577	26750
828.716	26842
828.855	26640
828.994	26453
829.134	26438
829.273	26332
829.412	26419
829.551	26377
829.69	26457
829.829	26503
829.968	26621
830.107	26545
830.246	26431
830.385	26259
830.524	26298
830.663	26103
830.802	26084
830.941	26020
831.08	26062
831.219	26062
831.357	26130
831.496	26301
831.635	26202
831.774	26107
831.913	25909
832.051	25879
832.19	25860
832.329	25830
832.467	25613
832.606	25712
832.744	25674
832.883	25761
833.022	25791
833.16	25620
833.299	25898
833.437	25841
833.576	25837
833.714	25750
833.852	25849
833.991	25670
834.129	25856
834.267	25864
834.406	25837
834.544	25818
834.682	25731
834.821	25734
834.959	25909
835.097	25731
835.235	25799
835.373	25670
835.511	25712
835.65	25639
835.788	25609
835.926	25620
836.064	25362
836.202	25407
836.34	25643
836.478	25609
836.615	25677
836.753	25556
836.891	25780
837.029	25719
837.167	25578
837.305	25438
837.443	25434
837.58	25403
837.718	25483
837.856	25487
837.993	25247
838.131	25396
838.269	25244
838.406	25365
838.544	25168
838.681	25072
838.819	24954
838.956	24825
839.094	24875
839.231	24932
839.369	25133
839.506	25225
839.643	25145
839.781	24958
839.918	24875
840.055	24894
840.193	24798
840.33	24654
840.467	24863
840.604	24776
840.742	25046
840.879	24673
841.016	24703
841.153	24681
841.29	24867
841.427	24650
841.564	24764
841.701	24848
841.838	24711
841.975	24654
842.112	24661
842.249	24669
842.385	24471
842.522	24661
842.659	24566
842.796	24475
842.933	24547
843.069	24525
843.206	24521
843.343	24551
843.479	24597
843.616	24563
843.752	24422
843.889	24403
844.025	24532
844.162	24384
844.298	24467
844.435	24369
844.571	24369
844.708	24327
844.844	24365
844.98	24414
845.117	24315
845.253	24174
845.389	24083
845.525	24182
845.661	24136
845.798	23939
845.934	23965
846.07	24011
846.206	24079
846.342	24178
846.478	24026
846.614	24038
846.75	23668
846.886	23771
847.022	23653
847.158	23783
847.294	23665
847.429	23802
847.565	23695
847.701	23946
847.837	23448
847.972	23547
848.108	23509
848.244	23585
848.379	23379
848.515	23261
848.65	23261
848.786	23398
848.921	23444
849.057	23356
849.192	23440
849.328	23364
849.463	23364
849.598	23383
849.734	23353
849.869	23288
850.004	23113
850.14	23174
850.275	23098
850.41	23044
850.545	23140
850.68	23083
850.815	23155
850.95	23147
851.085	23376
851.22	23220
851.355	23151
851.49	23067
851.625	23121
851.76	23083
851.895	23048
852.03	23124
852.165	23227
852.299	23258
852.434	23200
852.569	23193
852.703	23197
852.838	23151
852.973	23246
853.107	23242
853.242	23159
853.376	22953
853.511	22736
853.645	22820
853.78	22953
853.914	22866
854.048	22919
854.183	22908
854.317	22953
854.451	23006
854.585	22911
854.72	22843
854.854	23121
854.988	22949
855.122	22999
855.256	22786
855.39	22938
855.524	22911
855.658	22877
855.792	22999
855.926	22934
856.06	22999
856.194	22968
856.327	22839
856.461	22866
856.595	22858
856.729	22927
856.862	23048
856.996	22934
857.13	23060
857.263	22999
857.397	22987
857.53	22949
857.664	22980
857.797	23094
857.931	23048
858.064	23003
858.197	23048
858.331	22843
858.464	22828
858.597	22679
858.731	23033
858.864	22839
858.997	22839
859.13	22938
859.263	22923
859.396	23083
859.529	22869
859.662	22889
859.795	22873
859.928	22847
860.061	23048
860.194	23159
860.327	22942
860.46	22995
860.592	23064
860.725	23056
860.858	23010
860.99	22854
861.123	22862
861.256	22820
861.388	22965
861.521	23646
861.653	22797
861.786	22725
861.918	22729
862.05	22866
862.183	22725
862.315	22942
862.447	22911
862.58	22854
862.712	22573
862.844	22626
862.976	22801
863.108	22630
863.24	23052
863.372	22603
863.504	22588
863.636	22683
863.768	22694
863.9	22710
864.032	22474
864.164	22615
864.296	22710
864.428	22763
864.559	22713
864.691	22626
864.823	22580
864.954	22630
865.086	22569
865.217	22569
865.349	22386
865.48	22443
865.612	22565
865.743	22694
865.875	22500
866.006	22481
866.137	22455
866.269	22398
866.4	22447
866.531	22413
866.662	22500
866.793	22470
866.924	22470
867.055	22542
867.186	22478
867.317	22459
867.448	22375
867.579	22341
867.71	22390
867.841	22303
867.972	22493
868.103	22481
868.233	22451
868.364	22447
868.495	22557
868.625	22672
868.756	22774
868.886	22580
869.017	22809
869.147	22752
869.278	22683
869.408	22649
869.539	22607
869.669	22717
869.799	22782
869.929	22778
870.06	22946
870.19	23025
870.32	22934
870.45	22812
870.58	23124
870.71	23140
870.84	23132
870.97	23010
871.1	23102
871.23	23193
871.36	23273
871.489	23109
871.619	23227
871.749	23280
871.879	23216
872.008	23554
872.138	23292
872.267	23075
872.397	23159
872.526	23037
872.656	23166
872.785	23132
872.915	23296
873.044	23353
873.173	23246
873.303	23376
873.432	23318
873.561	23288
873.69	23254
873.819	23299
873.948	23417
874.077	23303
874.206	23425
874.335	23250
874.464	23448
874.593	23543
874.722	23353
874.851	23611
874.979	23490
875.108	23649
875.237	23360
875.365	23372
875.494	23410
875.623	23471
875.751	23417
875.88	23535
876.008	23543
876.136	23756
876.265	23874
876.393	24026
876.521	23931
876.65	24057
876.778	23935
876.906	23832
877.034	23718
877.162	23824
877.29	23783
877.418	23859
877.546	23802
877.674	23912
877.802	23954
877.93	23805
878.058	23817
878.185	23707
878.313	23783
878.441	23870
878.568	23551
878.696	23714
878.824	23897
878.951	23977
879.079	24030
879.206	24159
879.333	23931
879.461	23840
879.588	23984
879.715	23958
879.842	24110
879.97	23984
880.097	23608
880.224	23695
880.351	23665
880.478	23657
880.605	23619
880.732	23676
880.859	23836
880.986	23627
881.112	23729
881.239	23490
881.366	23254
881.493	23178
881.619	23166
881.746	23220
881.872	23284
881.999	23162
882.125	23193
882.252	23277
882.378	23197
882.505	23292
882.631	22946
882.757	22877
882.883	23132
883.01	22927
883.136	22839
883.262	22752
883.388	22660
883.514	22793
883.64	22900
883.766	22835
883.892	22577
884.018	22694
884.143	22839
884.269	22934
884.395	22470
884.52	22459
884.646	22599
884.772	22394
884.897	22371
885.023	22493
885.148	22596
885.274	22656
885.399	22675
885.524	22550
885.65	22592
885.775	22535
885.9	22516
886.025	22660
886.15	22474
886.275	22459
886.4	22421
886.525	22390
886.65	22455
886.775	22367
886.9	22649
887.025	22649
887.149	22466
887.274	22314
887.399	22215
887.523	22375
887.648	22200
887.773	22116
887.897	22318
888.021	22310
888.146	22234
888.27	22405
888.395	22421
888.519	22253
888.643	22261
888.767	22352
888.891	22143
889.015	22032
889.139	22192
889.263	21972
889.387	22200
889.511	22276
889.635	22105
889.759	21983
889.883	21911
890.006	22128
890.13	22200
890.254	21915
890.377	21899
890.501	21884
890.624	21686
890.748	21869
890.871	21717
890.995	21641
891.118	21553
891.241	21641
891.364	21633
891.488	21755
891.611	21641
891.734	21557
891.857	21660
891.98	21618
892.103	21622
892.226	21709
892.349	21485
892.471	21329
892.594	21530
892.717	21576
892.839	21466
892.962	21500
893.085	21450
893.207	21500
893.33	21325
893.452	21367
893.575	21561
893.697	21386
893.819	21572
893.941	21755
894.064	21743
894.186	21458
894.308	21378
894.43	21549
894.552	21603
894.674	21488
894.796	21382
894.918	21447
895.04	21439
895.161	21629
895.283	21439
895.405	21317
895.526	21439
895.648	21348
895.769	21469
895.891	21511
896.012	21568
896.134	21416
896.255	21458
896.376	21447
896.498	21485
896.619	21389
896.74	21313
896.861	21488
896.982	21778
897.103	21915
897.224	21705
897.345	21644
897.466	21648
897.587	21660
897.708	21770
897.828	21709
897.949	21542
898.07	21500
898.19	21477
898.311	21694
898.431	21542
898.552	21663
898.672	21644
898.792	21564
898.913	21542
899.033	21545
899.153	21382
899.273	21348
899.393	21408
899.513	21302
899.633	21332
899.753	21382
899.873	21264
899.993	21351
900.113	21291
900.232	21260
900.352	21245
900.472	21074
900.591	21096
900.711	21123
900.83	21024
900.95	21214
901.069	21138
901.189	21066
901.308	20864
901.427	20636
901.546	20678
901.665	20739
901.784	20762
901.904	20587
902.023	20526
902.141	20278
902.26	20271
902.379	20252
902.498	20149
902.617	20119
902.735	20157
902.854	20206
902.973	20012
903.091	19982
903.21	19951
903.328	19890
903.446	19666
903.565	19632
903.683	19624
903.801	19506
903.919	19582
904.038	19594
904.156	19362
904.274	19468
904.392	19335
904.51	19343
904.627	19362
904.745	19407
904.863	19320
904.981	19202
905.098	19080
905.216	19031
905.334	19012
905.451	19027
905.569	19031
905.686	19034
905.803	18996
905.921	18795
906.038	18928
906.155	18764
906.272	18791
906.389	18749
906.506	18608
906.623	18509
906.74	18582
906.857	18517
906.974	18506
907.091	18719
907.208	18627
907.324	18620
907.441	18460
907.557	18281
907.674	18228
907.79	18144
907.907	18296
908.023	18338
908.139	18167
908.256	18232
908.372	18152
908.488	18136
908.604	18110
908.72	18007
908.836	18060
908.952	17942
909.068	18003
909.184	18133
909.3	17961
909.415	18049
909.531	17946
909.647	17798
909.762	17794
909.878	17623
909.993	17676
910.108	17592
910.224	17642
910.339	17649
910.454	17554
910.57	17459
910.685	17471
910.8	17649
910.915	17634
911.03	17478
911.145	17280
911.259	17231
911.374	17265
911.489	17204
911.604	17048
911.718	16881
911.833	17041
911.947	16953
912.062	16843
912.176	16991
912.291	17025
912.405	16915
912.519	17140
912.633	17200
912.748	16987
912.862	16938
912.976	16786
913.09	16725
913.204	16839
913.318	16774
913.431	16812
913.545	16847
913.659	16805
913.772	16729
913.886	16561
914	16577
914.113	16698
914.226	16694
914.34	16645
914.453	16451
914.566	16546
914.68	16531
914.793	16424
914.906	16303
915.019	16215
915.132	16101
915.245	16101
915.358	16196
915.47	16055
915.583	16143
915.696	16162
915.809	16272
915.921	16291
916.034	16025
916.146	16059
916.259	15983
916.371	16112
916.483	16105
916.595	16055
916.708	15975
916.82	15888
916.932	15941
917.044	15960
917.156	15819
917.268	15766
917.38	15846
917.491	15709
917.603	15781
917.715	15789
917.826	15850
917.938	15663
918.049	15622
918.161	15675
918.272	15804
918.384	15854
918.495	15759
918.606	15595
918.717	15469
918.828	15648
918.939	15568
919.05	15378
919.161	15424
919.272	15386
919.383	15367
919.494	15534
919.604	15747
919.715	15466
919.826	15401
919.936	15370
920.047	15530
920.157	15405
920.267	15606
920.378	15431
920.488	15393
920.598	15641
920.708	15793
920.818	15526
920.928	15572
921.038	15580
921.148	15648
921.258	15447
921.368	15313
921.477	15256
921.587	15100
921.697	15051
921.806	15173
921.916	15024
922.025	14902
922.134	14796
922.244	14785
922.353	14857
922.462	14697
922.571	14689
922.68	14400
922.789	14347
922.898	14526
923.007	14404
923.116	14484
923.224	14457
923.333	14355
923.442	14218
923.55	14206
923.659	14259
923.767	14328
923.876	14252
923.984	14278
924.092	14191
924.201	14187
924.309	14088
924.417	14123
924.525	14096
924.633	14062
924.741	15013
924.849	13898
924.956	14031
925.064	13685
925.172	13780
925.279	13837
925.387	13784
925.494	13788
925.602	13917
925.709	13864
925.816	13769
925.924	13662
926.031	13845
926.138	13757
926.245	13814
926.352	13624
926.459	13704
926.566	13784
926.673	13636
926.779	13491
926.886	13571
926.993	13396
927.099	13365
927.206	13225
927.312	13228
927.419	13362
927.525	13289
927.631	13324
927.737	13236
927.843	13133
927.95	13061
928.056	13114
928.162	13171
928.267	13190
928.373	13738
928.479	13160
928.585	12916
928.69	13110
928.796	13126
928.901	13046
929.007	12901
929.112	13004
929.218	12954
929.323	12924
929.428	12833
929.533	12935
929.638	12848
929.743	12821
929.848	12772
929.953	12776
930.058	12623
930.163	12528
930.267	12475
930.372	12578
930.477	12464
930.581	12658
930.685	12574
930.79	12414
930.894	12452
930.998	12422
931.103	12502
931.207	12098
931.311	12076
931.415	11904
931.519	11798
931.623	11668
