Data from test_V78500241_406.txt Node
Date: Fri Mar 25 15:44:36 CST 2022
User: usil
Spectrometer: V785-0024
Trigger mode: 0
Integration Time (sec): 4.000000E-1
Scans to average: 1
Nonlinearity correction enabled: false
Boxcar width: 0
Storing dark spectrum: false
XAxis mode: Wavelengths
Number of Pixels in Spectrum: 1024
>>>>>Begin Spectral Data<<<<<
801.071	28740
801.214	28801
801.356	28401
801.499	28443
801.641	28390
801.783	28314
801.926	28371
802.068	28329
802.211	28219
802.353	28211
802.496	28059
802.638	28040
802.78	28013
802.923	27975
803.065	27865
803.208	27922
803.35	28002
803.492	28044
803.635	28051
803.777	28059
803.919	28181
804.061	28390
804.204	28246
804.346	28158
804.488	28097
804.63	28200
804.773	27975
804.915	28135
805.057	28306
805.199	28090
805.341	28181
805.483	28261
805.626	28257
805.768	28059
805.91	28261
806.052	28150
806.194	28112
806.336	28531
806.478	28211
806.62	28287
806.762	28360
806.904	28512
807.046	28694
807.188	28611
807.33	28687
807.472	28691
807.614	28626
807.756	28584
807.898	28516
808.04	28417
808.182	28443
808.324	28542
808.465	28538
808.607	28675
808.749	28888
808.891	28930
809.033	29067
809.174	28927
809.316	28869
809.458	28923
809.6	28915
809.741	28942
809.883	28915
810.025	29178
810.166	29174
810.308	29136
810.45	29113
810.591	29265
810.733	28923
810.875	28987
811.016	28733
811.158	28672
811.299	28873
811.441	29041
811.582	28984
811.724	28729
811.865	28839
812.007	28862
812.148	28946
812.29	28896
812.431	29098
812.573	29315
812.714	29360
812.855	29254
812.997	29516
813.138	29596
813.279	29425
813.421	29387
813.562	29440
813.703	29105
813.845	28968
813.986	28717
814.127	28569
814.268	28470
814.41	28493
814.551	28417
814.692	28493
814.833	28478
814.974	28371
815.115	28508
815.256	28299
815.397	28329
815.539	28489
815.68	28394
815.821	28207
815.962	28207
816.103	28238
816.244	28074
816.385	28086
816.526	28090
816.666	27998
816.807	27663
816.948	27762
817.089	27869
817.23	27747
817.371	27743
817.512	27656
817.653	27739
817.793	27641
817.934	27861
818.075	27755
818.216	27804
818.356	27812
818.497	27561
818.638	27420
818.778	27618
818.919	27405
819.06	27477
819.2	27667
819.341	27800
819.481	27709
819.622	27918
819.762	28036
819.903	27960
820.043	27846
820.184	27873
820.324	27629
820.465	27827
820.605	27937
820.746	27835
820.886	27629
821.026	27675
821.167	27747
821.307	27854
821.447	27679
821.588	27637
821.728	27386
821.868	27431
822.008	27154
822.149	27154
822.289	27157
822.429	26815
822.569	26845
822.709	26838
822.849	26735
822.99	26663
823.13	26442
823.27	26648
823.41	26480
823.55	26267
823.69	26476
823.83	26480
823.97	26355
824.11	26313
824.25	26259
824.389	26275
824.529	26370
824.669	26415
824.809	26438
824.949	26282
825.089	26347
825.228	26259
825.368	26084
825.508	26054
825.648	26142
825.787	26115
825.927	26077
826.067	26001
826.206	26115
826.346	26176
826.485	26138
826.625	26073
826.765	26259
826.904	26115
827.044	25818
827.183	25830
827.323	25780
827.462	25890
827.601	25742
827.741	25856
827.88	25784
828.02	25731
828.159	25757
828.298	25807
828.437	25803
828.577	25689
828.716	25833
828.855	25696
828.994	25639
829.134	25525
829.273	25491
829.412	25400
829.551	25384
829.69	25499
829.829	25457
829.968	25571
830.107	25559
830.246	25556
830.385	25381
830.524	25324
830.663	25217
830.802	25244
830.941	25057
831.08	24821
831.219	25015
831.357	25095
831.496	25187
831.635	25057
831.774	24928
831.913	24996
832.051	24692
832.19	24798
832.329	24810
832.467	24726
832.606	24684
832.744	24646
832.883	24601
833.022	24623
833.16	24700
833.299	24719
833.437	24661
833.576	24669
833.714	24601
833.852	24734
833.991	24753
834.129	24787
834.267	24798
834.406	24715
834.544	24825
834.682	24677
834.821	24715
834.959	24833
835.097	24700
835.235	24741
835.373	24741
835.511	24688
835.65	24479
835.788	24589
835.926	24460
836.064	24304
836.202	24365
836.34	24677
836.478	24593
836.615	24532
836.753	24521
836.891	24547
837.029	24578
837.167	24376
837.305	24338
837.443	24384
837.58	24296
837.718	24399
837.856	24376
837.993	24258
838.131	24330
838.269	24228
838.406	24319
838.544	24292
838.681	24003
838.819	23935
838.956	23878
839.094	23779
839.231	23832
839.369	23889
839.506	24251
839.643	24167
839.781	23764
839.918	23726
840.055	23676
840.193	23817
840.33	23726
840.467	23764
840.604	23779
840.742	24022
840.879	23661
841.016	23653
841.153	23672
841.29	23805
841.427	23577
841.564	23889
841.701	23600
841.838	23718
841.975	23512
842.112	23520
842.249	23421
842.385	23364
842.522	23581
842.659	23497
842.796	23303
842.933	23425
843.069	23265
843.206	23258
843.343	23429
843.479	23414
843.616	23376
843.752	23189
843.889	23178
844.025	23360
844.162	22987
844.298	23254
844.435	23086
844.571	23109
844.708	23178
844.844	23246
844.98	23299
845.117	23204
845.253	23079
845.389	23010
845.525	23128
845.661	22949
845.798	22949
845.934	22782
846.07	23022
846.206	22949
846.342	22911
846.478	22953
846.614	22634
846.75	22573
846.886	22519
847.022	22664
847.158	22664
847.294	22584
847.429	22672
847.565	22683
847.701	22820
847.837	22207
847.972	22428
848.108	22432
848.244	22310
848.379	22246
848.515	22162
848.65	22257
848.786	22166
848.921	22265
849.057	22207
849.192	22314
849.328	22177
849.463	22211
849.598	22166
849.734	22120
849.869	22215
850.004	22002
850.14	21930
850.275	21915
850.41	21873
850.545	21724
850.68	21816
850.815	21987
850.95	21953
851.085	21960
851.22	21956
851.355	21899
851.49	21785
851.625	21842
851.76	21880
851.895	21819
852.03	21861
852.165	21903
852.299	21972
852.434	22105
852.569	21998
852.703	21861
852.838	21922
852.973	21956
853.107	22029
853.242	21770
853.376	21736
853.511	21564
853.645	21797
853.78	21873
853.914	21762
854.048	21675
854.183	21797
854.317	21827
854.451	21888
854.585	21698
854.72	21690
854.854	21827
854.988	21523
855.122	21705
855.256	21728
855.39	21755
855.524	21785
855.658	21808
855.792	21682
855.926	21774
856.06	21797
856.194	21846
856.327	21789
856.461	21686
856.595	21751
856.729	21888
856.862	21713
856.996	21747
857.13	21762
857.263	21823
857.397	21888
857.53	21770
857.664	21736
857.797	21831
857.931	21717
858.064	21705
858.197	21831
858.331	21766
858.464	21713
858.597	21614
858.731	21713
858.864	21667
858.997	21698
859.13	21701
859.263	21709
859.396	21804
859.529	21781
859.662	21530
859.795	21549
859.928	21641
860.061	21945
860.194	21842
860.327	21690
860.46	21713
860.592	21789
860.725	21823
860.858	21869
860.99	21690
861.123	21606
861.256	21599
861.388	21709
861.521	22379
861.653	21530
861.786	21359
861.918	21545
862.05	21542
862.183	21675
862.315	21762
862.447	21819
862.58	21610
862.712	21477
862.844	21408
862.976	21428
863.108	21393
863.24	21781
863.372	21351
863.504	21389
863.636	21431
863.768	21389
863.9	21424
864.032	21329
864.164	21302
864.296	21450
864.428	21542
864.559	21321
864.691	21496
864.823	21363
864.954	21348
865.086	21298
865.217	21237
865.349	21222
865.48	21298
865.612	21207
865.743	21511
865.875	21256
866.006	21226
866.137	21317
866.269	21317
866.4	21195
866.531	21157
866.662	21256
866.793	21184
866.924	21256
867.055	21173
867.186	21199
867.317	21275
867.448	21070
867.579	21131
867.71	21176
867.841	21211
867.972	21192
868.103	21154
868.233	21230
868.364	21150
868.495	21218
868.625	21332
868.756	21564
868.886	21378
869.017	21374
869.147	21538
869.278	21530
869.408	21485
869.539	21488
869.669	21523
869.799	21332
869.929	21633
870.06	21428
870.19	21709
870.32	21663
870.45	21789
870.58	21838
870.71	21895
870.84	22010
870.97	21785
871.1	21736
871.23	21994
871.36	21949
871.489	21907
871.619	21983
871.749	21994
871.879	22097
872.008	22147
872.138	21975
872.267	22063
872.397	21823
872.526	21926
872.656	21918
872.785	21895
872.915	22116
873.044	22143
873.173	21972
873.303	22116
873.432	22143
873.561	22074
873.69	21937
873.819	21922
873.948	22234
874.077	21991
874.206	21880
874.335	22040
874.464	22188
874.593	22287
874.722	22143
874.851	22333
874.979	22295
875.108	22310
875.237	22181
875.365	22086
875.494	22185
875.623	22341
875.751	22143
875.88	22242
876.008	22440
876.136	22287
876.265	22710
876.393	22744
876.521	22790
876.65	22702
876.778	22656
876.906	22626
877.034	22656
877.162	22554
877.29	22573
877.418	22615
877.546	22634
877.674	22577
877.802	22557
877.93	22694
878.058	22554
878.185	22516
878.313	22569
878.441	22542
878.568	22356
878.696	22630
878.824	22675
878.951	22710
879.079	22786
879.206	22778
879.333	22881
879.461	22626
879.588	22691
879.715	22725
879.842	22995
879.97	22653
880.097	22409
880.224	22424
880.351	22481
880.478	22500
880.605	22474
880.732	22523
880.859	22622
880.986	22462
881.112	22497
881.239	22314
881.366	22238
881.493	22105
881.619	22093
881.746	22006
881.872	21983
881.999	21876
882.125	21975
882.252	22135
882.378	22044
882.505	22063
882.631	21975
882.757	21770
882.883	21789
883.01	21694
883.136	21599
883.262	21405
883.388	21450
883.514	21850
883.64	21603
883.766	21572
883.892	21507
884.018	21542
884.143	21610
884.269	21724
884.395	21523
884.52	21317
884.646	21393
884.772	21283
884.897	21287
885.023	21378
885.148	21443
885.274	21336
885.399	21363
885.524	21359
885.65	21340
885.775	21298
885.9	21237
886.025	21561
886.15	21492
886.275	21291
886.4	21321
886.525	21169
886.65	21150
886.775	21241
886.9	21367
887.025	21595
887.149	21287
887.274	21230
887.399	21192
887.523	21032
887.648	20967
887.773	20994
887.897	21142
888.021	21192
888.146	21055
888.27	21192
888.395	21268
888.519	21165
888.643	21188
888.767	21195
888.891	21055
889.015	20902
889.139	20868
889.263	20933
889.387	20960
889.511	21081
889.635	21066
889.759	20944
889.883	20811
890.006	20937
890.13	20921
890.254	20826
890.377	20838
890.501	20670
890.624	20571
890.748	20724
890.871	20499
890.995	20423
891.118	20385
891.241	20427
891.364	20355
891.488	20579
891.611	20476
891.734	20549
891.857	20492
891.98	20381
892.103	20609
892.226	20495
892.349	20362
892.471	20275
892.594	20339
892.717	20362
892.839	20415
892.962	20400
893.085	20396
893.207	20339
893.33	20244
893.452	20313
893.575	20552
893.697	20237
893.819	20457
893.941	20621
894.064	20461
894.186	20355
894.308	20271
894.43	20469
894.552	20476
894.674	20442
894.796	20240
894.918	20427
895.04	20290
895.161	20366
895.283	20404
895.405	20259
895.526	20400
895.648	20282
895.769	20419
895.891	20484
896.012	20419
896.134	20355
896.255	20438
896.376	20271
896.498	20385
896.619	20317
896.74	20488
896.861	20549
896.982	20705
897.103	20781
897.224	20743
897.345	20670
897.466	20434
897.587	20636
897.708	20632
897.828	20613
897.949	20571
898.07	20415
898.19	20492
898.311	20613
898.431	20507
898.552	20590
898.672	20613
898.792	20625
898.913	20594
899.033	20454
899.153	20366
899.273	20298
899.393	20385
899.513	20423
899.633	20442
899.753	20324
899.873	20278
899.993	20434
900.113	20336
900.232	20317
900.352	20252
900.472	20176
900.591	20024
900.711	20187
900.83	20077
900.95	20164
901.069	20172
901.189	20043
901.308	19750
901.427	19586
901.546	19616
901.665	19594
901.784	19666
901.904	19537
902.023	19373
902.141	19297
902.26	19346
902.379	19312
902.498	19293
902.617	19168
902.735	19190
902.854	19213
902.973	19027
903.091	18894
903.21	18856
903.328	18878
903.446	18802
903.565	18601
903.683	18597
903.801	18525
903.919	18631
904.038	18612
904.156	18452
904.274	18395
904.392	18467
904.51	18403
904.627	18384
904.745	18403
904.863	18403
904.981	18258
905.098	18121
905.216	18091
905.334	18098
905.451	18190
905.569	17935
905.686	18129
905.803	18030
905.921	17847
906.038	17920
906.155	17893
906.272	17726
906.389	17722
906.506	17611
906.623	17630
906.74	17570
906.857	17459
906.974	17417
907.091	17604
907.208	17608
907.324	17630
907.441	17421
907.557	17391
907.674	17269
907.79	17181
907.907	17242
908.023	17223
908.139	17296
908.256	17265
908.372	17204
908.488	17242
908.604	17025
908.72	16854
908.836	17014
908.952	16854
909.068	16938
909.184	17143
909.3	16942
909.415	16995
909.531	17018
909.647	16713
909.762	16615
909.878	16710
909.993	16698
910.108	16584
910.224	16649
910.339	16599
910.454	16649
910.57	16569
910.685	16443
910.8	16702
910.915	16664
911.03	16535
911.145	16295
911.259	16261
911.374	16291
911.489	16291
911.604	16109
911.718	15972
911.833	16002
911.947	15983
912.062	15949
912.176	15911
912.291	16055
912.405	15926
912.519	16124
912.633	16276
912.748	16082
912.862	15915
912.976	15785
913.09	15785
913.204	15660
913.318	15899
913.431	15991
913.545	15816
913.659	15857
913.772	15819
913.886	15557
914	15633
914.113	15584
914.226	15823
914.34	15743
914.453	15553
914.566	15698
914.68	15557
914.793	15466
914.906	15344
915.019	15222
915.132	15195
915.245	15199
915.358	15184
915.47	15165
915.583	15176
915.696	15173
915.809	15249
915.921	15317
916.034	15237
916.146	15112
916.259	15009
916.371	15127
916.483	15207
916.595	14971
916.708	15119
916.82	15024
916.932	14960
917.044	14990
917.156	15047
917.268	14834
917.38	14933
917.491	14811
917.603	14887
917.715	14914
917.826	14975
917.938	14857
918.049	14667
918.161	14819
918.272	14914
918.384	14982
918.495	14861
918.606	14769
918.717	14473
918.828	14610
918.939	14697
919.05	14514
919.161	14571
919.272	14408
919.383	14434
919.494	14648
919.604	14777
919.715	14545
919.826	14564
919.936	14473
920.047	14583
920.157	14552
920.267	14739
920.378	14587
920.488	14415
920.598	14800
920.708	14785
920.818	14762
920.928	14693
921.038	14853
921.148	14868
921.258	14549
921.368	14381
921.477	14339
921.587	14256
921.697	14180
921.806	14336
921.916	14168
922.025	13986
922.134	13936
922.244	13928
922.353	13997
922.462	13837
922.571	13746
922.68	13628
922.789	13662
922.898	13597
923.007	13594
923.116	13597
923.224	13518
923.333	13556
923.442	13457
923.55	13525
923.659	13384
923.767	13487
923.876	13438
923.984	13419
924.092	13312
924.201	13365
924.309	13304
924.417	13369
924.525	13308
924.633	13320
924.741	14065
924.849	13042
924.956	13312
925.064	13053
925.172	12947
925.279	12954
925.387	13050
925.494	13000
925.602	13164
925.709	13023
925.816	12962
925.924	13019
926.031	13129
926.138	12935
926.245	13008
926.352	12886
926.459	12985
926.566	13046
926.673	12935
926.779	12821
926.886	12776
926.993	12616
927.099	12654
927.206	12582
927.312	12536
927.419	12635
927.525	12608
927.631	12597
927.737	12338
927.843	12528
927.95	12327
928.056	12384
928.162	12372
928.267	12452
928.373	13217
928.479	12475
928.585	12270
928.69	12369
928.796	12414
928.901	12216
929.007	12125
929.112	12247
929.218	12304
929.323	12140
929.428	12171
929.533	12258
929.638	12072
929.743	12057
929.848	12163
929.953	12083
930.058	12026
930.163	11786
930.267	11817
930.372	11977
930.477	11775
930.581	12079
930.685	11843
930.79	11665
930.894	11760
930.998	11710
931.103	11824
931.207	11493
931.311	11372
931.415	11356
931.519	11121
931.623	11052
