Data from test_V78500241_1142.txt Node
Date: Fri Mar 25 15:49:42 CST 2022
User: usil
Spectrometer: V785-0024
Trigger mode: 0
Integration Time (sec): 4.000000E-1
Scans to average: 1
Nonlinearity correction enabled: false
Boxcar width: 0
Storing dark spectrum: false
XAxis mode: Wavelengths
Number of Pixels in Spectrum: 1024
>>>>>Begin Spectral Data<<<<<
801.071	28413
801.214	28234
801.356	28006
801.499	28086
801.641	27922
801.783	27709
801.926	27949
802.068	27892
802.211	27770
802.353	27857
802.496	27580
802.638	27587
802.78	27507
802.923	27492
803.065	27477
803.208	27599
803.35	27667
803.492	27667
803.635	27759
803.777	27728
803.919	27633
804.061	28051
804.204	27934
804.346	27804
804.488	27698
804.63	27656
804.773	27876
804.915	27819
805.057	27793
805.199	27667
805.341	27907
805.483	27926
805.626	27819
805.768	27736
805.91	27804
806.052	27816
806.194	27869
806.336	28253
806.478	27884
806.62	27850
806.762	27983
806.904	28223
807.046	28535
807.188	28390
807.33	28325
807.472	28421
807.614	28337
807.756	28447
807.898	28120
808.04	28230
808.182	28261
808.324	28238
808.465	28398
808.607	28405
808.749	28565
808.891	28710
809.033	28622
809.174	28683
809.316	28436
809.458	28630
809.6	28672
809.741	28675
809.883	28759
810.025	28866
810.166	28831
810.308	28862
810.45	28911
810.591	28736
810.733	28786
810.875	28615
811.016	28603
811.158	28504
811.299	28615
811.441	28763
811.582	28938
811.724	28706
811.865	28588
812.007	28615
812.148	28649
812.29	28717
812.431	28824
812.573	28957
812.714	29029
812.855	29079
812.997	29288
813.138	29299
813.279	29296
813.421	29193
813.562	29060
813.703	28999
813.845	28873
813.986	28645
814.127	28497
814.268	28379
814.41	28337
814.551	28253
814.692	28394
814.833	28382
814.974	28295
815.115	28310
815.256	28204
815.397	28230
815.539	28303
815.68	28215
815.821	28051
815.962	28223
816.103	28147
816.244	27914
816.385	27956
816.526	28021
816.666	27751
816.807	27599
816.948	27633
817.089	27709
817.23	27713
817.371	27599
817.512	27690
817.653	27800
817.793	27701
817.934	27610
818.075	27614
818.216	27728
818.356	27424
818.497	27511
818.638	27458
818.778	27454
818.919	27287
819.06	27363
819.2	27542
819.341	27739
819.481	27603
819.622	27770
819.762	28150
819.903	27979
820.043	27701
820.184	27698
820.324	27587
820.465	27774
820.605	27743
820.746	27694
820.886	27717
821.026	27694
821.167	27770
821.307	27827
821.447	27701
821.588	27603
821.728	27351
821.868	27287
822.008	27135
822.149	26933
822.289	27138
822.429	26861
822.569	26754
822.709	26857
822.849	26746
822.99	26659
823.13	26492
823.27	26575
823.41	26503
823.55	26412
823.69	26537
823.83	26336
823.97	26400
824.11	26358
824.25	26191
824.389	26267
824.529	26240
824.669	26244
824.809	26423
824.949	26278
825.089	26355
825.228	26313
825.368	26077
825.508	26164
825.648	26130
825.787	26206
825.927	26161
826.067	26092
826.206	26214
826.346	26237
826.485	26324
826.625	26252
826.765	26244
826.904	26138
827.044	25936
827.183	25913
827.323	25826
827.462	25963
827.601	25734
827.741	25963
827.88	25883
828.02	25738
828.159	25845
828.298	25894
828.437	25898
828.577	25849
828.716	25894
828.855	25727
828.994	25559
829.134	25521
829.273	25620
829.412	25533
829.551	25529
829.69	25506
829.829	25628
829.968	25567
830.107	25632
830.246	25487
830.385	25377
830.524	25457
830.663	25263
830.802	25183
830.941	25042
831.08	25194
831.219	25266
831.357	25137
831.496	25438
831.635	25156
831.774	25050
831.913	25027
832.051	24966
832.19	24928
832.329	25034
832.467	24848
832.606	24745
832.744	24738
832.883	24810
833.022	24802
833.16	24901
833.299	24795
833.437	24890
833.576	24882
833.714	24867
833.852	24916
833.991	24996
834.129	24901
834.267	24977
834.406	24901
834.544	24863
834.682	24833
834.821	24795
834.959	25046
835.097	24905
835.235	24909
835.373	24829
835.511	24852
835.65	24764
835.788	24661
835.926	24498
836.064	24509
836.202	24601
836.34	24661
836.478	24764
836.615	24563
836.753	24688
836.891	24859
837.029	24829
837.167	24604
837.305	24703
837.443	24601
837.58	24585
837.718	24517
837.856	24582
837.993	24525
838.131	24429
838.269	24456
838.406	24437
838.544	24407
838.681	24216
838.819	24110
838.956	24041
839.094	23961
839.231	24038
839.369	24216
839.506	24391
839.643	24171
839.781	23992
839.918	23874
840.055	23992
840.193	23980
840.33	23939
840.467	23958
840.604	24011
840.742	24220
840.879	23817
841.016	23847
841.153	23779
841.29	24038
841.427	23965
841.564	23988
841.701	24003
841.838	23836
841.975	23775
842.112	23809
842.249	23691
842.385	23668
842.522	23783
842.659	23687
842.796	23516
842.933	23684
843.069	23600
843.206	23604
843.343	23748
843.479	23608
843.616	23680
843.752	23368
843.889	23410
844.025	23520
844.162	23398
844.298	23467
844.435	23452
844.571	23303
844.708	23490
844.844	23543
844.98	23634
845.117	23592
845.253	23376
845.389	23345
845.525	23318
845.661	23277
845.798	23261
845.934	23170
846.07	23132
846.206	23223
846.342	23242
846.478	23124
846.614	22957
846.75	22706
846.886	22915
847.022	22938
847.158	22873
847.294	22805
847.429	22877
847.565	22771
847.701	23102
847.837	22721
847.972	22592
848.108	22729
848.244	22713
848.379	22497
848.515	22470
848.65	22474
848.786	22523
848.921	22398
849.057	22557
849.192	22599
849.328	22641
849.463	22538
849.598	22462
849.734	22413
849.869	22367
850.004	22226
850.14	22333
850.275	22386
850.41	22173
850.545	22314
850.68	22249
850.815	22318
850.95	22306
851.085	22371
851.22	22329
851.355	22303
851.49	22192
851.625	22280
851.76	22158
851.895	22234
852.03	22169
852.165	22249
852.299	22200
852.434	22348
852.569	22242
852.703	22280
852.838	22394
852.973	22409
853.107	22409
853.242	22246
853.376	22112
853.511	21945
853.645	21926
853.78	22135
853.914	22082
854.048	21930
854.183	22078
854.317	22086
854.451	22291
854.585	21956
854.72	22082
854.854	22036
854.988	21861
855.122	22185
855.256	21915
855.39	22120
855.524	22090
855.658	22139
855.792	22036
855.926	22120
856.06	22036
856.194	22169
856.327	22044
856.461	21983
856.595	22101
856.729	22086
856.862	22051
856.996	22116
857.13	22055
857.263	22318
857.397	22215
857.53	22044
857.664	22249
857.797	22299
857.931	22166
858.064	22109
858.197	22185
858.331	22032
858.464	21983
858.597	21838
858.731	22021
858.864	21960
858.997	22010
859.13	22063
859.263	22032
859.396	22192
859.529	22116
859.662	22032
859.795	22017
859.928	22086
860.061	22169
860.194	22352
860.327	22093
860.46	22158
860.592	22169
860.725	22173
860.858	22196
860.99	22166
861.123	21991
861.256	21975
861.388	22070
861.521	22797
861.653	22013
861.786	21838
861.918	21857
862.05	21930
862.183	22055
862.315	22040
862.447	21987
862.58	21937
862.712	21884
862.844	21618
862.976	21888
863.108	21876
863.24	22242
863.372	21755
863.504	21797
863.636	21884
863.768	21846
863.9	21816
864.032	21774
864.164	21690
864.296	21755
864.428	21930
864.559	21873
864.691	21781
864.823	21755
864.954	21838
865.086	21751
865.217	21720
865.349	21694
865.48	21652
865.612	21728
865.743	21747
865.875	21637
866.006	21644
866.137	21671
866.269	21625
866.4	21644
866.531	21637
866.662	21622
866.793	21652
866.924	21698
867.055	21663
867.186	21599
867.317	21667
867.448	21549
867.579	21542
867.71	21496
867.841	21530
867.972	21595
868.103	21542
868.233	21526
868.364	21610
868.495	21793
868.625	21812
868.756	21964
868.886	21663
869.017	21854
869.147	21895
869.278	21911
869.408	21880
869.539	21934
869.669	21884
869.799	21816
869.929	21975
870.06	22029
870.19	22166
870.32	22105
870.45	22143
870.58	22207
870.71	22322
870.84	22303
870.97	22265
871.1	22188
871.23	22421
871.36	22466
871.489	22390
871.619	22405
871.749	22451
871.879	22542
872.008	22474
872.138	22382
872.267	22409
872.397	22360
872.526	22211
872.656	22287
872.785	22207
872.915	22409
873.044	22398
873.173	22535
873.303	22478
873.432	22474
873.561	22577
873.69	22497
873.819	22432
873.948	22523
874.077	22573
874.206	22405
874.335	22527
874.464	22607
874.593	22645
874.722	22542
874.851	22824
874.979	22615
875.108	22729
875.237	22577
875.365	22573
875.494	22634
875.623	22721
875.751	22790
875.88	22679
876.008	22782
876.136	22824
876.265	23033
876.393	23132
876.521	23170
876.65	23140
876.778	23052
876.906	22908
877.034	22904
877.162	23052
877.29	22896
877.418	23052
877.546	22999
877.674	22957
877.802	23086
877.93	22976
878.058	22934
878.185	22854
878.313	22972
878.441	22991
878.568	22729
878.696	22828
878.824	23029
878.951	23079
879.079	23155
879.206	23280
879.333	23216
879.461	22873
879.588	23128
879.715	23132
879.842	23326
879.97	23033
880.097	22904
880.224	22824
880.351	22877
880.478	22725
880.605	22816
880.732	22847
880.859	23102
880.986	22786
881.112	22877
881.239	22748
881.366	22580
881.493	22497
881.619	22462
881.746	22474
881.872	22348
881.999	22405
882.125	22421
882.252	22394
882.378	22462
882.505	22500
882.631	22219
882.757	22150
882.883	22219
883.01	22192
883.136	22090
883.262	21975
883.388	21865
883.514	22131
883.64	22078
883.766	21934
883.892	21907
884.018	21785
884.143	21987
884.269	22025
884.395	21892
884.52	21774
884.646	21743
884.772	21732
884.897	21610
885.023	21644
885.148	21759
885.274	21895
885.399	21797
885.524	21743
885.65	21675
885.775	21652
885.9	21637
886.025	21743
886.15	21633
886.275	21736
886.4	21564
886.525	21660
886.65	21694
886.775	21614
886.9	21694
887.025	21861
887.149	21682
887.274	21663
887.399	21511
887.523	21439
887.648	21408
887.773	21492
887.897	21595
888.021	21431
888.146	21462
888.27	21473
888.395	21466
888.519	21420
888.643	21553
888.767	21534
888.891	21321
889.015	21332
889.139	21344
889.263	21291
889.387	21401
889.511	21561
889.635	21344
889.759	21192
889.883	21180
890.006	21241
890.13	21332
890.254	21237
890.377	21188
890.501	21055
890.624	20971
890.748	21001
890.871	20781
890.995	20773
891.118	20872
891.241	20963
891.364	20796
891.488	20986
891.611	20853
891.734	20815
891.857	20830
891.98	20800
892.103	20788
892.226	20792
892.349	20773
892.471	20602
892.594	20750
892.717	20887
892.839	20743
892.962	20731
893.085	20849
893.207	20815
893.33	20689
893.452	20667
893.575	20842
893.697	20670
893.819	20804
893.941	20891
894.064	20796
894.186	20590
894.308	20606
894.43	20750
894.552	20849
894.674	20929
894.796	20617
894.918	20667
895.04	20765
895.161	20792
895.283	20697
895.405	20625
895.526	20743
895.648	20648
895.769	20807
895.891	20663
896.012	20762
896.134	20739
896.255	20720
896.376	20636
896.498	20765
896.619	20739
896.74	20739
896.861	20769
896.982	21093
897.103	21123
897.224	21001
897.345	20891
897.466	20849
897.587	20918
897.708	21077
897.828	21032
897.949	20765
898.07	20781
898.19	20986
898.311	20887
898.431	20792
898.552	20910
898.672	20921
898.792	21017
898.913	20933
899.033	20887
899.153	20758
899.273	20659
899.393	20552
899.513	20689
899.633	20575
899.753	20621
899.873	20625
899.993	20564
900.113	20609
900.232	20575
900.352	20598
900.472	20434
900.591	20408
900.711	20480
900.83	20427
900.95	20587
901.069	20514
901.189	20214
901.308	20084
901.427	19982
901.546	20012
901.665	20020
901.784	19967
901.904	19879
902.023	19742
902.141	19616
902.26	19453
902.379	19639
902.498	19499
902.617	19476
902.735	19445
902.854	19438
902.973	19419
903.091	19099
903.21	19247
903.328	19152
903.446	19053
903.565	18962
903.683	18935
903.801	18783
903.919	18943
904.038	18848
904.156	18738
904.274	18871
904.392	18768
904.51	18681
904.627	18700
904.745	18681
904.863	18734
904.981	18593
905.098	18369
905.216	18410
905.334	18384
905.451	18544
905.569	18243
905.686	18502
905.803	18327
905.921	18114
906.038	18220
906.155	18243
906.272	18049
906.389	18174
906.506	17954
906.623	17992
906.74	17942
906.857	17779
906.974	17901
907.091	18007
907.208	18049
907.324	17786
907.441	17893
907.557	17687
907.674	17581
907.79	17741
907.907	17551
908.023	17691
908.139	17592
908.256	17467
908.372	17463
908.488	17486
908.604	17417
908.72	17280
908.836	17349
908.952	17360
909.068	17345
909.184	17398
909.3	17235
909.415	17376
909.531	17398
909.647	17071
909.762	17022
909.878	17033
909.993	17022
910.108	17113
910.224	16972
910.339	17098
910.454	16934
910.57	16911
910.685	16782
910.8	17124
910.915	16965
911.03	16812
911.145	16812
911.259	16626
911.374	16561
911.489	16512
911.604	16523
911.718	16360
911.833	16424
911.947	16284
912.062	16185
912.176	16466
912.291	16268
912.405	16356
912.519	16588
912.633	16554
912.748	16398
912.862	16314
912.976	16230
913.09	16109
913.204	16090
913.318	16196
913.431	16261
913.545	16219
913.659	16291
913.772	16158
913.886	15994
914	15956
914.113	15975
914.226	16067
914.34	16048
914.453	15934
914.566	15945
914.68	15907
914.793	15812
914.906	15637
915.019	15534
915.132	15523
915.245	15667
915.358	15633
915.47	15614
915.583	15743
915.696	15625
915.809	15717
915.921	15633
916.034	15526
916.146	15496
916.259	15462
916.371	15530
916.483	15454
916.595	15431
916.708	15412
916.82	15435
916.932	15405
917.044	15298
917.156	15374
917.268	15226
917.38	15165
917.491	15237
917.603	15226
917.715	15260
917.826	15416
917.938	15058
918.049	15039
918.161	15066
918.272	15272
918.384	15211
918.495	15203
918.606	14952
918.717	14800
918.828	15051
918.939	14971
919.05	14811
919.161	14990
919.272	14720
919.383	14727
919.494	14990
919.604	15157
919.715	14895
919.826	14902
919.936	14944
920.047	14990
920.157	14963
920.267	15123
920.378	14956
920.488	14880
920.598	15135
920.708	15127
920.818	15017
920.928	15001
921.038	15230
921.148	15119
921.258	14864
921.368	14819
921.477	14590
921.587	14590
921.697	14507
921.806	14735
921.916	14568
922.025	14328
922.134	14259
922.244	14172
922.353	14233
922.462	14183
922.571	14123
922.68	13993
922.789	13928
922.898	13967
923.007	13921
923.116	14024
923.224	13955
923.333	13807
923.442	13849
923.55	13864
923.659	13753
923.767	13807
923.876	13772
923.984	13803
924.092	13685
924.201	13677
924.309	13590
924.417	13723
924.525	13597
924.633	13529
924.741	14305
924.849	13438
924.956	13537
925.064	13373
925.172	13373
925.279	13285
925.387	13324
925.494	13274
925.602	13453
925.709	13327
925.816	13175
925.924	13301
926.031	13324
926.138	13293
926.245	13320
926.352	13145
926.459	13327
926.566	13225
926.673	13152
926.779	13080
926.886	13053
926.993	12935
927.099	12894
927.206	12840
927.312	12814
927.419	12897
927.525	12840
927.631	12852
927.737	12802
927.843	12757
927.95	12570
928.056	12692
928.162	12734
928.267	12730
928.373	13350
928.479	12719
928.585	12521
928.69	12650
928.796	12673
928.901	12635
929.007	12403
929.112	12517
929.218	12467
929.323	12388
929.428	12357
929.533	12642
929.638	12273
929.743	12441
929.848	12429
929.953	12311
930.058	12251
930.163	12087
930.267	12106
930.372	12213
930.477	11992
930.581	12334
930.685	12148
930.79	11992
930.894	11996
930.998	11961
931.103	12163
931.207	11790
931.311	11619
931.415	11528
931.519	11356
931.623	11379
