Data from test_V78500241_1791.txt Node
Date: Fri Mar 25 15:54:12 CST 2022
User: usil
Spectrometer: V785-0024
Trigger mode: 0
Integration Time (sec): 4.000000E-1
Scans to average: 1
Nonlinearity correction enabled: false
Boxcar width: 0
Storing dark spectrum: false
XAxis mode: Wavelengths
Number of Pixels in Spectrum: 1024
>>>>>Begin Spectral Data<<<<<
801.071	28554
801.214	28375
801.356	28246
801.499	28036
801.641	28074
801.783	27846
801.926	28124
802.068	28017
802.211	27937
802.353	27804
802.496	27682
802.638	27614
802.78	27705
802.923	27732
803.065	27534
803.208	27663
803.35	27686
803.492	27751
803.635	27854
803.777	27838
803.919	27934
804.061	28169
804.204	27991
804.346	27937
804.488	27800
804.63	28044
804.773	27903
804.915	27918
805.057	27994
805.199	28025
805.341	28055
805.483	28059
805.626	28128
805.768	27762
805.91	28101
806.052	28086
806.194	27968
806.336	28211
806.478	28101
806.62	28162
806.762	28265
806.904	28150
807.046	28466
807.188	28382
807.33	28382
807.472	28611
807.614	28371
807.756	28569
807.898	28379
808.04	28344
808.182	28173
808.324	28230
808.465	28440
808.607	28626
808.749	28843
808.891	28862
809.033	28923
809.174	28949
809.316	28694
809.458	28763
809.6	28854
809.741	28828
809.883	28869
810.025	29102
810.166	28961
810.308	29022
810.45	28930
810.591	29056
810.733	28729
810.875	28645
811.016	28653
811.158	28584
811.299	28862
811.441	28915
811.582	28927
811.724	28755
811.865	28782
812.007	28767
812.148	28782
812.29	28820
812.431	28881
812.573	29124
812.714	29170
812.855	29284
812.997	29379
813.138	29585
813.279	29410
813.421	29132
813.562	29079
813.703	29064
813.845	29006
813.986	28744
814.127	28493
814.268	28447
814.41	28497
814.551	28398
814.692	28557
814.833	28398
814.974	28398
815.115	28500
815.256	28322
815.397	28314
815.539	28367
815.68	28181
815.821	28238
815.962	28246
816.103	28276
816.244	27987
816.385	28105
816.526	27918
816.666	27770
816.807	27622
816.948	27827
817.089	27827
817.23	27793
817.371	27755
817.512	27698
817.653	27819
817.793	27816
817.934	27778
818.075	27732
818.216	27720
818.356	27682
818.497	27641
818.638	27466
818.778	27336
818.919	27553
819.06	27530
819.2	27583
819.341	27618
819.481	27827
819.622	27998
819.762	28090
819.903	28040
820.043	27994
820.184	27876
820.324	27876
820.465	27884
820.605	27819
820.746	27907
820.886	27637
821.026	27793
821.167	27831
821.307	27884
821.447	27869
821.588	27728
821.728	27610
821.868	27344
822.008	27146
822.149	27222
822.289	27116
822.429	26925
822.569	26826
822.709	26975
822.849	26735
822.99	26823
823.13	26708
823.27	26697
823.41	26609
823.55	26412
823.69	26545
823.83	26606
823.97	26465
824.11	26492
824.25	26408
824.389	26400
824.529	26503
824.669	26328
824.809	26590
824.949	26575
825.089	26575
825.228	26507
825.368	26233
825.508	26313
825.648	26393
825.787	26305
825.927	26404
826.067	26187
826.206	26138
826.346	26301
826.485	26412
826.625	26244
826.765	26290
826.904	26324
827.044	26024
827.183	25978
827.323	25936
827.462	26100
827.601	25982
827.741	26016
827.88	26058
828.02	25894
828.159	25917
828.298	26024
828.437	26119
828.577	25963
828.716	25936
828.855	25837
828.994	25658
829.134	25647
829.273	25594
829.412	25704
829.551	25510
829.69	25620
829.829	25605
829.968	25731
830.107	25738
830.246	25552
830.385	25537
830.524	25651
830.663	25578
830.802	25438
830.941	25160
831.08	25160
831.219	25263
831.357	25392
831.496	25533
831.635	25316
831.774	25297
831.913	25103
832.051	25038
832.19	25084
832.329	25027
832.467	24856
832.606	24977
832.744	24905
832.883	24859
833.022	24981
833.16	24867
833.299	25000
833.437	24920
833.576	24924
833.714	24977
833.852	25076
833.991	24981
834.129	25137
834.267	24962
834.406	24996
834.544	24943
834.682	25015
834.821	24787
834.959	25217
835.097	24947
835.235	24924
835.373	25027
835.511	24966
835.65	24852
835.788	24791
835.926	24715
836.064	24734
836.202	24760
836.34	24962
836.478	24878
836.615	24749
836.753	24745
836.891	24913
837.029	24734
837.167	24791
837.305	24738
837.443	24703
837.58	24563
837.718	24661
837.856	24684
837.993	24566
838.131	24665
838.269	24563
838.406	24604
838.544	24486
838.681	24220
838.819	24258
838.956	24270
839.094	24038
839.231	24087
839.369	24167
839.506	24532
839.643	24441
839.781	24015
839.918	24129
840.055	24178
840.193	24064
840.33	23992
840.467	24026
840.604	24030
840.742	24262
840.879	23920
841.016	23908
841.153	23954
841.29	24232
841.427	24045
841.564	24015
841.701	23965
841.838	23901
841.975	23783
842.112	23950
842.249	23790
842.385	23794
842.522	24129
842.659	23790
842.796	23798
842.933	23627
843.069	23665
843.206	23615
843.343	23843
843.479	23718
843.616	23878
843.752	23497
843.889	23630
844.025	23718
844.162	23467
844.298	23676
844.435	23501
844.571	23398
844.708	23665
844.844	23657
844.98	23657
845.117	23718
845.253	23452
845.389	23520
845.525	23474
845.661	23440
845.798	23277
845.934	23288
846.07	23277
846.206	23227
846.342	23391
846.478	23189
846.614	23060
846.75	22930
846.886	22869
847.022	23060
847.158	23033
847.294	23052
847.429	23170
847.565	23006
847.701	23197
847.837	22748
847.972	22843
848.108	22858
848.244	22672
848.379	22557
848.515	22596
848.65	22592
848.786	22675
848.921	22618
849.057	22793
849.192	22683
849.328	22607
849.463	22481
849.598	22535
849.734	22443
849.869	22375
850.004	22337
850.14	22394
850.275	22417
850.41	22367
850.545	22276
850.68	22367
850.815	22390
850.95	22356
851.085	22557
851.22	22363
851.355	22310
851.49	22291
851.625	22268
851.76	22261
851.895	22333
852.03	22158
852.165	22424
852.299	22363
852.434	22542
852.569	22356
852.703	22280
852.838	22360
852.973	22413
853.107	22398
853.242	22299
853.376	22196
853.511	22090
853.645	22185
853.78	22223
853.914	22177
854.048	22135
854.183	22055
854.317	22131
854.451	22432
854.585	22173
854.72	22265
854.854	22337
854.988	22021
855.122	22135
855.256	22120
855.39	22109
855.524	22249
855.658	22246
855.792	22348
855.926	22207
856.06	22223
856.194	22284
856.327	22154
856.461	22059
856.595	22105
856.729	22128
856.862	22322
856.996	22188
857.13	22341
857.263	22272
857.397	22219
857.53	22230
857.664	22116
857.797	22303
857.931	22276
858.064	22280
858.197	22257
858.331	22169
858.464	21922
858.597	22048
858.731	22086
858.864	22169
858.997	22192
859.13	22234
859.263	22242
859.396	22223
859.529	22181
859.662	22086
859.795	22147
859.928	22215
860.061	22341
860.194	22306
860.327	22158
860.46	22207
860.592	22341
860.725	22367
860.858	22348
860.99	22097
861.123	22135
861.256	22093
861.388	22204
861.521	22972
861.653	22040
861.786	22154
861.918	22051
862.05	22063
862.183	21934
862.315	22173
862.447	22173
862.58	22226
862.712	21800
862.844	21835
862.976	22139
863.108	22017
863.24	22329
863.372	21831
863.504	21838
863.636	21728
863.768	21876
863.9	21873
864.032	21800
864.164	21808
864.296	21930
864.428	21892
864.559	21926
864.691	21918
864.823	21975
864.954	21850
865.086	21770
865.217	21747
865.349	21671
865.48	21774
865.612	21846
865.743	21964
865.875	21781
866.006	21808
866.137	21903
866.269	21751
866.4	21732
866.531	21717
866.662	21675
866.793	21660
866.924	21785
867.055	21720
867.186	21789
867.317	21641
867.448	21542
867.579	21739
867.71	21648
867.841	21663
867.972	21785
868.103	21660
868.233	21717
868.364	21618
868.495	21819
868.625	21899
868.756	22040
868.886	21759
869.017	21926
869.147	21972
869.278	22074
869.408	21975
869.539	21972
869.669	22036
869.799	22048
869.929	22120
870.06	21979
870.19	22188
870.32	22226
870.45	22303
870.58	22211
870.71	22421
870.84	22344
870.97	22375
871.1	22303
871.23	22478
871.36	22523
871.489	22310
871.619	22402
871.749	22592
871.879	22523
872.008	22584
872.138	22592
872.267	22500
872.397	22314
872.526	22360
872.656	22424
872.785	22344
872.915	22565
873.044	22569
873.173	22580
873.303	22649
873.432	22622
873.561	22740
873.69	22557
873.819	22622
873.948	22535
874.077	22535
874.206	22516
874.335	22713
874.464	22683
874.593	22752
874.722	22847
874.851	22706
874.979	22820
875.108	22873
875.237	22763
875.365	22717
875.494	22588
875.623	22828
875.751	22763
875.88	22767
876.008	22847
876.136	22976
876.265	23147
876.393	23280
876.521	23288
876.65	23162
876.778	23048
876.906	23174
877.034	22953
877.162	23094
877.29	23037
877.418	23037
877.546	23048
877.674	23052
877.802	23064
877.93	23079
878.058	23086
878.185	23056
878.313	23033
878.441	23022
878.568	22889
878.696	22938
878.824	23098
878.951	23227
879.079	23318
879.206	23337
879.333	23360
879.461	23124
879.588	23025
879.715	23204
879.842	23349
879.97	23170
880.097	22938
880.224	22862
880.351	22953
880.478	22923
880.605	22877
880.732	22953
880.859	23159
880.986	22908
881.112	22835
881.239	22748
881.366	22691
881.493	22557
881.619	22489
881.746	22592
881.872	22455
881.999	22455
882.125	22489
882.252	22546
882.378	22447
882.505	22557
882.631	22306
882.757	22188
882.883	22135
883.01	22261
883.136	22032
883.262	21941
883.388	22021
883.514	22067
883.64	22124
883.766	22105
883.892	21903
884.018	21987
884.143	22017
884.269	22150
884.395	21934
884.52	21732
884.646	21762
884.772	21713
884.897	21717
885.023	21827
885.148	21888
885.274	22006
885.399	21930
885.524	21823
885.65	21739
885.775	21728
885.9	21694
886.025	21899
886.15	21793
886.275	21660
886.4	21641
886.525	21797
886.65	21751
886.775	21701
886.9	21869
887.025	21968
887.149	21743
887.274	21641
887.399	21504
887.523	21553
887.648	21523
887.773	21523
887.897	21591
888.021	21606
888.146	21553
888.27	21755
888.395	21622
888.519	21542
888.643	21606
888.767	21561
888.891	21405
889.015	21344
889.139	21462
889.263	21260
889.387	21469
889.511	21477
889.635	21496
889.759	21393
889.883	21233
890.006	21302
890.13	21355
890.254	21252
890.377	21142
890.501	21043
890.624	21055
890.748	21203
890.871	20925
890.995	20982
891.118	20838
891.241	20857
891.364	20910
891.488	21017
891.611	20925
891.734	20800
891.857	20864
891.98	20902
892.103	20994
892.226	20933
892.349	20807
892.471	20659
892.594	20933
892.717	20872
892.839	20842
892.962	20891
893.085	20872
893.207	20872
893.33	20823
893.452	20727
893.575	20830
893.697	20785
893.819	20990
893.941	20883
894.064	20853
894.186	20743
894.308	20807
894.43	20830
894.552	20933
894.674	20937
894.796	20746
894.918	20842
895.04	20686
895.161	20769
895.283	20845
895.405	20697
895.526	20830
895.648	20686
895.769	20826
895.891	20777
896.012	20868
896.134	20807
896.255	20716
896.376	20804
896.498	20788
896.619	20826
896.74	20800
896.861	20925
896.982	21150
897.103	21283
897.224	21249
897.345	21051
897.466	20914
897.587	20971
897.708	21165
897.828	21104
897.949	20975
898.07	20883
898.19	21005
898.311	21100
898.431	20834
898.552	20849
898.672	21001
898.792	21093
898.913	21013
899.033	20861
899.153	20781
899.273	20769
899.393	20678
899.513	20739
899.633	20727
899.753	20823
899.873	20689
899.993	20682
900.113	20659
900.232	20735
900.352	20575
900.472	20564
900.591	20476
900.711	20469
900.83	20541
900.95	20549
901.069	20590
901.189	20480
901.308	20214
901.427	20035
901.546	19997
901.665	20024
901.784	20122
901.904	19967
902.023	19940
902.141	19605
902.26	19616
902.379	19693
902.498	19613
902.617	19495
902.735	19704
902.854	19609
902.973	19464
903.091	19354
903.21	19217
903.328	19213
903.446	19198
903.565	19031
903.683	19000
903.801	18954
903.919	18981
904.038	19015
904.156	18806
904.274	18837
904.392	18829
904.51	18760
904.627	18798
904.745	18890
904.863	18837
904.981	18597
905.098	18441
905.216	18483
905.334	18513
905.451	18441
905.569	18448
905.686	18593
905.803	18517
905.921	18330
906.038	18361
906.155	18319
906.272	18194
906.389	18163
906.506	17912
906.623	17973
906.74	17916
906.857	17824
906.974	17931
907.091	18057
907.208	17969
907.324	17977
907.441	17893
907.557	17726
907.674	17733
907.79	17649
907.907	17600
908.023	17748
908.139	17699
908.256	17653
908.372	17680
908.488	17459
908.604	17501
908.72	17395
908.836	17440
908.952	17318
909.068	17387
909.184	17448
909.3	17455
909.415	17269
909.531	17391
909.647	17185
909.762	17170
909.878	17174
909.993	17105
910.108	17060
910.224	16980
910.339	17067
910.454	17045
910.57	16889
910.685	16858
910.8	17071
910.915	17033
911.03	16938
911.145	16831
911.259	16729
911.374	16702
911.489	16725
911.604	16565
911.718	16413
911.833	16310
911.947	16325
912.062	16329
912.176	16538
912.291	16447
912.405	16474
912.519	16698
912.633	16615
912.748	16440
912.862	16280
912.976	16303
913.09	16249
913.204	16219
913.318	16276
913.431	16352
913.545	16295
913.659	16447
913.772	16150
913.886	16048
914	16067
914.113	16147
914.226	16177
914.34	16192
914.453	15953
914.566	16051
914.68	15884
914.793	15838
914.906	15682
915.019	15603
915.132	15580
915.245	15584
915.358	15705
915.47	15675
915.583	15587
915.696	15591
915.809	15705
915.921	15797
916.034	15584
916.146	15526
916.259	15420
916.371	15580
916.483	15591
916.595	15466
916.708	15443
916.82	15439
916.932	15416
917.044	15344
917.156	15325
917.268	15321
917.38	15317
917.491	15275
917.603	15272
917.715	15283
917.826	15332
917.938	15188
918.049	15142
918.161	15157
918.272	15279
918.384	15336
918.495	15161
918.606	15062
918.717	14975
918.828	15005
918.939	15108
919.05	15036
919.161	14982
919.272	14887
919.383	14861
919.494	15081
919.604	15237
919.715	15039
919.826	14872
919.936	14834
920.047	14963
920.157	14986
920.267	15203
920.378	14941
920.488	14914
920.598	15165
920.708	15233
920.818	15150
920.928	15074
921.038	15264
921.148	15184
921.258	14967
921.368	14842
921.477	14746
921.587	14731
921.697	14587
921.806	14727
921.916	14457
922.025	14343
922.134	14339
922.244	14271
922.353	14362
922.462	14206
922.571	14157
922.68	14096
922.789	13940
922.898	14024
923.007	13947
923.116	14069
923.224	13986
923.333	13856
923.442	13830
923.55	13833
923.659	13837
923.767	13852
923.876	13738
923.984	13803
924.092	13681
924.201	13761
924.309	13670
924.417	13746
924.525	13586
924.633	13636
924.741	14275
924.849	13506
924.956	13548
925.064	13411
925.172	13293
925.279	13346
925.387	13419
925.494	13415
925.602	13434
925.709	13419
925.816	13179
925.924	13324
926.031	13411
926.138	13335
926.245	13400
926.352	13304
926.459	13346
926.566	13308
926.673	13263
926.779	13156
926.886	13069
926.993	12958
927.099	12951
927.206	12901
927.312	12928
927.419	12905
927.525	12951
927.631	12916
927.737	12802
927.843	12730
927.95	12688
928.056	12703
928.162	12684
928.267	12772
928.373	13324
928.479	12848
928.585	12566
928.69	12703
928.796	12844
928.901	12502
929.007	12445
929.112	12604
929.218	12623
929.323	12479
929.428	12426
929.533	12578
929.638	12433
929.743	12361
929.848	12407
929.953	12414
930.058	12235
930.163	12140
930.267	12121
930.372	12213
930.477	12034
930.581	12315
930.685	12129
930.79	11973
930.894	11988
930.998	11999
931.103	12155
931.207	11691
931.311	11729
931.415	11581
931.519	11391
931.623	11356
