Data from test_V78500241_226.txt Node
Date: Fri Mar 25 15:43:22 CST 2022
User: usil
Spectrometer: V785-0024
Trigger mode: 0
Integration Time (sec): 4.000000E-1
Scans to average: 1
Nonlinearity correction enabled: false
Boxcar width: 0
Storing dark spectrum: false
XAxis mode: Wavelengths
Number of Pixels in Spectrum: 1024
>>>>>Begin Spectral Data<<<<<
801.071	29140
801.214	29147
801.356	28755
801.499	28748
801.641	28664
801.783	28683
801.926	28809
802.068	28683
802.211	28516
802.353	28493
802.496	28341
802.638	28215
802.78	28325
802.923	28344
803.065	28185
803.208	28177
803.35	28314
803.492	28451
803.635	28341
803.777	28306
803.919	28527
804.061	28816
804.204	28592
804.346	28352
804.488	28322
804.63	28440
804.773	28284
804.915	28310
805.057	28299
805.199	28443
805.341	28592
805.483	28470
805.626	28360
805.768	28268
805.91	28531
806.052	28516
806.194	28470
806.336	28755
806.478	28535
806.62	28672
806.762	28649
806.904	28778
807.046	29052
807.188	28824
807.33	28858
807.472	28961
807.614	28672
807.756	28858
807.898	28672
808.04	28668
808.182	28653
808.324	28816
808.465	28630
808.607	28888
808.749	28946
808.891	29121
809.033	29280
809.174	29098
809.316	29048
809.458	29132
809.6	28991
809.741	29109
809.883	29105
810.025	29345
810.166	29181
810.308	29414
810.45	29353
810.591	29440
810.733	29109
810.875	28968
811.016	28961
811.158	29071
811.299	29189
811.441	29227
811.582	29216
811.724	29162
811.865	28987
812.007	29056
812.148	29079
812.29	29033
812.431	29155
812.573	29421
812.714	29398
812.855	29649
812.997	29805
813.138	29737
813.279	29623
813.421	29592
813.562	29528
813.703	29478
813.845	29254
813.986	28934
814.127	28797
814.268	28622
814.41	28679
814.551	28634
814.692	28759
814.833	28653
814.974	28573
815.115	28637
815.256	28443
815.397	28462
815.539	28489
815.68	28280
815.821	28478
815.962	28489
816.103	28314
816.244	28242
816.385	28234
816.526	28234
816.666	27930
816.807	27880
816.948	27934
817.089	28048
817.23	27854
817.371	27846
817.512	27869
817.653	27831
817.793	27644
817.934	27781
818.075	27914
818.216	27766
818.356	27797
818.497	27572
818.638	27504
818.778	27515
818.919	27488
819.06	27610
819.2	27641
819.341	27717
819.481	27686
819.622	27854
819.762	27964
819.903	28063
820.043	27895
820.184	27869
820.324	27903
820.465	28013
820.605	27884
820.746	27945
820.886	27610
821.026	27766
821.167	27770
821.307	27899
821.447	27747
821.588	27648
821.728	27652
821.868	27412
822.008	27184
822.149	27195
822.289	27195
822.429	26876
822.569	26811
822.709	26853
822.849	26712
822.99	26632
823.13	26526
823.27	26613
823.41	26377
823.55	26320
823.69	26438
823.83	26473
823.97	26271
824.11	26195
824.25	26252
824.389	26290
824.529	26404
824.669	26225
824.809	26415
824.949	26412
825.089	26282
825.228	26343
825.368	26031
825.508	26142
825.648	26168
825.787	26195
825.927	26115
826.067	26221
826.206	26107
826.346	26202
826.485	26092
826.625	26058
826.765	26054
826.904	26130
827.044	25818
827.183	25780
827.323	25674
827.462	25753
827.601	25712
827.741	25795
827.88	25875
828.02	25658
828.159	25639
828.298	25753
828.437	25708
828.577	25594
828.716	25818
828.855	25685
828.994	25392
829.134	25453
829.273	25510
829.412	25438
829.551	25327
829.69	25335
829.829	25472
829.968	25529
830.107	25365
830.246	25449
830.385	25365
830.524	25221
830.663	25225
830.802	25183
830.941	24989
831.08	24890
831.219	25072
831.357	25122
831.496	25175
831.635	24871
831.774	24882
831.913	24897
832.051	24677
832.19	24783
832.329	24749
832.467	24608
832.606	24593
832.744	24563
832.883	24555
833.022	24639
833.16	24673
833.299	24536
833.437	24585
833.576	24646
833.714	24673
833.852	24688
833.991	24791
834.129	24882
834.267	24825
834.406	24593
834.544	24730
834.682	24479
834.821	24601
834.959	24821
835.097	24597
835.235	24502
835.373	24498
835.511	24566
835.65	24376
835.788	24445
835.926	24346
836.064	24277
836.202	24292
836.34	24445
836.478	24597
836.615	24414
836.753	24433
836.891	24498
837.029	24418
837.167	24388
837.305	24353
837.443	24388
837.58	24330
837.718	24467
837.856	24327
837.993	24243
838.131	24273
838.269	24194
838.406	24232
838.544	24079
838.681	23897
838.819	23904
838.956	23722
839.094	23684
839.231	23779
839.369	23992
839.506	24114
839.643	23897
839.781	23767
839.918	23809
840.055	23547
840.193	23528
840.33	23566
840.467	23566
840.604	23570
840.742	23920
840.879	23463
841.016	23478
841.153	23531
841.29	23760
841.427	23543
841.564	23646
841.701	23684
841.838	23505
841.975	23387
842.112	23444
842.249	23448
842.385	23398
842.522	23524
842.659	23474
842.796	23330
842.933	23379
843.069	23189
843.206	23277
843.343	23307
843.479	23155
843.616	23227
843.752	23064
843.889	23075
844.025	23265
844.162	22961
844.298	23159
844.435	23033
844.571	23060
844.708	23022
844.844	23246
844.98	23147
845.117	23132
845.253	23064
845.389	22862
845.525	22987
845.661	22881
845.798	22755
845.934	22835
846.07	22603
846.206	22805
846.342	22908
846.478	22713
846.614	22557
846.75	22440
846.886	22550
847.022	22626
847.158	22390
847.294	22344
847.429	22413
847.565	22440
847.701	22755
847.837	22147
847.972	22158
848.108	22314
848.244	22211
848.379	21960
848.515	22082
848.65	21960
848.786	22013
848.921	22002
849.057	22112
849.192	22067
849.328	21994
849.463	22067
849.598	21956
849.734	21857
849.869	21797
850.004	21778
850.14	21671
850.275	21793
850.41	21743
850.545	21804
850.68	21625
850.815	21793
850.95	21823
851.085	21895
851.22	21854
851.355	21823
851.49	21747
851.625	21732
851.76	21671
851.895	21675
852.03	21705
852.165	21759
852.299	21652
852.434	21759
852.569	21781
852.703	21778
852.838	21698
852.973	21724
853.107	21850
853.242	21667
853.376	21572
853.511	21344
853.645	21507
853.78	21713
853.914	21606
854.048	21515
854.183	21587
854.317	21637
854.451	21785
854.585	21572
854.72	21526
854.854	21641
854.988	21583
855.122	21526
855.256	21374
855.39	21473
855.524	21587
855.658	21595
855.792	21606
855.926	21545
856.06	21538
856.194	21553
856.327	21580
856.461	21515
856.595	21583
856.729	21431
856.862	21633
856.996	21412
857.13	21587
857.263	21675
857.397	21701
857.53	21435
857.664	21526
857.797	21485
857.931	21667
858.064	21473
858.197	21671
858.331	21500
858.464	21462
858.597	21439
858.731	21447
858.864	21389
858.997	21500
859.13	21572
859.263	21481
859.396	21690
859.529	21507
859.662	21374
859.795	21500
859.928	21325
860.061	21629
860.194	21652
860.327	21633
860.46	21408
860.592	21629
860.725	21656
860.858	21618
860.99	21504
861.123	21351
861.256	21348
861.388	21431
861.521	22219
861.653	21325
861.786	21241
861.918	21355
862.05	21447
862.183	21443
862.315	21530
862.447	21629
862.58	21378
862.712	21207
862.844	21157
862.976	21203
863.108	21275
863.24	21519
863.372	20956
863.504	21176
863.636	21203
863.768	21184
863.9	21127
864.032	21062
864.164	21108
864.296	21093
864.428	21245
864.559	21218
864.691	21252
864.823	21249
864.954	21112
865.086	21055
865.217	21112
865.349	21005
865.48	21108
865.612	21154
865.743	21176
865.875	21074
866.006	21020
866.137	21039
866.269	21154
866.4	21066
866.531	21093
866.662	21135
866.793	20948
866.924	20998
867.055	21005
867.186	20979
867.317	20967
867.448	20902
867.579	20982
867.71	20941
867.841	20952
867.972	20929
868.103	20948
868.233	20982
868.364	21009
868.495	21214
868.625	21256
868.756	21222
868.886	21180
869.017	21226
869.147	21325
869.278	21378
869.408	21256
869.539	21230
869.669	21344
869.799	21367
869.929	21401
870.06	21313
870.19	21599
870.32	21526
870.45	21428
870.58	21561
870.71	21785
870.84	21739
870.97	21603
871.1	21587
871.23	21732
871.36	21774
871.489	21637
871.619	21724
871.749	21827
871.879	21808
872.008	21956
872.138	21743
872.267	21812
872.397	21686
872.526	21671
872.656	21652
872.785	21663
872.915	21926
873.044	21937
873.173	21823
873.303	21911
873.432	21888
873.561	21998
873.69	22040
873.819	21819
873.948	22025
874.077	21861
874.206	21812
874.335	21911
874.464	21865
874.593	22185
874.722	22063
874.851	22185
874.979	22021
875.108	22154
875.237	22013
875.365	22036
875.494	22105
875.623	21991
875.751	22131
875.88	22188
876.008	22143
876.136	22268
876.265	22455
876.393	22592
876.521	22542
876.65	22481
876.778	22516
876.906	22466
877.034	22352
877.162	22466
877.29	22303
877.418	22413
877.546	22554
877.674	22280
877.802	22424
877.93	22363
878.058	22421
878.185	22481
878.313	22417
878.441	22348
878.568	22276
878.696	22333
878.824	22500
878.951	22577
879.079	22607
879.206	22835
879.333	22653
879.461	22398
879.588	22607
879.715	22611
879.842	22805
879.97	22474
880.097	22310
880.224	22207
880.351	22356
880.478	22253
880.605	22272
880.732	22242
880.859	22584
880.986	22246
881.112	22325
881.239	22147
881.366	22029
881.493	21857
881.619	21930
881.746	21797
881.872	21934
881.999	21812
882.125	21720
882.252	21838
882.378	21770
882.505	21861
882.631	21720
882.757	21637
882.883	21720
883.01	21583
883.136	21496
883.262	21458
883.388	21348
883.514	21587
883.64	21473
883.766	21515
883.892	21226
884.018	21317
884.143	21435
884.269	21595
884.395	21195
884.52	21138
884.646	21275
884.772	21157
884.897	21089
885.023	21306
885.148	21199
885.274	21310
885.399	21249
885.524	21074
885.65	21161
885.775	21123
885.9	21173
886.025	21298
886.15	21249
886.275	21104
886.4	21146
886.525	21173
886.65	21081
886.775	21119
886.9	21249
887.025	21370
887.149	21017
887.274	20956
887.399	20937
887.523	20963
887.648	20982
887.773	20864
887.897	20994
888.021	20933
888.146	20800
888.27	20960
888.395	20899
888.519	20921
888.643	20861
888.767	20986
888.891	20769
889.015	20750
889.139	20724
889.263	20682
889.387	20811
889.511	20895
889.635	20754
889.759	20777
889.883	20686
890.006	20750
890.13	20777
890.254	20674
890.377	20594
890.501	20434
890.624	20415
890.748	20469
890.871	20385
890.995	20237
891.118	20256
891.241	20259
891.364	20339
891.488	20362
891.611	20278
891.734	20263
891.857	20286
891.98	20313
892.103	20343
892.226	20320
892.349	20218
892.471	20043
892.594	20305
892.717	20275
892.839	20096
892.962	20164
893.085	20328
893.207	20259
893.33	19989
893.452	20119
893.575	20214
893.697	20164
893.819	20237
893.941	20351
894.064	20385
894.186	20275
894.308	20020
894.43	20233
894.552	20252
894.674	20256
894.796	20138
894.918	20134
895.04	20218
895.161	20259
895.283	20305
895.405	20233
895.526	20180
895.648	20115
895.769	20149
895.891	20210
896.012	20324
896.134	20389
896.255	20278
896.376	20210
896.498	20305
896.619	20202
896.74	20214
896.861	20324
896.982	20533
897.103	20716
897.224	20556
897.345	20423
897.466	20393
897.587	20469
897.708	20606
897.828	20526
897.949	20412
898.07	20275
898.19	20259
898.311	20560
898.431	20423
898.552	20374
898.672	20530
898.792	20476
898.913	20404
899.033	20115
899.153	20054
899.273	20039
899.393	20142
899.513	20122
899.633	20107
899.753	20111
899.873	19967
899.993	20054
900.113	19986
900.232	20058
900.352	19989
900.472	20001
900.591	19932
900.711	19963
900.83	19883
900.95	19951
901.069	19997
901.189	19746
901.308	19559
901.427	19384
901.546	19441
901.665	19552
901.784	19559
901.904	19365
902.023	19331
902.141	19122
902.26	19076
902.379	18989
902.498	19034
902.617	18894
902.735	19061
902.854	18958
902.973	18928
903.091	18692
903.21	18658
903.328	18688
903.446	18521
903.565	18536
903.683	18483
903.801	18315
903.919	18319
904.038	18437
904.156	18289
904.274	18262
904.392	18136
904.51	18216
904.627	18224
904.745	18281
904.863	18159
904.981	17961
905.098	17920
905.216	17878
905.334	17870
905.451	17893
905.569	17840
905.686	17946
905.803	17779
905.921	17695
906.038	17687
906.155	17627
906.272	17524
906.389	17600
906.506	17414
906.623	17414
906.74	17417
906.857	17178
906.974	17235
907.091	17398
907.208	17448
907.324	17410
907.441	17261
907.557	17109
907.674	17162
907.79	16991
907.907	17075
908.023	17006
908.139	17041
908.256	17029
908.372	16869
908.488	17003
908.604	16904
908.72	16786
908.836	16710
908.952	16736
909.068	16831
909.184	16847
909.3	16740
909.415	16908
909.531	16752
909.647	16516
909.762	16516
909.878	16417
909.993	16485
910.108	16508
910.224	16440
910.339	16417
910.454	16360
910.57	16329
910.685	16154
910.8	16516
910.915	16409
911.03	16306
911.145	16048
911.259	16067
911.374	16090
911.489	16021
911.604	16048
911.718	15797
911.833	15709
911.947	15781
912.062	15572
912.176	15846
912.291	15842
912.405	15766
912.519	15960
912.633	16006
912.748	15850
912.862	15770
912.976	15603
913.09	15500
913.204	15488
913.318	15523
913.431	15660
913.545	15603
913.659	15633
913.772	15603
913.886	15370
914	15382
914.113	15428
914.226	15587
914.34	15469
914.453	15203
914.566	15435
914.68	15218
914.793	15256
914.906	15047
915.019	15036
915.132	15020
915.245	15009
915.358	15051
915.47	15100
915.583	15009
915.696	15036
915.809	15077
915.921	15123
916.034	14937
916.146	14914
916.259	14887
916.371	15020
916.483	14986
916.595	14807
916.708	14804
916.82	14765
916.932	14880
917.044	14735
917.156	14758
917.268	14640
917.38	14849
917.491	14739
917.603	14705
917.715	14739
917.826	14705
917.938	14564
918.049	14476
918.161	14667
918.272	14842
918.384	14727
918.495	14678
918.606	14415
918.717	14339
918.828	14336
918.939	14549
919.05	14374
919.161	14434
919.272	14286
919.383	14263
919.494	14450
919.604	14598
919.715	14442
919.826	14301
919.936	14370
920.047	14415
920.157	14244
920.267	14613
920.378	14396
920.488	14267
920.598	14480
920.708	14659
920.818	14514
920.928	14476
921.038	14545
921.148	14564
921.258	14374
921.368	14229
921.477	14092
921.587	13970
921.697	13997
921.806	14084
921.916	13925
922.025	13727
922.134	13814
922.244	13727
922.353	13761
922.462	13613
922.571	13445
922.68	13369
922.789	13365
922.898	13354
923.007	13320
923.116	13403
923.224	13343
923.333	13282
923.442	13194
923.55	13194
923.659	13244
923.767	13213
923.876	13126
923.984	13194
924.092	13122
924.201	13107
924.309	13023
924.417	13114
924.525	13004
924.633	13076
924.741	13803
924.849	12844
924.956	12920
925.064	12901
925.172	12776
925.279	12749
925.387	12646
925.494	12844
925.602	12943
925.709	12817
925.816	12688
925.924	12757
926.031	12913
926.138	12722
926.245	12810
926.352	12696
926.459	12776
926.566	12730
926.673	12623
926.779	12547
926.886	12566
926.993	12357
927.099	12395
927.206	12300
927.312	12323
927.419	12399
927.525	12308
927.631	12380
927.737	12281
927.843	12270
927.95	12159
928.056	12243
928.162	12163
928.267	12121
928.373	12878
928.479	12186
928.585	12019
928.69	12140
928.796	12148
928.901	12087
929.007	11885
929.112	12041
929.218	11992
929.323	11931
929.428	11866
929.533	11958
929.638	11836
929.743	11813
929.848	11950
929.953	11885
930.058	11760
930.163	11543
930.267	11585
930.372	11760
930.477	11562
930.581	11691
930.685	11661
930.79	11535
930.894	11516
930.998	11471
931.103	11558
931.207	11201
931.311	11136
931.415	11006
931.519	10854
931.623	10816
