Data from test_V78500241_2331.txt Node
Date: Fri Mar 25 15:57:56 CST 2022
User: usil
Spectrometer: V785-0024
Trigger mode: 0
Integration Time (sec): 4.000000E-1
Scans to average: 1
Nonlinearity correction enabled: false
Boxcar width: 0
Storing dark spectrum: false
XAxis mode: Wavelengths
Number of Pixels in Spectrum: 1024
>>>>>Begin Spectral Data<<<<<
801.071	28927
801.214	28763
801.356	28557
801.499	28531
801.641	28478
801.783	28352
801.926	28634
802.068	28542
802.211	28379
802.353	28466
802.496	28238
802.638	28063
802.78	28162
802.923	28055
803.065	28185
803.208	28299
803.35	28268
803.492	28322
803.635	28485
803.777	28333
803.919	28356
804.061	28691
804.204	28626
804.346	28371
804.488	28306
804.63	28455
804.773	28401
804.915	28459
805.057	28466
805.199	28580
805.341	28573
805.483	28599
805.626	28584
805.768	28493
805.91	28656
806.052	28683
806.194	28755
806.336	28706
806.478	28573
806.62	28512
806.762	28752
806.904	28793
807.046	29064
807.188	29041
807.33	29014
807.472	29197
807.614	29083
807.756	29064
807.898	28816
808.04	28801
808.182	28961
808.324	28900
808.465	28888
808.607	29006
808.749	29280
808.891	29391
809.033	29402
809.174	29353
809.316	29391
809.458	29375
809.6	29246
809.741	29356
809.883	29292
810.025	29505
810.166	29592
810.308	29505
810.45	29615
810.591	29554
810.733	29391
810.875	29440
811.016	29113
811.158	29094
811.299	29353
811.441	29349
811.582	29417
811.724	29410
811.865	29387
812.007	29288
812.148	29265
812.29	29493
812.431	29444
812.573	29729
812.714	29851
812.855	29904
812.997	29843
813.138	30034
813.279	30026
813.421	29961
813.562	29786
813.703	29653
813.845	29455
813.986	29254
814.127	29075
814.268	28984
814.41	29048
814.551	29067
814.692	29056
814.833	28972
814.974	29033
815.115	28999
815.256	28843
815.397	28866
815.539	28904
815.68	28691
815.821	28790
815.962	28919
816.103	28885
816.244	28706
816.385	28710
816.526	28622
816.666	28459
816.807	28314
816.948	28497
817.089	28481
817.23	28417
817.371	28367
817.512	28348
817.653	28169
817.793	28200
817.934	28310
818.075	28306
818.216	28500
818.356	28386
818.497	28246
818.638	28074
818.778	28070
818.919	28204
819.06	28067
819.2	28272
819.341	28223
819.481	28360
819.622	28618
819.762	28679
819.903	28656
820.043	28497
820.184	28447
820.324	28462
820.465	28615
820.605	28474
820.746	28508
820.886	28428
821.026	28318
821.167	28401
821.307	28405
821.447	28337
821.588	28234
821.728	28032
821.868	28036
822.008	27888
822.149	27838
822.289	27724
822.429	27671
822.569	27443
822.709	27450
822.849	27450
822.99	27545
823.13	27363
823.27	27325
823.41	27157
823.55	27112
823.69	27150
823.83	27291
823.97	27062
824.11	26986
824.25	26937
824.389	26891
824.529	27028
824.669	27032
824.809	27207
824.949	27138
825.089	26971
825.228	27043
825.368	26781
825.508	26743
825.648	26895
825.787	26895
825.927	26990
826.067	26853
826.206	26815
826.346	27032
826.485	27001
826.625	26986
826.765	26982
826.904	26960
827.044	26792
827.183	26735
827.323	26640
827.462	26686
827.601	26606
827.741	26476
827.88	26724
828.02	26434
828.159	26560
828.298	26560
828.437	26735
828.577	26541
828.716	26705
828.855	26499
828.994	26389
829.134	26366
829.273	26419
829.412	26343
829.551	26153
829.69	26206
829.829	26282
829.968	26336
830.107	26393
830.246	26343
830.385	26271
830.524	26240
830.663	26122
830.802	25944
830.941	25856
831.08	25864
831.219	25963
831.357	26054
831.496	26191
831.635	25940
831.774	25833
831.913	25715
832.051	25826
832.19	25666
832.329	25719
832.467	25460
832.606	25487
832.744	25426
832.883	25620
833.022	25407
833.16	25571
833.299	25575
833.437	25525
833.576	25635
833.714	25666
833.852	25628
833.991	25719
834.129	25674
834.267	25776
834.406	25578
834.544	25613
834.682	25609
834.821	25624
834.959	25875
835.097	25540
835.235	25655
835.373	25784
835.511	25525
835.65	25468
835.788	25552
835.926	25396
836.064	25194
836.202	25354
836.34	25533
836.478	25666
836.615	25510
836.753	25563
836.891	25537
837.029	25449
837.167	25415
837.305	25400
837.443	25335
837.58	25312
837.718	25331
837.856	25266
837.993	25206
838.131	25160
838.269	25312
838.406	25202
838.544	25095
838.681	25038
838.819	24859
838.956	24730
839.094	24707
839.231	24779
839.369	24837
839.506	25141
839.643	25000
839.781	24745
839.918	24665
840.055	24734
840.193	24696
840.33	24631
840.467	24684
840.604	24669
840.742	24856
840.879	24589
841.016	24639
841.153	24521
841.29	24833
841.427	24677
841.564	24692
841.701	24612
841.838	24597
841.975	24528
842.112	24627
842.249	24479
842.385	24467
842.522	24555
842.659	24479
842.796	24357
842.933	24338
843.069	24422
843.206	24254
843.343	24403
843.479	24388
843.616	24365
843.752	24220
843.889	24079
844.025	24262
844.162	24144
844.298	24327
844.435	24197
844.571	24110
844.708	24125
844.844	24357
844.98	24266
845.117	24369
845.253	24091
845.389	24022
845.525	24030
845.661	24049
845.798	24022
845.934	23942
846.07	23863
846.206	23969
846.342	24057
846.478	23840
846.614	23665
846.75	23657
846.886	23543
847.022	23710
847.158	23665
847.294	23680
847.429	23733
847.565	23630
847.701	23771
847.837	23368
847.972	23284
848.108	23493
848.244	23452
848.379	23185
848.515	23147
848.65	23079
848.786	23216
848.921	23284
849.057	23193
849.192	23204
849.328	23303
849.463	23143
849.598	23098
849.734	23090
849.869	23071
850.004	22961
850.14	23121
850.275	22968
850.41	22828
850.545	22854
850.68	22831
850.815	22889
850.95	22934
851.085	23060
851.22	23143
851.355	22946
851.49	22847
851.625	22949
851.76	22812
851.895	22873
852.03	22934
852.165	22961
852.299	23090
852.434	23010
852.569	23018
852.703	22946
852.838	23033
852.973	23056
853.107	23041
853.242	22900
853.376	22820
853.511	22717
853.645	22820
853.78	22778
853.914	22889
854.048	22767
854.183	22698
854.317	22828
854.451	22938
854.585	22793
854.72	22763
854.854	22885
854.988	22881
855.122	22790
855.256	22622
855.39	22774
855.524	22866
855.658	22797
855.792	22862
855.926	22869
856.06	22797
856.194	22820
856.327	22733
856.461	22782
856.595	22763
856.729	22801
856.862	22843
856.996	22801
857.13	22816
857.263	22946
857.397	22946
857.53	22683
857.664	22759
857.797	22873
857.931	22847
858.064	22797
858.197	22927
858.331	22812
858.464	22782
858.597	22782
858.731	22774
858.864	22847
858.997	22774
859.13	22816
859.263	22790
859.396	22919
859.529	22767
859.662	22824
859.795	22691
859.928	22740
860.061	22961
860.194	23044
860.327	22877
860.46	22812
860.592	22911
860.725	22938
860.858	22953
860.99	22824
861.123	22710
861.256	22664
861.388	22793
861.521	23539
861.653	22710
861.786	22645
861.918	22672
862.05	22622
862.183	22748
862.315	22740
862.447	22698
862.58	22618
862.712	22538
862.844	22402
862.976	22626
863.108	22516
863.24	22984
863.372	22337
863.504	22615
863.636	22466
863.768	22519
863.9	22512
864.032	22485
864.164	22409
864.296	22512
864.428	22599
864.559	22508
864.691	22596
864.823	22500
864.954	22299
865.086	22371
865.217	22344
865.349	22318
865.48	22432
865.612	22386
865.743	22432
865.875	22436
866.006	22234
866.137	22280
866.269	22356
866.4	22314
866.531	22325
866.662	22261
866.793	22394
866.924	22230
867.055	22337
867.186	22192
867.317	22257
867.448	22143
867.579	22200
867.71	22192
867.841	22154
867.972	22185
868.103	22276
868.233	22337
868.364	22261
868.495	22257
868.625	22436
868.756	22641
868.886	22413
869.017	22588
869.147	22698
869.278	22721
869.408	22466
869.539	22550
869.669	22599
869.799	22607
869.929	22584
870.06	22656
870.19	22961
870.32	22755
870.45	22820
870.58	22908
870.71	23029
870.84	23048
870.97	23060
871.1	22805
871.23	23102
871.36	23151
871.489	23060
871.619	23090
871.749	23124
871.879	23220
872.008	23178
872.138	23197
872.267	23220
872.397	23060
872.526	22904
872.656	23006
872.785	22995
872.915	23155
873.044	23212
873.173	23121
873.303	23242
873.432	23360
873.561	23288
873.69	23197
873.819	23162
873.948	23258
874.077	23159
874.206	23105
874.335	23189
874.464	23330
874.593	23505
874.722	23307
874.851	23356
874.979	23376
875.108	23482
875.237	23349
875.365	23250
875.494	23288
875.623	23520
875.751	23341
875.88	23383
876.008	23452
876.136	23482
876.265	23760
876.393	23775
876.521	23821
876.65	23817
876.778	23722
876.906	23710
877.034	23615
877.162	23817
877.29	23714
877.418	23832
877.546	23649
877.674	23642
877.802	23649
877.93	23604
878.058	23630
878.185	23478
878.313	23627
878.441	23619
878.568	23497
878.696	23634
878.824	23741
878.951	23855
879.079	23897
879.206	23939
879.333	23904
879.461	23824
879.588	23859
879.715	23722
879.842	23939
879.97	23760
880.097	23459
880.224	23493
880.351	23596
880.478	23395
880.605	23467
880.732	23452
880.859	23764
880.986	23459
881.112	23528
881.239	23376
881.366	23326
881.493	23162
881.619	23067
881.746	23113
881.872	23067
881.999	22949
882.125	22927
882.252	23018
882.378	23044
882.505	23128
882.631	22980
882.757	22710
882.883	22809
883.01	22801
883.136	22752
883.262	22527
883.388	22497
883.514	22763
883.64	22771
883.766	22607
883.892	22402
884.018	22527
884.143	22546
884.269	22763
884.395	22584
884.52	22333
884.646	22360
884.772	22379
884.897	22348
885.023	22329
885.148	22481
885.274	22474
885.399	22436
885.524	22371
885.65	22375
885.775	22443
885.9	22409
886.025	22527
886.15	22474
886.275	22413
886.4	22246
886.525	22417
886.65	22295
886.775	22230
886.9	22592
887.025	22519
887.149	22246
887.274	22242
887.399	22055
887.523	22128
887.648	22116
887.773	22090
887.897	22093
888.021	22215
888.146	22010
888.27	22234
888.395	22230
888.519	22166
888.643	22074
888.767	22177
888.891	22032
889.015	21884
889.139	21926
889.263	21846
889.387	22044
889.511	22154
889.635	22055
889.759	21778
889.883	21755
890.006	22010
890.13	21895
890.254	21911
890.377	21880
890.501	21679
890.624	21557
890.748	21762
890.871	21599
890.995	21439
891.118	21515
891.241	21553
891.364	21424
891.488	21580
891.611	21526
891.734	21538
891.857	21405
891.98	21435
892.103	21370
892.226	21477
892.349	21336
892.471	21260
892.594	21321
892.717	21393
892.839	21332
892.962	21245
893.085	21332
893.207	21340
893.33	21154
893.452	21214
893.575	21374
893.697	21359
893.819	21538
893.941	21519
894.064	21408
894.186	21260
894.308	21256
894.43	21325
894.552	21420
894.674	21424
894.796	21237
894.918	21275
895.04	21195
895.161	21397
895.283	21412
895.405	21298
895.526	21321
895.648	21306
895.769	21302
895.891	21291
896.012	21351
896.134	21370
896.255	21340
896.376	21321
896.498	21321
896.619	21351
896.74	21393
896.861	21355
896.982	21576
897.103	21774
897.224	21583
897.345	21454
897.466	21363
897.587	21424
897.708	21713
897.828	21530
897.949	21408
898.07	21222
898.19	21424
898.311	21641
898.431	21351
898.552	21389
898.672	21599
898.792	21378
898.913	21568
899.033	21420
899.153	21287
899.273	21272
899.393	21211
899.513	21256
899.633	21199
899.753	21214
899.873	21028
899.993	21264
900.113	21233
900.232	21222
900.352	21131
900.472	21055
900.591	20952
900.711	21005
900.83	21024
900.95	21142
901.069	21104
901.189	20864
901.308	20606
901.427	20560
901.546	20514
901.665	20640
901.784	20526
901.904	20366
902.023	20415
902.141	20092
902.26	20107
902.379	20149
902.498	20069
902.617	19932
902.735	20035
902.854	20016
902.973	19887
903.091	19765
903.21	19708
903.328	19704
903.446	19689
903.565	19506
903.683	19544
903.801	19403
903.919	19480
904.038	19358
904.156	19354
904.274	19304
904.392	19324
904.51	19206
904.627	19183
904.745	19236
904.863	19304
904.981	19133
905.098	18901
905.216	18981
905.334	19027
905.451	18924
905.569	18897
905.686	18962
905.803	18966
905.921	18673
906.038	18787
906.155	18715
906.272	18593
906.389	18612
906.506	18388
906.623	18448
906.74	18452
906.857	18399
906.974	18346
907.091	18418
907.208	18688
907.324	18445
907.441	18296
907.557	18194
907.674	18125
907.79	18182
907.907	18213
908.023	18117
908.139	18117
908.256	18106
908.372	18087
908.488	18095
908.604	18007
908.72	17973
908.836	17916
908.952	17923
909.068	17912
909.184	17996
909.3	17866
909.415	17794
909.531	17809
909.647	17630
909.762	17608
909.878	17535
909.993	17535
910.108	17539
910.224	17547
910.339	17474
910.454	17455
910.57	17383
910.685	17376
910.8	17516
910.915	17425
911.03	17330
911.145	17128
911.259	17124
911.374	17185
911.489	17033
911.604	16949
911.718	16946
911.833	16915
911.947	16767
912.062	16786
912.176	16972
912.291	16999
912.405	16790
912.519	17143
912.633	16999
912.748	16908
912.862	16828
912.976	16721
913.09	16607
913.204	16672
913.318	16706
913.431	16816
913.545	16771
913.659	16740
913.772	16531
913.886	16504
914	16508
914.113	16462
914.226	16588
914.34	16546
914.453	16474
914.566	16508
914.68	16360
914.793	16325
914.906	16074
915.019	16128
915.132	16051
915.245	16044
915.358	16044
915.47	16063
915.583	16124
915.696	16059
915.809	16147
915.921	16226
916.034	15911
916.146	15953
916.259	16013
916.371	16021
916.483	15941
916.595	15861
916.708	15873
916.82	15842
916.932	15838
917.044	15812
917.156	15739
917.268	15724
917.38	15755
917.491	15663
917.603	15606
917.715	15724
917.826	15838
917.938	15648
918.049	15447
918.161	15587
918.272	15755
918.384	15759
918.495	15564
918.606	15401
918.717	15332
918.828	15530
918.939	15447
919.05	15310
919.161	15359
919.272	15218
919.383	15241
919.494	15332
919.604	15485
919.715	15310
919.826	15264
919.936	15325
920.047	15405
920.157	15370
920.267	15587
920.378	15397
920.488	15378
920.598	15488
920.708	15633
920.818	15526
920.928	15428
921.038	15660
921.148	15504
921.258	15287
921.368	15180
921.477	15154
921.587	15077
921.697	14918
921.806	15112
921.916	14956
922.025	14792
922.134	14712
922.244	14670
922.353	14693
922.462	14549
922.571	14469
922.68	14393
922.789	14362
922.898	14393
923.007	14256
923.116	14324
923.224	14263
923.333	14294
923.442	14115
923.55	14237
923.659	14187
923.767	14214
923.876	14103
923.984	14244
924.092	13928
924.201	14073
924.309	14062
924.417	13978
924.525	13974
924.633	13936
924.741	14880
924.849	13780
924.956	13909
925.064	13753
925.172	13685
925.279	13677
925.387	13776
925.494	13734
925.602	13849
925.709	13769
925.816	13639
925.924	13613
926.031	13620
926.138	13563
926.245	13670
926.352	13567
926.459	13643
926.566	13769
926.673	13457
926.779	13400
926.886	13441
926.993	13301
927.099	13251
927.206	13091
927.312	13137
927.419	13251
927.525	13274
927.631	13289
927.737	13145
927.843	13084
927.95	13008
928.056	13046
928.162	13023
928.267	13110
928.373	13700
928.479	13137
928.585	12852
928.69	12981
928.796	13099
928.901	12871
929.007	12787
929.112	12871
929.218	12844
929.323	12696
929.428	12760
929.533	12833
929.638	12825
929.743	12715
929.848	12787
929.953	12768
930.058	12456
930.163	12441
930.267	12448
930.372	12612
930.477	12391
930.581	12635
930.685	12418
930.79	12289
930.894	12353
930.998	12281
931.103	12418
931.207	12102
931.311	11999
931.415	11923
931.519	11729
931.623	11729
