Data from test_V78500241_1288.txt Node
Date: Fri Mar 25 15:50:43 CST 2022
User: usil
Spectrometer: V785-0024
Trigger mode: 0
Integration Time (sec): 4.000000E-1
Scans to average: 1
Nonlinearity correction enabled: false
Boxcar width: 0
Storing dark spectrum: false
XAxis mode: Wavelengths
Number of Pixels in Spectrum: 1024
>>>>>Begin Spectral Data<<<<<
801.071	28504
801.214	28485
801.356	28261
801.499	28223
801.641	28093
801.783	28055
801.926	28120
802.068	28078
802.211	27979
802.353	27926
802.496	27743
802.638	27656
802.78	27747
802.923	27831
803.065	27595
803.208	27766
803.35	27778
803.492	27850
803.635	27991
803.777	27823
803.919	27869
804.061	28238
804.204	28070
804.346	27880
804.488	27972
804.63	28021
804.773	27831
804.915	28078
805.057	28051
805.199	27964
805.341	28078
805.483	28086
805.626	28276
805.768	27972
805.91	28055
806.052	28074
806.194	28070
806.336	28504
806.478	28223
806.62	28207
806.762	28284
806.904	28436
807.046	28603
807.188	28763
807.33	28607
807.472	28645
807.614	28500
807.756	28599
807.898	28497
808.04	28432
808.182	28371
808.324	28527
808.465	28451
808.607	28733
808.749	28843
808.891	28869
809.033	28946
809.174	28816
809.316	28763
809.458	28873
809.6	28672
809.741	28801
809.883	29067
810.025	29204
810.166	29105
810.308	29162
810.45	29102
810.591	29003
810.733	28911
810.875	28801
811.016	28725
811.158	28675
811.299	28953
811.441	29052
811.582	28892
811.724	28984
811.865	28763
812.007	28831
812.148	28858
812.29	28725
812.431	28873
812.573	29102
812.714	29197
812.855	29375
812.997	29341
813.138	29490
813.279	29516
813.421	29486
813.562	29258
813.703	29200
813.845	29079
813.986	28869
814.127	28630
814.268	28584
814.41	28573
814.551	28531
814.692	28481
814.833	28394
814.974	28500
815.115	28630
815.256	28447
815.397	28489
815.539	28356
815.68	28436
815.821	28352
815.962	28440
816.103	28257
816.244	28295
816.385	28078
816.526	28211
816.666	27880
816.807	27812
816.948	28063
817.089	27979
817.23	27869
817.371	27876
817.512	27762
817.653	27987
817.793	27781
817.934	28032
818.075	27880
818.216	27804
818.356	27865
818.497	27720
818.638	27622
818.778	27667
818.919	27599
819.06	27698
819.2	27682
819.341	27911
819.481	27838
819.622	28169
819.762	28109
819.903	28143
820.043	28078
820.184	28029
820.324	27941
820.465	28124
820.605	27998
820.746	28044
820.886	27903
821.026	27972
821.167	27949
821.307	27949
821.447	27846
821.588	27850
821.728	27599
821.868	27504
822.008	27351
822.149	27260
822.289	27294
822.429	27142
822.569	27112
822.709	26986
822.849	26838
822.99	26853
823.13	26735
823.27	26788
823.41	26724
823.55	26583
823.69	26781
823.83	26697
823.97	26682
824.11	26583
824.25	26415
824.389	26453
824.529	26423
824.669	26488
824.809	26476
824.949	26514
825.089	26667
825.228	26545
825.368	26347
825.508	26381
825.648	26419
825.787	26461
825.927	26530
826.067	26465
826.206	26248
826.346	26434
826.485	26450
826.625	26305
826.765	26431
826.904	26377
827.044	26229
827.183	26065
827.323	26069
827.462	26111
827.601	26176
827.741	26035
827.88	26092
828.02	25898
828.159	25966
828.298	26176
828.437	26202
828.577	25913
828.716	26027
828.855	26100
828.994	25788
829.134	25974
829.273	25868
829.412	25620
829.551	25826
829.69	25715
829.829	25845
829.968	25662
830.107	25826
830.246	25826
830.385	25746
830.524	25605
830.663	25548
830.802	25441
830.941	25479
831.08	25388
831.219	25407
831.357	25464
831.496	25605
831.635	25479
831.774	25381
831.913	25369
832.051	25236
832.19	25240
832.329	25274
832.467	25072
832.606	25015
832.744	25050
832.883	25053
833.022	25133
833.16	24962
833.299	25244
833.437	25000
833.576	25164
833.714	25133
833.852	25160
833.991	25259
834.129	25175
834.267	25122
834.406	25053
834.544	25099
834.682	25091
834.821	24989
834.959	25293
835.097	25141
835.235	25126
835.373	25042
835.511	25175
835.65	24905
835.788	24821
835.926	24825
836.064	24757
836.202	24772
836.34	24928
836.478	24996
836.615	24973
836.753	24913
836.891	25069
837.029	24897
837.167	24878
837.305	24886
837.443	24878
837.58	24867
837.718	24867
837.856	24856
837.993	24612
838.131	24757
838.269	24650
838.406	24673
838.544	24563
838.681	24521
838.819	24460
838.956	24174
839.094	24167
839.231	24300
839.369	24361
839.506	24627
839.643	24532
839.781	24235
839.918	24095
840.055	24270
840.193	24205
840.33	24277
840.467	24197
840.604	24060
840.742	24376
840.879	23912
841.016	24072
841.153	23999
841.29	24258
841.427	24106
841.564	24121
841.701	24045
841.838	24091
841.975	24182
842.112	23961
842.249	24003
842.385	23939
842.522	24114
842.659	23923
842.796	23916
842.933	23904
843.069	23802
843.206	23756
843.343	23984
843.479	23901
843.616	23817
843.752	23672
843.889	23646
844.025	23863
844.162	23676
844.298	23672
844.435	23741
844.571	23512
844.708	23828
844.844	23859
844.98	23756
845.117	23745
845.253	23604
845.389	23440
845.525	23581
845.661	23463
845.798	23387
845.934	23528
846.07	23467
846.206	23383
846.342	23497
846.478	23452
846.614	23075
846.75	23094
846.886	23003
847.022	23349
847.158	23105
847.294	23140
847.429	23105
847.565	23140
847.701	23273
847.837	22904
847.972	22797
848.108	22938
848.244	22828
848.379	22896
848.515	22691
848.65	22641
848.786	22717
848.921	22706
849.057	22877
849.192	22698
849.328	22656
849.463	22710
849.598	22702
849.734	22493
849.869	22675
850.004	22596
850.14	22535
850.275	22489
850.41	22322
850.545	22421
850.68	22504
850.815	22489
850.95	22402
851.085	22622
851.22	22523
851.355	22508
851.49	22561
851.625	22459
851.76	22436
851.895	22230
852.03	22348
852.165	22485
852.299	22557
852.434	22561
852.569	22596
852.703	22451
852.838	22462
852.973	22599
853.107	22561
853.242	22432
853.376	22219
853.511	22363
853.645	22295
853.78	22394
853.914	22398
854.048	22261
854.183	22287
854.317	22265
854.451	22497
854.585	22192
854.72	22303
854.854	22246
854.988	22105
855.122	22154
855.256	22173
855.39	22181
855.524	22238
855.658	22325
855.792	22325
855.926	22394
856.06	22207
856.194	22314
856.327	22192
856.461	22211
856.595	22261
856.729	22299
856.862	22398
856.996	22265
857.13	22402
857.263	22329
857.397	22360
857.53	22219
857.664	22402
857.797	22318
857.931	22303
858.064	22360
858.197	22508
858.331	22303
858.464	22147
858.597	22097
858.731	22314
858.864	22215
858.997	22295
859.13	22303
859.263	22276
859.396	22344
859.529	22230
859.662	22272
859.795	22257
859.928	22257
860.061	22481
860.194	22398
860.327	22249
860.46	22363
860.592	22409
860.725	22402
860.858	22478
860.99	22356
861.123	22192
861.256	22284
861.388	22280
861.521	22866
861.653	22109
861.786	22078
861.918	22109
862.05	22204
862.183	22196
862.315	22238
862.447	22242
862.58	22226
862.712	21979
862.844	21922
862.976	22112
863.108	22063
863.24	22424
863.372	21930
863.504	21918
863.636	22070
863.768	21930
863.9	22044
864.032	21922
864.164	21972
864.296	22082
864.428	22131
864.559	22048
864.691	21956
864.823	21934
864.954	21945
865.086	21930
865.217	21865
865.349	21713
865.48	21892
865.612	21907
865.743	21869
865.875	21831
866.006	21918
866.137	21751
866.269	21793
866.4	21781
866.531	21831
866.662	21690
866.793	21823
866.924	21842
867.055	21686
867.186	21907
867.317	21762
867.448	21762
867.579	21720
867.71	21850
867.841	21762
867.972	21850
868.103	21679
868.233	21812
868.364	21865
868.495	21979
868.625	21903
868.756	22219
868.886	22006
869.017	22086
869.147	22177
869.278	22074
869.408	22067
869.539	21949
869.669	22090
869.799	22135
869.929	22017
870.06	22048
870.19	22306
870.32	22249
870.45	22493
870.58	22360
870.71	22489
870.84	22481
870.97	22398
871.1	22402
871.23	22588
871.36	22656
871.489	22478
871.619	22561
871.749	22512
871.879	22748
872.008	22786
872.138	22596
872.267	22641
872.397	22447
872.526	22360
872.656	22485
872.785	22481
872.915	22668
873.044	22759
873.173	22649
873.303	22759
873.432	22634
873.561	22767
873.69	22653
873.819	22599
873.948	22790
874.077	22637
874.206	22687
874.335	22645
874.464	22675
874.593	22778
874.722	22885
874.851	22908
874.979	22904
875.108	22949
875.237	22748
875.365	22771
875.494	22797
875.623	22919
875.751	22771
875.88	22881
876.008	22930
876.136	23151
876.265	23288
876.393	23535
876.521	23387
876.65	23303
876.778	23200
876.906	23083
877.034	23117
877.162	23140
877.29	23181
877.418	23227
877.546	23102
877.674	23261
877.802	23254
877.93	23124
878.058	23044
878.185	23006
878.313	23204
878.441	23200
878.568	23003
878.696	23132
878.824	23166
878.951	23216
879.079	23330
879.206	23520
879.333	23406
879.461	23220
879.588	23216
879.715	23402
879.842	23520
879.97	23269
880.097	23166
880.224	23052
880.351	22953
880.478	23003
880.605	22995
880.732	22995
880.859	23288
880.986	22999
881.112	23048
881.239	23003
881.366	22706
881.493	22656
881.619	22542
881.746	22664
881.872	22641
881.999	22588
882.125	22417
882.252	22557
882.378	22607
882.505	22717
882.631	22390
882.757	22291
882.883	22455
883.01	22322
883.136	22280
883.262	22082
883.388	22059
883.514	22177
883.64	22124
883.766	22287
883.892	22040
884.018	22017
884.143	22215
884.269	22379
884.395	21892
884.52	21808
884.646	21884
884.772	21861
884.897	21797
885.023	21861
885.148	21983
885.274	22013
885.399	22067
885.524	21934
885.65	21903
885.775	22044
885.9	21903
886.025	22013
886.15	21972
886.275	21850
886.4	21800
886.525	21812
886.65	21918
886.775	21819
886.9	21968
887.025	22147
887.149	21934
887.274	21679
887.399	21682
887.523	21694
887.648	21568
887.773	21610
887.897	21736
888.021	21701
888.146	21500
888.27	21755
888.395	21819
888.519	21732
888.643	21686
888.767	21614
888.891	21545
889.015	21428
889.139	21481
889.263	21485
889.387	21500
889.511	21629
889.635	21557
889.759	21355
889.883	21538
890.006	21587
890.13	21549
890.254	21317
890.377	21370
890.501	21287
890.624	21173
890.748	21146
890.871	21127
890.995	20986
891.118	20963
891.241	20975
891.364	20998
891.488	21195
891.611	20979
891.734	21028
891.857	21161
891.98	21039
892.103	21150
892.226	21062
892.349	21043
892.471	20792
892.594	20975
892.717	20876
892.839	20929
892.962	20838
893.085	20929
893.207	20982
893.33	20777
893.452	20880
893.575	20998
893.697	20887
893.819	20944
893.941	21028
894.064	21051
894.186	20804
894.308	20762
894.43	21005
894.552	21039
894.674	21081
894.796	20804
894.918	20876
895.04	20811
895.161	20880
895.283	20864
895.405	20804
895.526	20914
895.648	20826
895.769	20967
895.891	20941
896.012	20941
896.134	20895
896.255	20872
896.376	20705
896.498	20880
896.619	20944
896.74	20906
896.861	20902
896.982	21169
897.103	21241
897.224	21275
897.345	21203
897.466	21070
897.587	21237
897.708	21157
897.828	21127
897.949	21066
898.07	20948
898.19	20925
898.311	21123
898.431	21039
898.552	21135
898.672	21127
898.792	21169
898.913	20994
899.033	20910
899.153	20902
899.273	20830
899.393	20781
899.513	20876
899.633	20750
899.753	20842
899.873	20746
899.993	20937
900.113	20746
900.232	20697
900.352	20758
900.472	20621
900.591	20495
900.711	20617
900.83	20473
900.95	20800
901.069	20579
901.189	20469
901.308	20176
901.427	20081
901.546	20161
901.665	20191
901.784	20176
901.904	19974
902.023	19997
902.141	19769
902.26	19693
902.379	19856
902.498	19635
902.617	19571
902.735	19723
902.854	19544
902.973	19624
903.091	19358
903.21	19441
903.328	19217
903.446	19179
903.565	19202
903.683	19114
903.801	19057
903.919	19042
904.038	19133
904.156	18837
904.274	18977
904.392	18852
904.51	18916
904.627	18802
904.745	18909
904.863	18897
904.981	18730
905.098	18639
905.216	18509
905.334	18585
905.451	18688
905.569	18433
905.686	18661
905.803	18498
905.921	18342
906.038	18418
906.155	18384
906.272	18178
906.389	18239
906.506	18133
906.623	18216
906.74	18076
906.857	17939
906.974	17969
907.091	18232
907.208	18144
907.324	18110
907.441	17946
907.557	17767
907.674	17832
907.79	17726
907.907	17733
908.023	17805
908.139	17767
908.256	17649
908.372	17710
908.488	17718
908.604	17589
908.72	17455
908.836	17558
908.952	17425
909.068	17440
909.184	17596
909.3	17490
909.415	17532
909.531	17505
909.647	17174
909.762	17261
909.878	17200
909.993	17193
910.108	17166
910.224	17189
910.339	17132
910.454	17102
910.57	16987
910.685	16987
910.8	17166
910.915	17151
911.03	16953
911.145	16809
911.259	16748
911.374	16793
911.489	16752
911.604	16637
911.718	16573
911.833	16577
911.947	16569
912.062	16440
912.176	16573
912.291	16660
912.405	16618
912.519	16687
912.633	16740
912.748	16535
912.862	16561
912.976	16421
913.09	16246
913.204	16295
913.318	16344
913.431	16474
913.545	16462
913.659	16363
913.772	16287
913.886	16150
914	16139
914.113	16131
914.226	16185
914.34	16211
914.453	16105
914.566	16242
914.68	16017
914.793	15945
914.906	15774
915.019	15797
915.132	15660
915.245	15739
915.358	15755
915.47	15705
915.583	15732
915.696	15652
915.809	15804
915.921	15926
916.034	15755
916.146	15629
916.259	15606
916.371	15747
916.483	15584
916.595	15511
916.708	15530
916.82	15553
916.932	15542
917.044	15485
917.156	15523
917.268	15370
917.38	15359
917.491	15279
917.603	15275
917.715	15439
917.826	15477
917.938	15313
918.049	15199
918.161	15233
918.272	15382
918.384	15408
918.495	15252
918.606	15157
918.717	15047
918.828	15116
918.939	15135
919.05	15085
919.161	15001
919.272	14864
919.383	14948
919.494	15100
919.604	15393
919.715	15112
919.826	14944
919.936	15005
920.047	15161
920.157	15039
920.267	15222
920.378	15081
920.488	14990
920.598	15157
920.708	15241
920.818	15161
920.928	15081
921.038	15260
921.148	15256
921.258	15017
921.368	14891
921.477	14830
921.587	14731
921.697	14727
921.806	14739
921.916	14587
922.025	14442
922.134	14385
922.244	14377
922.353	14492
922.462	14355
922.571	14244
922.68	14183
922.789	14069
922.898	14054
923.007	14031
923.116	14058
923.224	13936
923.333	14020
923.442	13894
923.55	13890
923.659	13890
923.767	13814
923.876	13875
923.984	13746
924.092	13780
924.201	13784
924.309	13704
924.417	13677
924.525	13769
924.633	13696
924.741	14602
924.849	13400
924.956	13601
925.064	13396
925.172	13419
925.279	13445
925.387	13449
925.494	13384
925.602	13594
925.709	13438
925.816	13354
925.924	13327
926.031	13521
926.138	13331
926.245	13403
926.352	13266
926.459	13244
926.566	13445
926.673	13327
926.779	13129
926.886	13187
926.993	13000
927.099	12932
927.206	13015
927.312	12924
927.419	13034
927.525	12996
927.631	13012
927.737	12973
927.843	12768
927.95	12719
928.056	12764
928.162	12871
928.267	12867
928.373	13346
928.479	12878
928.585	12585
928.69	12692
928.796	12783
928.901	12574
929.007	12452
929.112	12658
929.218	12608
929.323	12528
929.428	12509
929.533	12642
929.638	12471
929.743	12342
929.848	12494
929.953	12422
930.058	12273
930.163	12182
930.267	12163
930.372	12334
930.477	12136
930.581	12384
930.685	12235
930.79	11992
930.894	12064
930.998	12087
931.103	12125
931.207	11798
931.311	11699
931.415	11714
931.519	11425
931.623	11345
