Data from test_V78500241_3282.txt Node
Date: Fri Mar 25 16:04:32 CST 2022
User: usil
Spectrometer: V785-0024
Trigger mode: 0
Integration Time (sec): 4.000000E-1
Scans to average: 1
Nonlinearity correction enabled: false
Boxcar width: 0
Storing dark spectrum: false
XAxis mode: Wavelengths
Number of Pixels in Spectrum: 1024
>>>>>Begin Spectral Data<<<<<
801.071	28664
801.214	28706
801.356	28356
801.499	28249
801.641	28109
801.783	28128
801.926	28154
802.068	28268
802.211	28158
802.353	28086
802.496	27941
802.638	27899
802.78	27865
802.923	27934
803.065	27838
803.208	27850
803.35	27937
803.492	28086
803.635	27975
803.777	27983
803.919	28131
804.061	28363
804.204	28029
804.346	28078
804.488	28070
804.63	28166
804.773	27812
804.915	28166
805.057	28181
805.199	28063
805.341	28200
805.483	28238
805.626	28428
805.768	28070
805.91	28325
806.052	28356
806.194	28162
806.336	28417
806.478	28238
806.62	28284
806.762	28409
806.904	28618
807.046	28717
807.188	28679
807.33	28698
807.472	28831
807.614	28588
807.756	28664
807.898	28546
808.04	28546
808.182	28599
808.324	28557
808.465	28763
808.607	28927
808.749	28908
808.891	29044
809.033	29121
809.174	28984
809.316	29041
809.458	29064
809.6	28911
809.741	29223
809.883	29162
810.025	29292
810.166	29220
810.308	29303
810.45	29216
810.591	29166
810.733	29064
810.875	28949
811.016	28793
811.158	28862
811.299	29071
811.441	29212
811.582	29136
811.724	28892
811.865	28930
812.007	28938
812.148	29132
812.29	28942
812.431	29185
812.573	29337
812.714	29334
812.855	29520
812.997	29600
813.138	29699
813.279	29486
813.421	29551
813.562	29539
813.703	29273
813.845	29098
813.986	28915
814.127	28782
814.268	28554
814.41	28733
814.551	28816
814.692	28740
814.833	28656
814.974	28843
815.115	28782
815.256	28565
815.397	28584
815.539	28588
815.68	28500
815.821	28421
815.962	28580
816.103	28462
816.244	28337
816.385	28272
816.526	28348
816.666	28059
816.807	28128
816.948	28029
817.089	28063
817.23	28051
817.371	28139
817.512	28090
817.653	27945
817.793	28040
817.934	28070
818.075	27911
818.216	27960
818.356	27956
818.497	27865
818.638	27819
818.778	27675
818.919	27656
819.06	27812
819.2	27785
819.341	27956
819.481	28021
819.622	28219
819.762	28363
819.903	28230
820.043	28162
820.184	28169
820.324	28223
820.465	28272
820.605	28086
820.746	28063
820.886	27972
821.026	28093
821.167	28120
821.307	28150
821.447	28055
821.588	27850
821.728	27778
821.868	27682
822.008	27443
822.149	27637
822.289	27500
822.429	27340
822.569	27123
822.709	27180
822.849	27009
822.99	27009
823.13	26994
823.27	26929
823.41	26853
823.55	26754
823.69	26883
823.83	26883
823.97	26823
824.11	26537
824.25	26495
824.389	26743
824.529	26746
824.669	26720
824.809	26853
824.949	26864
825.089	26781
825.228	26636
825.368	26644
825.508	26545
825.648	26640
825.787	26712
825.927	26473
826.067	26522
826.206	26438
826.346	26644
826.485	26511
826.625	26583
826.765	26720
826.904	26431
827.044	26374
827.183	26351
827.323	26332
827.462	26343
827.601	26244
827.741	26301
827.88	26248
828.02	26221
828.159	26343
828.298	26396
828.437	26351
828.577	26218
828.716	26415
828.855	26221
828.994	26016
829.134	25936
829.273	26134
829.412	25871
829.551	25925
829.69	25871
829.829	25955
829.968	26092
830.107	26039
830.246	25902
830.385	25830
830.524	25906
830.663	25765
830.802	25674
830.941	25514
831.08	25479
831.219	25693
831.357	25704
831.496	25723
831.635	25537
831.774	25457
831.913	25487
832.051	25419
832.19	25350
832.329	25335
832.467	25198
832.606	25308
832.744	25259
832.883	25331
833.022	25244
833.16	25331
833.299	25316
833.437	25251
833.576	25301
833.714	25285
833.852	25422
833.991	25236
834.129	25468
834.267	25449
834.406	25327
834.544	25369
834.682	25282
834.821	25320
834.959	25479
835.097	25217
835.235	25251
835.373	25285
835.511	25403
835.65	25012
835.788	25175
835.926	25084
836.064	24977
836.202	24981
836.34	25057
836.478	25240
836.615	25072
836.753	25160
836.891	25198
837.029	25129
837.167	25027
837.305	25084
837.443	25057
837.58	24947
837.718	25107
837.856	24932
837.993	25019
838.131	25023
838.269	24882
838.406	24909
838.544	24795
838.681	24582
838.819	24631
838.956	24376
839.094	24517
839.231	24407
839.369	24635
839.506	24806
839.643	24715
839.781	24475
839.918	24460
840.055	24388
840.193	24414
840.33	24289
840.467	24388
840.604	24376
840.742	24715
840.879	24209
841.016	24266
841.153	24292
841.29	24399
841.427	24361
841.564	24327
841.701	24239
841.838	24213
841.975	24201
842.112	24232
842.249	24216
842.385	24121
842.522	24296
842.659	24159
842.796	24110
842.933	24095
843.069	23999
843.206	24095
843.343	24140
843.479	24178
843.616	24083
843.752	23866
843.889	23885
844.025	24041
844.162	23699
844.298	23847
844.435	23828
844.571	23813
844.708	23961
844.844	23958
844.98	23969
845.117	24076
845.253	23908
845.389	23722
845.525	23798
845.661	23771
845.798	23672
845.934	23623
846.07	23680
846.206	23570
846.342	23661
846.478	23600
846.614	23467
846.75	23349
846.886	23242
847.022	23452
847.158	23387
847.294	23265
847.429	23406
847.565	23261
847.701	23501
847.837	23083
847.972	23071
848.108	23200
848.244	23181
848.379	23006
848.515	22911
848.65	22911
848.786	22930
848.921	22896
849.057	23010
849.192	22968
849.328	22923
849.463	23037
849.598	22892
849.734	22744
849.869	22744
850.004	22607
850.14	22752
850.275	22740
850.41	22630
850.545	22649
850.68	22656
850.815	22736
850.95	22809
851.085	22843
851.22	22824
851.355	22729
851.49	22607
851.625	22698
851.76	22580
851.895	22497
852.03	22592
852.165	22748
852.299	22702
852.434	22763
852.569	22645
852.703	22630
852.838	22702
852.973	22748
853.107	22736
853.242	22611
853.376	22531
853.511	22341
853.645	22443
853.78	22516
853.914	22653
854.048	22379
854.183	22577
854.317	22489
854.451	22828
854.585	22398
854.72	22481
854.854	22641
854.988	22462
855.122	22607
855.256	22432
855.39	22379
855.524	22577
855.658	22577
855.792	22527
855.926	22569
856.06	22489
856.194	22413
856.327	22424
856.461	22367
856.595	22287
856.729	22489
856.862	22523
856.996	22618
857.13	22451
857.263	22592
857.397	22592
857.53	22569
857.664	22542
857.797	22542
857.931	22508
858.064	22390
858.197	22485
858.331	22379
858.464	22280
858.597	22493
858.731	22512
858.864	22413
858.997	22557
859.13	22592
859.263	22462
859.396	22508
859.529	22440
859.662	22470
859.795	22554
859.928	22519
860.061	22634
860.194	22630
860.327	22424
860.46	22535
860.592	22645
860.725	22653
860.858	22691
860.99	22481
861.123	22443
861.256	22424
861.388	22519
861.521	23166
861.653	22341
861.786	22261
861.918	22322
862.05	22386
862.183	22519
862.315	22497
862.447	22512
862.58	22390
862.712	22284
862.844	22097
862.976	22253
863.108	22291
863.24	22725
863.372	22093
863.504	22154
863.636	22162
863.768	22306
863.9	22261
864.032	22090
864.164	22230
864.296	22090
864.428	22325
864.559	22204
864.691	22219
864.823	22177
864.954	22177
865.086	22112
865.217	22002
865.349	22040
865.48	22029
865.612	22097
865.743	22238
865.875	22139
866.006	22010
866.137	22036
866.269	22036
866.4	22025
866.531	21987
866.662	21987
866.793	21930
866.924	21926
867.055	22044
867.186	22055
867.317	22055
867.448	21956
867.579	22017
867.71	21918
867.841	21991
867.972	22078
868.103	22059
868.233	22070
868.364	22013
868.495	22090
868.625	22173
868.756	22337
868.886	22207
869.017	22204
869.147	22280
869.278	22344
869.408	22173
869.539	22291
869.669	22417
869.799	22394
869.929	22287
870.06	22390
870.19	22637
870.32	22535
870.45	22546
870.58	22752
870.71	22713
870.84	22706
870.97	22569
871.1	22675
871.23	22809
871.36	22782
871.489	22793
871.619	22934
871.749	22812
871.879	22873
872.008	22995
872.138	22797
872.267	22854
872.397	22805
872.526	22615
872.656	22683
872.785	22618
872.915	22774
873.044	22911
873.173	22839
873.303	22980
873.432	22911
873.561	23018
873.69	22991
873.819	22923
873.948	22869
874.077	22858
874.206	22820
874.335	22809
874.464	22911
874.593	23071
874.722	22892
874.851	23044
874.979	23102
875.108	23128
875.237	22953
875.365	23079
875.494	23094
875.623	23143
875.751	23052
875.88	23124
876.008	23303
876.136	23151
876.265	23581
876.393	23585
876.521	23592
876.65	23615
876.778	23501
876.906	23444
877.034	23433
877.162	23535
877.29	23467
877.418	23448
877.546	23387
877.674	23433
877.802	23448
877.93	23486
878.058	23360
878.185	23284
878.313	23360
878.441	23414
878.568	23261
878.696	23337
878.824	23539
878.951	23528
879.079	23611
879.206	23672
879.333	23615
879.461	23474
879.588	23573
879.715	23577
879.842	23676
879.97	23608
880.097	23159
880.224	23235
880.351	23277
880.478	23208
880.605	23181
880.732	23216
880.859	23417
880.986	23250
881.112	23159
881.239	23166
881.366	22938
881.493	22847
881.619	22809
881.746	22793
881.872	22858
881.999	22793
882.125	22740
882.252	22786
882.378	22721
882.505	22831
882.631	22626
882.757	22561
882.883	22691
883.01	22592
883.136	22508
883.262	22440
883.388	22287
883.514	22519
883.64	22508
883.766	22478
883.892	22280
884.018	22322
884.143	22375
884.269	22535
884.395	22234
884.52	22196
884.646	22207
884.772	22093
884.897	21903
885.023	22090
885.148	22219
885.274	22322
885.399	22135
885.524	22188
885.65	22166
885.775	22025
885.9	21975
886.025	22242
886.15	22204
886.275	22021
886.4	21960
886.525	22063
886.65	22006
886.775	22059
886.9	22109
887.025	22257
887.149	22093
887.274	21892
887.399	21911
887.523	21812
887.648	21823
887.773	21679
887.897	21922
888.021	21926
888.146	21842
888.27	21930
888.395	21956
888.519	21915
888.643	21865
888.767	21987
888.891	21717
889.015	21686
889.139	21667
889.263	21679
889.387	21759
889.511	21785
889.635	21736
889.759	21686
889.883	21637
890.006	21648
890.13	21747
890.254	21557
890.377	21526
890.501	21355
890.624	21336
890.748	21424
890.871	21207
890.995	21336
891.118	21169
891.241	21184
891.364	21207
891.488	21340
891.611	21306
891.734	21184
891.857	21085
891.98	21256
892.103	21051
892.226	21237
892.349	21214
892.471	21108
892.594	21169
892.717	21138
892.839	21074
892.962	21085
893.085	21195
893.207	20990
893.33	21001
893.452	21036
893.575	21100
893.697	21013
893.819	21211
893.941	21321
894.064	21249
894.186	21077
894.308	21062
894.43	21108
894.552	21340
894.674	21222
894.796	20937
894.918	21074
895.04	21020
895.161	21089
895.283	21119
895.405	21081
895.526	21104
895.648	21089
895.769	21161
895.891	21192
896.012	21211
896.134	21119
896.255	21062
896.376	21081
896.498	20994
896.619	21100
896.74	21051
896.861	21146
896.982	21344
897.103	21549
897.224	21306
897.345	21260
897.466	21173
897.587	21272
897.708	21481
897.828	21283
897.949	21268
898.07	21051
898.19	21218
898.311	21294
898.431	21207
898.552	21260
898.672	21313
898.792	21272
898.913	21359
899.033	21096
899.153	21077
899.273	20906
899.393	21017
899.513	20960
899.633	20963
899.753	20933
899.873	20876
899.993	20952
900.113	20941
900.232	20910
900.352	20948
900.472	20765
900.591	20701
900.711	20800
900.83	20636
900.95	20872
901.069	20781
901.189	20617
901.308	20480
901.427	20290
901.546	20339
901.665	20427
901.784	20301
901.904	20210
902.023	20145
902.141	19925
902.26	19799
902.379	19982
902.498	19868
902.617	19860
902.735	19997
902.854	19734
902.973	19708
903.091	19495
903.21	19487
903.328	19571
903.446	19430
903.565	19316
903.683	19343
903.801	19091
903.919	19293
904.038	19198
904.156	19053
904.274	19091
904.392	19031
904.51	18951
904.627	19126
904.745	19099
904.863	19114
904.981	18798
905.098	18894
905.216	18726
905.334	18814
905.451	18646
905.569	18703
905.686	18700
905.803	18665
905.921	18532
906.038	18707
906.155	18566
906.272	18315
906.389	18494
906.506	18224
906.623	18361
906.74	18304
906.857	18159
906.974	18133
907.091	18205
907.208	18292
907.324	18228
907.441	18178
907.557	17908
907.674	18049
907.79	17920
907.907	17927
908.023	17832
908.139	17980
908.256	17908
908.372	17863
908.488	17752
908.604	17764
908.72	17604
908.836	17824
908.952	17668
909.068	17653
909.184	17710
909.3	17653
909.415	17752
909.531	17638
909.647	17379
909.762	17429
909.878	17391
909.993	17406
910.108	17387
910.224	17269
910.339	17406
910.454	17231
910.57	17075
910.685	17117
910.8	17398
910.915	17280
911.03	17208
911.145	17006
911.259	16946
911.374	16866
911.489	16877
911.604	16755
911.718	16656
911.833	16630
911.947	16527
912.062	16516
912.176	16584
912.291	16672
912.405	16645
912.519	16805
912.633	16835
912.748	16744
912.862	16554
912.976	16451
913.09	16478
913.204	16390
913.318	16493
913.431	16535
913.545	16542
913.659	16561
913.772	16367
913.886	16249
914	16371
914.113	16367
914.226	16413
914.34	16363
914.453	16112
914.566	16352
914.68	16204
914.793	16101
914.906	16002
915.019	15987
915.132	15789
915.245	15915
915.358	16002
915.47	15819
915.583	15922
915.696	15918
915.809	15899
915.921	16078
916.034	15854
916.146	15732
916.259	15675
916.371	15854
916.483	15747
916.595	15724
916.708	15698
916.82	15652
916.932	15663
917.044	15629
917.156	15557
917.268	15557
917.38	15458
917.491	15447
917.603	15481
917.715	15485
917.826	15549
917.938	15420
918.049	15321
918.161	15485
918.272	15572
918.384	15572
918.495	15447
918.606	15321
918.717	15230
918.828	15268
918.939	15298
919.05	15237
919.161	15165
919.272	15070
919.383	15055
919.494	15233
919.604	15428
919.715	15260
919.826	15070
919.936	15138
920.047	15207
920.157	15066
920.267	15287
920.378	15138
920.488	15176
920.598	15313
920.708	15386
920.818	15275
920.928	15348
921.038	15428
921.148	15408
921.258	15093
921.368	14975
921.477	14899
921.587	14952
921.697	14800
921.806	14902
921.916	14701
922.025	14602
922.134	14556
922.244	14412
922.353	14606
922.462	14419
922.571	14377
922.68	14214
922.789	14206
922.898	14229
923.007	14077
923.116	14180
923.224	14180
923.333	14050
923.442	14001
923.55	14031
923.659	14024
923.767	14035
923.876	13925
923.984	14012
924.092	13845
924.201	13864
924.309	13898
924.417	13959
924.525	13811
924.633	13849
924.741	14659
924.849	13597
924.956	13799
925.064	13502
925.172	13499
925.279	13445
925.387	13567
925.494	13575
925.602	13655
925.709	13601
925.816	13445
925.924	13460
926.031	13563
926.138	13441
926.245	13476
926.352	13331
926.459	13499
926.566	13552
926.673	13369
926.779	13362
926.886	13316
926.993	13091
927.099	13171
927.206	13046
927.312	13057
927.419	13141
927.525	13164
927.631	13103
927.737	12993
927.843	12947
927.95	12859
928.056	12878
928.162	12848
928.267	13000
928.373	13521
928.479	12932
928.585	12753
928.69	12844
928.796	12875
928.901	12741
929.007	12654
929.112	12776
929.218	12787
929.323	12700
929.428	12620
929.533	12669
929.638	12528
929.743	12593
929.848	12589
929.953	12589
930.058	12490
930.163	12270
930.267	12289
930.372	12388
930.477	12220
930.581	12426
930.685	12334
930.79	12144
930.894	12117
930.998	12083
931.103	12186
931.207	11885
931.311	11882
931.415	11783
931.519	11539
931.623	11509
