Data from test_V78500241_3342.txt Node
Date: Fri Mar 25 16:04:57 CST 2022
User: usil
Spectrometer: V785-0024
Trigger mode: 0
Integration Time (sec): 4.000000E-1
Scans to average: 1
Nonlinearity correction enabled: false
Boxcar width: 0
Storing dark spectrum: false
XAxis mode: Wavelengths
Number of Pixels in Spectrum: 1024
>>>>>Begin Spectral Data<<<<<
801.071	28934
801.214	28858
801.356	28634
801.499	28584
801.641	28550
801.783	28440
801.926	28474
802.068	28440
802.211	28401
802.353	28192
802.496	28295
802.638	28204
802.78	28200
802.923	28044
803.065	28067
803.208	28032
803.35	28169
803.492	28421
803.635	28344
803.777	28223
803.919	28542
804.061	28774
804.204	28478
804.346	28325
804.488	28322
804.63	28398
804.773	28386
804.915	28436
805.057	28618
805.199	28538
805.341	28508
805.483	28489
805.626	28599
805.768	28341
805.91	28618
806.052	28626
806.194	28516
806.336	28828
806.478	28569
806.62	28717
806.762	28679
806.904	28976
807.046	29178
807.188	29124
807.33	29014
807.472	29105
807.614	28995
807.756	28965
807.898	28995
808.04	28866
808.182	28847
808.324	28888
808.465	29037
808.607	29170
808.749	29421
808.891	29421
809.033	29402
809.174	29292
809.316	29292
809.458	29353
809.6	29326
809.741	29315
809.883	29459
810.025	29493
810.166	29505
810.308	29604
810.45	29604
810.591	29322
810.733	29273
810.875	29288
811.016	29220
811.158	29223
811.299	29341
811.441	29509
811.582	29440
811.724	29334
811.865	29296
812.007	29402
812.148	29284
812.29	29391
812.431	29463
812.573	29535
812.714	29687
812.855	29817
812.997	29897
813.138	30136
813.279	29847
813.421	29809
813.562	29920
813.703	29608
813.845	29596
813.986	29254
814.127	29288
814.268	29044
814.41	29060
814.551	29048
814.692	29022
814.833	29014
814.974	28915
815.115	28976
815.256	28915
815.397	28915
815.539	28968
815.68	28702
815.821	28828
815.962	28908
816.103	28873
816.244	28664
816.385	28592
816.526	28649
816.666	28538
816.807	28249
816.948	28322
817.089	28455
817.23	28459
817.371	28322
817.512	28417
817.653	28314
817.793	28333
817.934	28322
818.075	28436
818.216	28303
818.356	28322
818.497	28185
818.638	28166
818.778	28147
818.919	28105
819.06	28139
819.2	28284
819.341	28291
819.481	28432
819.622	28478
819.762	28733
819.903	28641
820.043	28474
820.184	28542
820.324	28436
820.465	28550
820.605	28611
820.746	28413
820.886	28249
821.026	28557
821.167	28455
821.307	28596
821.447	28356
821.588	28253
821.728	28162
821.868	27991
822.008	27762
822.149	27880
822.289	27816
822.429	27614
822.569	27515
822.709	27397
822.849	27496
822.99	27443
823.13	27294
823.27	27344
823.41	27131
823.55	27218
823.69	27169
823.83	27138
823.97	27093
824.11	26982
824.25	26899
824.389	26933
824.529	26963
824.669	26944
824.809	27123
824.949	27001
825.089	27051
825.228	27032
825.368	26960
825.508	26861
825.648	26872
825.787	26872
825.927	26963
826.067	26727
826.206	26781
826.346	26982
826.485	27051
826.625	26842
826.765	26902
826.904	26967
827.044	26598
827.183	26724
827.323	26560
827.462	26613
827.601	26644
827.741	26583
827.88	26632
828.02	26594
828.159	26556
828.298	26552
828.437	26674
828.577	26453
828.716	26800
828.855	26575
828.994	26336
829.134	26347
829.273	26366
829.412	26225
829.551	26271
829.69	26111
829.829	26229
829.968	26221
830.107	26309
830.246	26332
830.385	26225
830.524	26191
830.663	26119
830.802	26005
830.941	25875
831.08	25928
831.219	25871
831.357	26008
831.496	26088
831.635	25909
831.774	25875
831.913	25830
832.051	25750
832.19	25727
832.329	25689
832.467	25635
832.606	25441
832.744	25479
832.883	25533
833.022	25537
833.16	25529
833.299	25578
833.437	25616
833.576	25681
833.714	25681
833.852	25704
833.991	25788
834.129	25624
834.267	25655
834.406	25666
834.544	25738
834.682	25795
834.821	25533
834.959	25776
835.097	25620
835.235	25738
835.373	25586
835.511	25578
835.65	25514
835.788	25449
835.926	25403
836.064	25289
836.202	25270
836.34	25628
836.478	25597
836.615	25350
836.753	25381
836.891	25533
837.029	25358
837.167	25491
837.305	25373
837.443	25381
837.58	25327
837.718	25228
837.856	25320
837.993	25259
838.131	25213
838.269	25088
838.406	25187
838.544	25069
838.681	25034
838.819	24947
838.956	24627
839.094	24886
839.231	24954
839.369	24875
839.506	25099
839.643	24954
839.781	24783
839.918	24707
840.055	24783
840.193	24639
840.33	24650
840.467	24787
840.604	24715
840.742	24848
840.879	24631
841.016	24597
841.153	24357
841.29	24787
841.427	24658
841.564	24749
841.701	24593
841.838	24608
841.975	24517
842.112	24631
842.249	24517
842.385	24464
842.522	24661
842.659	24547
842.796	24376
842.933	24517
843.069	24403
843.206	24407
843.343	24467
843.479	24410
843.616	24475
843.752	24228
843.889	24186
844.025	24311
844.162	24129
844.298	24262
844.435	24174
844.571	24163
844.708	24133
844.844	24262
844.98	24254
845.117	24292
845.253	24152
845.389	24030
845.525	24026
845.661	24038
845.798	23870
845.934	23977
846.07	23851
846.206	23939
846.342	23942
846.478	23863
846.614	23745
846.75	23581
846.886	23691
847.022	23817
847.158	23638
847.294	23691
847.429	23649
847.565	23665
847.701	23920
847.837	23349
847.972	23345
848.108	23379
848.244	23368
848.379	23147
848.515	23143
848.65	23166
848.786	23315
848.921	23132
849.057	23364
849.192	23178
849.328	23181
849.463	23280
849.598	23094
849.734	23155
849.869	23044
850.004	23037
850.14	23067
850.275	23048
850.41	22866
850.545	22915
850.68	22911
850.815	22972
850.95	22927
851.085	23132
851.22	23056
851.355	22984
851.49	22980
851.625	22938
851.76	23121
851.895	22873
852.03	22930
852.165	22949
852.299	22991
852.434	23151
852.569	22980
852.703	22961
852.838	23022
852.973	23105
853.107	23162
853.242	22900
853.376	22771
853.511	22645
853.645	22858
853.78	22934
853.914	22839
854.048	22740
854.183	22744
854.317	22839
854.451	23052
854.585	22877
854.72	22858
854.854	22892
854.988	22790
855.122	22774
855.256	22596
855.39	22904
855.524	22793
855.658	22805
855.792	22892
855.926	22850
856.06	22767
856.194	22881
856.327	22774
856.461	22778
856.595	22607
856.729	22824
856.862	22949
856.996	22831
857.13	22885
857.263	22881
857.397	22949
857.53	22809
857.664	22820
857.797	22812
857.931	22930
858.064	22858
858.197	22980
858.331	22767
858.464	22679
858.597	22767
858.731	22793
858.864	22748
858.997	22736
859.13	22717
859.263	22835
859.396	22961
859.529	22805
859.662	22748
859.795	22694
859.928	22763
860.061	22949
860.194	22881
860.327	22873
860.46	22816
860.592	23006
860.725	23010
860.858	22873
860.99	22850
861.123	22778
861.256	22736
861.388	22672
861.521	23501
861.653	22713
861.786	22626
861.918	22622
862.05	22687
862.183	22740
862.315	22748
862.447	22782
862.58	22736
862.712	22508
862.844	22474
862.976	22634
863.108	22481
863.24	22980
863.372	22599
863.504	22443
863.636	22413
863.768	22588
863.9	22474
864.032	22413
864.164	22565
864.296	22615
864.428	22603
864.559	22687
864.691	22561
864.823	22417
864.954	22447
865.086	22394
865.217	22459
865.349	22417
865.48	22421
865.612	22413
865.743	22554
865.875	22398
866.006	22325
866.137	22211
866.269	22341
866.4	22291
866.531	22310
866.662	22333
866.793	22223
866.924	22363
867.055	22371
867.186	22341
867.317	22223
867.448	22192
867.579	22139
867.71	22192
867.841	22322
867.972	22306
868.103	22169
868.233	22337
868.364	22337
868.495	22325
868.625	22516
868.756	22611
868.886	22478
869.017	22542
869.147	22755
869.278	22668
869.408	22584
869.539	22626
869.669	22656
869.799	22535
869.929	22702
870.06	22679
870.19	22908
870.32	22824
870.45	22927
870.58	22900
870.71	23113
870.84	23105
870.97	22953
871.1	22953
871.23	23006
871.36	23121
871.489	23056
871.619	23223
871.749	23136
871.879	23060
872.008	23280
872.138	23124
872.267	23140
872.397	23166
872.526	22858
872.656	23022
872.785	22885
872.915	23204
873.044	23178
873.173	23159
873.303	23204
873.432	23204
873.561	23261
873.69	23208
873.819	23231
873.948	23349
874.077	23261
874.206	23071
874.335	23086
874.464	23121
874.593	23452
874.722	23368
874.851	23436
874.979	23337
875.108	23273
875.237	23315
875.365	23239
875.494	23337
875.623	23444
875.751	23410
875.88	23421
876.008	23482
876.136	23512
876.265	23798
876.393	23973
876.521	23745
876.65	23927
876.778	23786
876.906	23764
877.034	23821
877.162	23878
877.29	23771
877.418	23691
877.546	23756
877.674	23672
877.802	23657
877.93	23691
878.058	23653
878.185	23710
878.313	23684
878.441	23592
878.568	23554
878.696	23577
878.824	23836
878.951	23859
879.079	23923
879.206	24034
879.333	23927
879.461	23729
879.588	23802
879.715	23954
879.842	23958
879.97	23802
880.097	23547
880.224	23531
880.351	23570
880.478	23486
880.605	23433
880.732	23615
880.859	23680
880.986	23455
881.112	23512
881.239	23345
881.366	23440
881.493	23079
881.619	23029
881.746	23136
881.872	23086
881.999	22961
882.125	23033
882.252	23128
882.378	22930
882.505	23235
882.631	23060
882.757	22828
882.883	22843
883.01	22771
883.136	22729
883.262	22584
883.388	22641
883.514	22759
883.64	22820
883.766	22577
883.892	22512
884.018	22592
884.143	22736
884.269	22691
884.395	22440
884.52	22352
884.646	22424
884.772	22356
884.897	22333
885.023	22569
885.148	22409
885.274	22557
885.399	22497
885.524	22356
885.65	22546
885.775	22386
885.9	22481
886.025	22516
886.15	22512
886.275	22268
886.4	22238
886.525	22436
886.65	22295
886.775	22299
886.9	22428
887.025	22489
887.149	22341
887.274	22147
887.399	22207
887.523	22090
887.648	22188
887.773	21994
887.897	22188
888.021	22067
888.146	22059
888.27	22253
888.395	22215
888.519	22120
888.643	22192
888.767	22051
888.891	22074
889.015	22021
889.139	21964
889.263	21941
889.387	21964
889.511	22143
889.635	22017
889.759	21739
889.883	21926
890.006	22051
890.13	21949
890.254	21850
890.377	21842
890.501	21717
890.624	21606
890.748	21720
890.871	21576
890.995	21481
891.118	21355
891.241	21500
891.364	21557
891.488	21458
891.611	21511
891.734	21545
891.857	21530
891.98	21431
892.103	21538
892.226	21428
892.349	21405
892.471	21325
892.594	21332
892.717	21439
892.839	21272
892.962	21462
893.085	21382
893.207	21317
893.33	21370
893.452	21264
893.575	21458
893.697	21283
893.819	21412
893.941	21583
894.064	21477
894.186	21306
894.308	21252
894.43	21549
894.552	21511
894.674	21466
894.796	21230
894.918	21428
895.04	21329
895.161	21332
895.283	21488
895.405	21275
895.526	21355
895.648	21096
895.769	21374
895.891	21332
896.012	21382
896.134	21443
896.255	21348
896.376	21252
896.498	21214
896.619	21405
896.74	21302
896.861	21321
896.982	21656
897.103	21671
897.224	21698
897.345	21610
897.466	21515
897.587	21466
897.708	21698
897.828	21542
897.949	21561
898.07	21431
898.19	21519
898.311	21682
898.431	21389
898.552	21545
898.672	21622
898.792	21690
898.913	21450
899.033	21511
899.153	21317
899.273	21260
899.393	21203
899.513	21329
899.633	21348
899.753	21252
899.873	21241
899.993	21256
900.113	21161
900.232	21180
900.352	21077
900.472	21074
900.591	20975
900.711	21070
900.83	20994
900.95	21108
901.069	21051
901.189	20994
901.308	20743
901.427	20678
901.546	20640
901.665	20617
901.784	20484
901.904	20412
902.023	20389
902.141	20161
902.26	20172
902.379	20103
902.498	20142
902.617	20054
902.735	20122
902.854	20096
902.973	19986
903.091	19978
903.21	19795
903.328	19670
903.446	19677
903.565	19613
903.683	19643
903.801	19392
903.919	19563
904.038	19430
904.156	19327
904.274	19350
904.392	19320
904.51	19217
904.627	19274
904.745	19476
904.863	19362
904.981	19152
905.098	19069
905.216	19110
905.334	18935
905.451	18920
905.569	18916
905.686	18989
905.803	19027
905.921	18757
906.038	18833
906.155	18757
906.272	18650
906.389	18597
906.506	18532
906.623	18513
906.74	18490
906.857	18311
906.974	18376
907.091	18460
907.208	18646
907.324	18456
907.441	18475
907.557	18133
907.674	18102
907.79	18163
907.907	18201
908.023	18159
908.139	18224
908.256	18133
908.372	18102
908.488	17969
908.604	17847
908.72	17958
908.836	17946
908.952	17771
909.068	17897
909.184	17999
909.3	17920
909.415	17897
909.531	17843
909.647	17638
909.762	17535
909.878	17611
909.993	17611
910.108	17532
910.224	17532
910.339	17573
910.454	17433
910.57	17440
910.685	17311
910.8	17638
910.915	17516
911.03	17421
911.145	17239
911.259	17216
911.374	17151
911.489	17033
911.604	16991
911.718	16942
911.833	16934
911.947	16881
912.062	16782
912.176	16911
912.291	16984
912.405	16881
912.519	17098
912.633	17037
912.748	16824
912.862	16820
912.976	16672
913.09	16508
913.204	16645
913.318	16725
913.431	16759
913.545	16835
913.659	16721
913.772	16615
913.886	16622
914	16504
914.113	16630
914.226	16645
914.34	16481
914.453	16360
914.566	16523
914.68	16462
914.793	16295
914.906	16215
915.019	16059
915.132	15960
915.245	16101
915.358	16063
915.47	16063
915.583	16040
915.696	16124
915.809	16143
915.921	16173
916.034	16002
916.146	15937
916.259	16036
916.371	16048
916.483	16002
916.595	15884
916.708	15747
916.82	15747
916.932	15793
917.044	15812
917.156	15743
917.268	15637
917.38	15660
917.491	15770
917.603	15549
917.715	15732
917.826	15800
917.938	15618
918.049	15447
918.161	15576
918.272	15800
918.384	15690
918.495	15656
918.606	15416
918.717	15431
918.828	15519
918.939	15519
919.05	15447
919.161	15439
919.272	15157
919.383	15252
919.494	15473
919.604	15545
919.715	15393
919.826	15340
919.936	15382
920.047	15473
920.157	15386
920.267	15610
920.378	15340
920.488	15344
920.598	15507
920.708	15625
920.818	15443
920.928	15507
921.038	15637
921.148	15507
921.258	15291
921.368	15207
921.477	15028
921.587	15142
921.697	15001
921.806	15077
921.916	14952
922.025	14785
922.134	14807
922.244	14686
922.353	14697
922.462	14587
922.571	14533
922.68	14446
922.789	14400
922.898	14313
923.007	14290
923.116	14366
923.224	14294
923.333	14339
923.442	14225
923.55	14172
923.659	14138
923.767	14282
923.876	14145
923.984	14153
924.092	14142
924.201	14043
924.309	14069
924.417	14046
924.525	14005
924.633	14001
924.741	14986
924.849	13811
924.956	13955
925.064	13753
925.172	13765
925.279	13734
925.387	13738
925.494	13731
925.602	13887
925.709	13750
925.816	13636
925.924	13727
926.031	13658
926.138	13693
926.245	13715
926.352	13537
926.459	13734
926.566	13750
926.673	13518
926.779	13624
926.886	13411
926.993	13316
927.099	13263
927.206	13285
927.312	13247
927.419	13293
927.525	13304
927.631	13236
927.737	13160
927.843	13012
927.95	13000
928.056	13019
928.162	13084
928.267	13206
928.373	13609
928.479	13194
928.585	12924
928.69	13008
928.796	13046
928.901	13065
929.007	12707
929.112	12837
929.218	12859
929.323	12867
929.428	12772
929.533	12859
929.638	12669
929.743	12745
929.848	12791
929.953	12669
930.058	12654
930.163	12467
930.267	12479
930.372	12528
930.477	12384
930.581	12589
930.685	12483
930.79	12353
930.894	12346
930.998	12342
931.103	12486
931.207	12079
931.311	12087
931.415	11969
931.519	11741
931.623	11657
