Data from test_V78500241_3101.txt Node
Date: Fri Mar 25 16:03:16 CST 2022
User: usil
Spectrometer: V785-0024
Trigger mode: 0
Integration Time (sec): 4.000000E-1
Scans to average: 1
Nonlinearity correction enabled: false
Boxcar width: 0
Storing dark spectrum: false
XAxis mode: Wavelengths
Number of Pixels in Spectrum: 1024
>>>>>Begin Spectral Data<<<<<
801.071	28363
801.214	28455
801.356	28162
801.499	28147
801.641	27983
801.783	28036
801.926	28063
802.068	28006
802.211	27869
802.353	27876
802.496	27778
802.638	27561
802.78	27797
802.923	27530
803.065	27545
803.208	27690
803.35	27629
803.492	27956
803.635	27816
803.777	27987
803.919	28032
804.061	28204
804.204	28166
804.346	27941
804.488	27838
804.63	27968
804.773	27876
804.915	27899
805.057	27998
805.199	28010
805.341	28124
805.483	28086
805.626	28147
805.768	27964
805.91	28093
806.052	28143
806.194	28044
806.336	28128
806.478	28181
806.62	28101
806.762	28238
806.904	28367
807.046	28618
807.188	28493
807.33	28550
807.472	28569
807.614	28649
807.756	28508
807.898	28329
808.04	28421
808.182	28276
808.324	28417
808.465	28440
808.607	28664
808.749	28736
808.891	28957
809.033	28915
809.174	28911
809.316	28755
809.458	28752
809.6	28740
809.741	28854
809.883	28980
810.025	29147
810.166	29117
810.308	29086
810.45	28938
810.591	28923
810.733	28744
810.875	28759
811.016	28820
811.158	28622
811.299	28923
811.441	28991
811.582	28949
811.724	28706
811.865	28717
812.007	28675
812.148	28797
812.29	28835
812.431	29006
812.573	29258
812.714	29166
812.855	29273
812.997	29436
813.138	29474
813.279	29478
813.421	29296
813.562	29326
813.703	29064
813.845	28999
813.986	28698
814.127	28630
814.268	28417
814.41	28462
814.551	28401
814.692	28573
814.833	28409
814.974	28432
815.115	28394
815.256	28405
815.397	28352
815.539	28508
815.68	28246
815.821	28154
815.962	28268
816.103	28344
816.244	28204
816.385	28078
816.526	28120
816.666	27854
816.807	27679
816.948	27914
817.089	27854
817.23	27774
817.371	27880
817.512	27892
817.653	27690
817.793	27781
817.934	27736
818.075	27720
818.216	27724
818.356	27660
818.497	27720
818.638	27549
818.778	27496
818.919	27568
819.06	27652
819.2	27660
819.341	27861
819.481	27880
819.622	28078
819.762	28101
819.903	27991
820.043	28051
820.184	27846
820.324	27930
820.465	27941
820.605	27892
820.746	27994
820.886	27827
821.026	27911
821.167	27991
821.307	27884
821.447	27987
821.588	27736
821.728	27656
821.868	27477
822.008	27386
822.149	27279
822.289	27256
822.429	27047
822.569	27055
822.709	26963
822.849	26697
822.99	26758
823.13	26876
823.27	26655
823.41	26587
823.55	26564
823.69	26750
823.83	26613
823.97	26571
824.11	26396
824.25	26423
824.389	26393
824.529	26514
824.669	26400
824.809	26511
824.949	26533
825.089	26545
825.228	26423
825.368	26282
825.508	26351
825.648	26324
825.787	26415
825.927	26351
826.067	26199
826.206	26355
826.346	26393
826.485	26404
826.625	26317
826.765	26465
826.904	26358
827.044	26035
827.183	26073
827.323	25982
827.462	26065
827.601	25974
827.741	25955
827.88	26161
828.02	25795
828.159	25906
828.298	25909
828.437	26027
828.577	26005
828.716	26008
828.855	25841
828.994	25685
829.134	25807
829.273	25662
829.412	25662
829.551	25613
829.69	25704
829.829	25674
829.968	25803
830.107	25860
830.246	25780
830.385	25632
830.524	25696
830.663	25499
830.802	25441
830.941	25251
831.08	25297
831.219	25381
831.357	25411
831.496	25521
831.635	25266
831.774	25247
831.913	25251
832.051	25133
832.19	25019
832.329	25133
832.467	25057
832.606	24935
832.744	24848
832.883	25038
833.022	24920
833.16	25046
833.299	25057
833.437	24943
833.576	25019
833.714	25050
833.852	25084
833.991	25145
834.129	25190
834.267	25072
834.406	25088
834.544	25198
834.682	25095
834.821	25118
834.959	25213
835.097	24932
835.235	25095
835.373	25076
835.511	25137
835.65	24954
835.788	24916
835.926	24806
836.064	24715
836.202	24859
836.34	24878
836.478	25031
836.615	24821
836.753	24951
836.891	24909
837.029	24996
837.167	24894
837.305	24920
837.443	24787
837.58	24753
837.718	24779
837.856	24688
837.993	24597
838.131	24661
838.269	24547
838.406	24555
838.544	24479
838.681	24467
838.819	24330
838.956	24159
839.094	24186
839.231	24327
839.369	24361
839.506	24582
839.643	24509
839.781	24239
839.918	24133
840.055	24133
840.193	24087
840.33	24155
840.467	24106
840.604	24072
840.742	24300
840.879	24026
841.016	23958
841.153	23946
841.29	24201
841.427	24129
841.564	24072
841.701	24125
841.838	24076
841.975	23954
842.112	24079
842.249	23809
842.385	23847
842.522	24022
842.659	24034
842.796	23923
842.933	23809
843.069	23741
843.206	23828
843.343	23824
843.479	23866
843.616	23954
843.752	23619
843.889	23771
844.025	23904
844.162	23596
844.298	23779
844.435	23657
844.571	23630
844.708	23874
844.844	23794
844.98	23790
845.117	23741
845.253	23638
845.389	23410
845.525	23471
845.661	23471
845.798	23353
845.934	23379
846.07	23364
846.206	23436
846.342	23482
846.478	23288
846.614	23086
846.75	23132
846.886	23018
847.022	23242
847.158	23037
847.294	23025
847.429	23155
847.565	23014
847.701	23360
847.837	22759
847.972	22748
848.108	22911
848.244	22908
848.379	22664
848.515	22584
848.65	22592
848.786	22713
848.921	22755
849.057	22744
849.192	22611
849.328	22725
849.463	22615
849.598	22603
849.734	22516
849.869	22516
850.004	22405
850.14	22428
850.275	22455
850.41	22276
850.545	22390
850.68	22329
850.815	22523
850.95	22413
851.085	22512
851.22	22538
851.355	22352
851.49	22363
851.625	22409
851.76	22356
851.895	22276
852.03	22333
852.165	22356
852.299	22421
852.434	22402
852.569	22519
852.703	22462
852.838	22481
852.973	22618
853.107	22485
853.242	22337
853.376	22390
853.511	22051
853.645	22131
853.78	22493
853.914	22257
854.048	22341
854.183	22280
854.317	22344
854.451	22462
854.585	22272
854.72	22265
854.854	22360
854.988	22291
855.122	22272
855.256	22074
855.39	22268
855.524	22238
855.658	22150
855.792	22219
855.926	22211
856.06	22200
856.194	22367
856.327	22226
856.461	22124
856.595	22185
856.729	22280
856.862	22382
856.996	22341
857.13	22303
857.263	22337
857.397	22348
857.53	22226
857.664	22299
857.797	22303
857.931	22432
858.064	22325
858.197	22367
858.331	22219
858.464	22246
858.597	22181
858.731	22226
858.864	22147
858.997	22147
859.13	22306
859.263	22268
859.396	22398
859.529	22272
859.662	22070
859.795	22192
859.928	22314
860.061	22390
860.194	22474
860.327	22306
860.46	22367
860.592	22466
860.725	22405
860.858	22390
860.99	22287
861.123	22219
861.256	22249
861.388	22276
861.521	22805
861.653	22211
861.786	21998
861.918	22112
862.05	22139
862.183	22188
862.315	22276
862.447	22291
862.58	22158
862.712	22112
862.844	22025
862.976	22010
863.108	22029
863.24	22356
863.372	21926
863.504	21903
863.636	21964
863.768	21972
863.9	21991
864.032	21876
864.164	22082
864.296	22036
864.428	22200
864.559	22032
864.691	21960
864.823	21987
864.954	21884
865.086	21907
865.217	21819
865.349	21816
865.48	21876
865.612	21964
865.743	21994
865.875	21915
866.006	21873
866.137	21732
866.269	21941
866.4	21831
866.531	21880
866.662	21736
866.793	21812
866.924	21739
867.055	21846
867.186	21835
867.317	21743
867.448	21793
867.579	21838
867.71	21781
867.841	21701
867.972	21835
868.103	21793
868.233	21728
868.364	21831
868.495	21846
868.625	21983
868.756	22128
868.886	21953
869.017	22021
869.147	22143
869.278	22105
869.408	21922
869.539	21895
869.669	22143
869.799	22131
869.929	22166
870.06	22177
870.19	22363
870.32	22348
870.45	22398
870.58	22440
870.71	22500
870.84	22577
870.97	22417
871.1	22500
871.23	22504
871.36	22573
871.489	22618
871.619	22535
871.749	22485
871.879	22736
872.008	22687
872.138	22588
872.267	22668
872.397	22440
872.526	22386
872.656	22405
872.785	22360
872.915	22656
873.044	22744
873.173	22634
873.303	22694
873.432	22733
873.561	22831
873.69	22717
873.819	22641
873.948	22752
874.077	22641
874.206	22615
874.335	22634
874.464	22694
874.593	22831
874.722	22930
874.851	22820
874.979	22942
875.108	22976
875.237	22896
875.365	22710
875.494	22805
875.623	22976
875.751	22809
875.88	22778
876.008	22858
876.136	23067
876.265	23227
876.393	23410
876.521	23235
876.65	23246
876.778	23318
876.906	23166
877.034	23223
877.162	23246
877.29	23132
877.418	23223
877.546	23239
877.674	23143
877.802	23136
877.93	23174
878.058	23162
878.185	23143
878.313	23132
878.441	23159
878.568	23033
878.696	23014
878.824	23197
878.951	23315
879.079	23326
879.206	23467
879.333	23322
879.461	23181
879.588	23299
879.715	23315
879.842	23524
879.97	23326
880.097	22972
880.224	23014
880.351	23105
880.478	22972
880.605	23037
880.732	23044
880.859	23288
880.986	22991
881.112	23060
881.239	22915
881.366	22771
881.493	22569
881.619	22694
881.746	22618
881.872	22580
881.999	22512
882.125	22481
882.252	22561
882.378	22447
882.505	22664
882.631	22493
882.757	22246
882.883	22398
883.01	22246
883.136	22188
883.262	22162
883.388	22051
883.514	22211
883.64	22318
883.766	22314
883.892	22063
884.018	22044
884.143	22246
884.269	22352
884.395	21972
884.52	21789
884.646	21888
884.772	21869
884.897	21911
885.023	21816
885.148	22078
885.274	22135
885.399	21911
885.524	21934
885.65	21937
885.775	21968
885.9	21945
886.025	21915
886.15	22002
886.275	21869
886.4	21816
886.525	21960
886.65	21789
886.775	21846
886.9	22010
887.025	22006
887.149	21915
887.274	21709
887.399	21629
887.523	21713
887.648	21663
887.773	21667
887.897	21713
888.021	21542
888.146	21614
888.27	21736
888.395	21759
888.519	21728
888.643	21618
888.767	21728
888.891	21576
889.015	21454
889.139	21564
889.263	21450
889.387	21553
889.511	21564
889.635	21530
889.759	21431
889.883	21393
890.006	21500
890.13	21557
890.254	21355
890.377	21336
890.501	21245
890.624	21207
890.748	21245
890.871	21055
890.995	21074
891.118	20952
891.241	21020
891.364	21055
891.488	21146
891.611	21017
891.734	20979
891.857	21005
891.98	21062
892.103	21081
892.226	20929
892.349	20902
892.471	20727
892.594	20990
892.717	20998
892.839	20963
892.962	20910
893.085	20933
893.207	20895
893.33	20777
893.452	20857
893.575	20948
893.697	20842
893.819	20994
893.941	21108
894.064	21036
894.186	20819
894.308	20758
894.43	21058
894.552	21058
894.674	20979
894.796	20765
894.918	20929
895.04	20952
895.161	20933
895.283	20857
895.405	20842
895.526	20883
895.648	20925
895.769	20975
895.891	20944
896.012	20952
896.134	20994
896.255	20975
896.376	20807
896.498	20788
896.619	20921
896.74	20883
896.861	20914
896.982	21135
897.103	21313
897.224	21131
897.345	21020
897.466	21066
897.587	21119
897.708	21283
897.828	21203
897.949	21085
898.07	20937
898.19	21066
898.311	21203
898.431	20941
898.552	20998
898.672	21070
898.792	21218
898.913	21074
899.033	20883
899.153	20895
899.273	20720
899.393	20838
899.513	20842
899.633	20891
899.753	20861
899.873	20746
899.993	20781
900.113	20864
900.232	20731
900.352	20796
900.472	20625
900.591	20587
900.711	20492
900.83	20568
900.95	20705
901.069	20629
901.189	20530
901.308	20218
901.427	20237
901.546	20115
901.665	20187
901.784	20100
901.904	20008
902.023	19868
902.141	19833
902.26	19738
902.379	19753
902.498	19658
902.617	19658
902.735	19624
902.854	19632
902.973	19677
903.091	19278
903.21	19304
903.328	19335
903.446	19247
903.565	19065
903.683	19175
903.801	18973
903.919	19209
904.038	18985
904.156	18958
904.274	18947
904.392	18863
904.51	18863
904.627	18806
904.745	18951
904.863	18882
904.981	18654
905.098	18570
905.216	18738
905.334	18646
905.451	18601
905.569	18578
905.686	18494
905.803	18426
905.921	18327
906.038	18433
906.155	18350
906.272	18285
906.389	18262
906.506	18186
906.623	18095
906.74	18106
906.857	17958
906.974	17996
907.091	18087
907.208	18213
907.324	18045
907.441	17897
907.557	17821
907.674	17775
907.79	17699
907.907	17764
908.023	17737
908.139	17813
908.256	17707
908.372	17718
908.488	17699
908.604	17596
908.72	17497
908.836	17505
908.952	17417
909.068	17627
909.184	17623
909.3	17448
909.415	17497
909.531	17551
909.647	17140
909.762	17216
909.878	17079
909.993	17227
910.108	17227
910.224	17166
910.339	17113
910.454	16987
910.57	16923
910.685	16911
910.8	17204
910.915	17086
911.03	16927
911.145	16869
911.259	16850
911.374	16858
911.489	16729
911.604	16645
911.718	16440
911.833	16489
911.947	16523
912.062	16394
912.176	16584
912.291	16580
912.405	16618
912.519	16683
912.633	16755
912.748	16588
912.862	16626
912.976	16421
913.09	16226
913.204	16325
913.318	16394
913.431	16500
913.545	16424
913.659	16443
913.772	16348
913.886	16238
914	16200
914.113	16322
914.226	16333
914.34	16261
914.453	16048
914.566	16188
914.68	16181
914.793	16032
914.906	15816
915.019	15808
915.132	15648
915.245	15759
915.358	15869
915.47	15747
915.583	15743
915.696	15781
915.809	15895
915.921	15888
916.034	15766
916.146	15717
916.259	15622
916.371	15747
916.483	15595
916.595	15530
916.708	15431
916.82	15496
916.932	15504
917.044	15447
917.156	15561
917.268	15351
917.38	15344
917.491	15382
917.603	15431
917.715	15545
917.826	15477
917.938	15279
918.049	15222
918.161	15325
918.272	15397
918.384	15435
918.495	15439
918.606	15245
918.717	15123
918.828	15119
918.939	15161
919.05	15074
919.161	15074
919.272	14971
919.383	15009
919.494	15195
919.604	15351
919.715	15127
919.826	14944
919.936	15104
920.047	15154
920.157	15104
920.267	15256
920.378	15081
920.488	15100
920.598	15268
920.708	15294
920.818	15165
920.928	15348
921.038	15405
921.148	15370
921.258	15051
921.368	14857
921.477	14876
921.587	14785
921.697	14762
921.806	14804
921.916	14686
922.025	14587
922.134	14465
922.244	14438
922.353	14522
922.462	14244
922.571	14286
922.68	14084
922.789	14054
922.898	14119
923.007	14001
923.116	14126
923.224	14043
923.333	14031
923.442	13970
923.55	13986
923.659	13936
923.767	13970
923.876	13753
923.984	13883
924.092	13856
924.201	13814
924.309	13833
924.417	13757
924.525	13772
924.633	13731
924.741	14476
924.849	13567
924.956	13761
925.064	13537
925.172	13422
925.279	13411
925.387	13548
925.494	13449
925.602	13590
925.709	13601
925.816	13304
925.924	13354
926.031	13495
926.138	13415
926.245	13365
926.352	13327
926.459	13388
926.566	13400
926.673	13381
926.779	13225
926.886	13141
926.993	12970
927.099	13038
927.206	13091
927.312	13019
927.419	13076
927.525	12973
927.631	13038
927.737	12897
927.843	12909
927.95	12730
928.056	12837
928.162	12878
928.267	12977
928.373	13487
928.479	12802
928.585	12639
928.69	12821
928.796	12837
928.901	12627
929.007	12494
929.112	12730
929.218	12589
929.323	12635
929.428	12502
929.533	12753
929.638	12536
929.743	12544
929.848	12486
929.953	12437
930.058	12395
930.163	12178
930.267	12296
930.372	12429
930.477	12205
930.581	12414
930.685	12308
930.79	11996
930.894	12148
930.998	12030
931.103	12281
931.207	11733
931.311	11767
931.415	11668
931.519	11493
931.623	11425
