Data from test_V78500241_13.txt Node
Date: Fri Mar 25 15:41:53 CST 2022
User: usil
Spectrometer: V785-0024
Trigger mode: 0
Integration Time (sec): 4.000000E-1
Scans to average: 1
Nonlinearity correction enabled: false
Boxcar width: 0
Storing dark spectrum: false
XAxis mode: Wavelengths
Number of Pixels in Spectrum: 1024
>>>>>Begin Spectral Data<<<<<
801.071	27089
801.214	27043
801.356	26644
801.499	26667
801.641	26381
801.783	26336
801.926	26473
802.068	26313
802.211	26294
802.353	26221
802.496	26153
802.638	26062
802.78	26016
802.923	26092
803.065	25807
803.208	25849
803.35	25963
803.492	26031
803.635	25951
803.777	26058
803.919	26138
804.061	26370
804.204	26119
804.346	25788
804.488	25852
804.63	25928
804.773	25811
804.915	26005
805.057	26088
805.199	25803
805.341	26043
805.483	25947
805.626	25894
805.768	25932
805.91	25928
806.052	25963
806.194	25868
806.336	25997
806.478	25936
806.62	25978
806.762	25928
806.904	26172
807.046	26320
807.188	26374
807.33	26256
807.472	26381
807.614	26126
807.756	26278
807.898	25986
808.04	26039
808.182	26084
808.324	26020
808.465	26130
808.607	26084
808.749	26377
808.891	26480
809.033	26648
809.174	26412
809.316	26248
809.458	26377
809.6	26408
809.741	26423
809.883	26564
810.025	26609
810.166	26522
810.308	26590
810.45	26621
810.591	26575
810.733	26244
810.875	26126
811.016	26176
811.158	26092
811.299	26309
811.441	26423
811.582	26484
811.724	26320
811.865	26195
812.007	26259
812.148	26183
812.29	26309
812.431	26427
812.573	26503
812.714	26697
812.855	26727
812.997	26815
813.138	26845
813.279	26765
813.421	26735
813.562	26727
813.703	26533
813.845	26358
813.986	26035
814.127	25868
814.268	25887
814.41	25811
814.551	25715
814.692	25757
814.833	25742
814.974	25651
815.115	25746
815.256	25495
815.397	25556
815.539	25457
815.68	25506
815.821	25392
815.962	25430
816.103	25430
816.244	25137
816.385	25255
816.526	25152
816.666	24989
816.807	24795
816.948	24913
817.089	24856
817.23	24947
817.371	24909
817.512	24772
817.653	24795
817.793	24825
817.934	24825
818.075	24833
818.216	24795
818.356	24688
818.497	24490
818.638	24429
818.778	24422
818.919	24426
819.06	24532
819.2	24525
819.341	24707
819.481	24673
819.622	24806
819.762	25061
819.903	24973
820.043	24894
820.184	24753
820.324	24703
820.465	24867
820.605	24688
820.746	24848
820.886	24639
821.026	24783
821.167	24730
821.307	24768
821.447	24688
821.588	24635
821.728	24388
821.868	24323
822.008	24022
822.149	24144
822.289	24053
822.429	23802
822.569	23798
822.709	23752
822.849	23539
822.99	23562
823.13	23486
823.27	23474
823.41	23425
823.55	23140
823.69	23417
823.83	23482
823.97	23208
824.11	23022
824.25	23006
824.389	23033
824.529	23181
824.669	23067
824.809	23143
824.949	23147
825.089	23136
825.228	23041
825.368	22797
825.508	22927
825.648	22881
825.787	22892
825.927	22892
826.067	22755
826.206	22862
826.346	22938
826.485	22980
826.625	22873
826.765	23014
826.904	22885
827.044	22516
827.183	22516
827.323	22523
827.462	22508
827.601	22523
827.741	22603
827.88	22462
828.02	22344
828.159	22470
828.298	22516
828.437	22577
828.577	22360
828.716	22459
828.855	22455
828.994	22363
829.134	22185
829.273	22223
829.412	22147
829.551	22162
829.69	22154
829.829	22017
829.968	22211
830.107	22242
830.246	22188
830.385	22135
830.524	21998
830.663	21918
830.802	21831
830.941	21599
831.08	21694
831.219	21789
831.357	21709
831.496	21975
831.635	21690
831.774	21496
831.913	21477
832.051	21538
832.19	21481
832.329	21542
832.467	21302
832.606	21298
832.744	21397
832.883	21199
833.022	21222
833.16	21378
833.299	21332
833.437	21264
833.576	21382
833.714	21302
833.852	21329
833.991	21348
834.129	21458
834.267	21351
834.406	21408
834.544	21408
834.682	21317
834.821	21214
834.959	21416
835.097	21142
835.235	21348
835.373	21275
835.511	21245
835.65	21310
835.788	21214
835.926	21074
836.064	20960
836.202	21024
836.34	21131
836.478	21203
836.615	21066
836.753	21256
836.891	21066
837.029	21294
837.167	21154
837.305	21123
837.443	21135
837.58	20982
837.718	21100
837.856	21047
837.993	20891
838.131	21070
838.269	20918
838.406	21032
838.544	20819
838.681	20659
838.819	20602
838.956	20571
839.094	20511
839.231	20522
839.369	20606
839.506	20842
839.643	20644
839.781	20396
839.918	20347
840.055	20400
840.193	20434
840.33	20492
840.467	20320
840.604	20423
840.742	20568
840.879	20195
841.016	20358
841.153	20267
841.29	20423
841.427	20347
841.564	20415
841.701	20256
841.838	20290
841.975	20191
842.112	20187
842.249	20145
842.385	20225
842.522	20317
842.659	20248
842.796	20008
842.933	20062
843.069	19947
843.206	19986
843.343	19997
843.479	19982
843.616	20039
843.752	19830
843.889	19811
844.025	19982
844.162	19639
844.298	19868
844.435	19734
844.571	19727
844.708	19849
844.844	19955
844.98	19887
845.117	19811
845.253	19791
845.389	19647
845.525	19616
845.661	19559
845.798	19491
845.934	19472
846.07	19586
846.206	19609
846.342	19674
846.478	19575
846.614	19236
846.75	19346
846.886	19244
847.022	19331
847.158	19282
847.294	19232
847.429	19259
847.565	19190
847.701	19502
847.837	18966
847.972	18901
848.108	19061
848.244	18973
848.379	18844
848.515	18810
848.65	18791
848.786	18901
848.921	18776
849.057	18867
849.192	18932
849.328	18871
849.463	18833
849.598	18696
849.734	18620
849.869	18692
850.004	18654
850.14	18650
850.275	18578
850.41	18467
850.545	18456
850.68	18540
850.815	18471
850.95	18448
851.085	18726
851.22	18585
851.355	18551
851.49	18566
851.625	18334
851.76	18361
851.895	18403
852.03	18422
852.165	18445
852.299	18540
852.434	18677
852.569	18544
852.703	18585
852.838	18517
852.973	18692
853.107	18631
853.242	18509
853.376	18384
853.511	18292
853.645	18247
853.78	18479
853.914	18311
854.048	18353
854.183	18372
854.317	18289
854.451	18498
854.585	18277
854.72	18330
854.854	18380
854.988	18277
855.122	18296
855.256	18213
855.39	18266
855.524	18243
855.658	18247
855.792	18388
855.926	18308
856.06	18376
856.194	18369
856.327	18304
856.461	18330
856.595	18372
856.729	18273
856.862	18429
856.996	18342
857.13	18357
857.263	18369
857.397	18346
857.53	18285
857.664	18369
857.797	18395
857.931	18391
858.064	18327
858.197	18350
858.331	18232
858.464	18194
858.597	18201
858.731	18258
858.864	18228
858.997	18235
859.13	18296
859.263	18308
859.396	18388
859.529	18289
859.662	18155
859.795	18254
859.928	18182
860.061	18353
860.194	18422
860.327	18205
860.46	18190
860.592	18372
860.725	18220
860.858	18422
860.99	18152
861.123	18228
861.256	18205
861.388	18270
861.521	18795
861.653	18091
861.786	18072
861.918	18125
862.05	18270
862.183	18152
862.315	18361
862.447	18315
862.58	18232
862.712	17996
862.844	17946
862.976	18038
863.108	17973
863.24	18395
863.372	17904
863.504	17980
863.636	18034
863.768	18045
863.9	17923
864.032	17760
864.164	17889
864.296	17939
864.428	18064
864.559	18038
864.691	17969
864.823	17988
864.954	17893
865.086	17840
865.217	17878
865.349	17805
865.48	17889
865.612	17859
865.743	17980
865.875	17878
866.006	17874
866.137	17847
866.269	17942
866.4	17824
866.531	17897
866.662	17729
866.793	17855
866.924	17790
867.055	17821
867.186	17878
867.317	17707
867.448	17764
867.579	17832
867.71	17756
867.841	17672
867.972	17828
868.103	17798
868.233	17775
868.364	17805
868.495	17923
868.625	18083
868.756	18114
868.886	17882
869.017	18034
869.147	18197
869.278	18266
869.408	18117
869.539	18155
869.669	18087
869.799	18167
869.929	18163
870.06	18098
870.19	18429
870.32	18361
870.45	18464
870.58	18498
870.71	18460
870.84	18589
870.97	18532
871.1	18422
871.23	18681
871.36	18646
871.489	18551
871.619	18528
871.749	18719
871.879	18719
872.008	18840
872.138	18696
872.267	18578
872.397	18502
872.526	18532
872.656	18528
872.785	18589
872.915	18677
873.044	18783
873.173	18711
873.303	18753
873.432	18802
873.561	18916
873.69	18738
873.819	18711
873.948	18757
874.077	18837
874.206	18707
874.335	18810
874.464	18844
874.593	18932
874.722	18977
874.851	18966
874.979	19107
875.108	19046
875.237	18875
875.365	18886
875.494	19065
875.623	19126
875.751	19023
875.88	19076
876.008	19145
876.136	19057
876.265	19392
876.393	19586
876.521	19559
876.65	19575
876.778	19472
876.906	19502
877.034	19297
877.162	19293
877.29	19263
877.418	19480
877.546	19373
877.674	19400
877.802	19358
877.93	19464
878.058	19403
878.185	19350
878.313	19362
878.441	19354
878.568	19164
878.696	19320
878.824	19343
878.951	19457
879.079	19563
879.206	19693
879.333	19594
879.461	19438
879.588	19388
879.715	19491
879.842	19719
879.97	19483
880.097	19148
880.224	19244
880.351	19168
880.478	19228
880.605	19221
880.732	19190
880.859	19400
880.986	19160
881.112	19225
881.239	19118
881.366	18962
881.493	18840
881.619	18814
881.746	18894
881.872	18852
881.999	18814
882.125	18726
882.252	18882
882.378	18867
882.505	18909
882.631	18760
882.757	18677
882.883	18681
883.01	18616
883.136	18506
883.262	18540
883.388	18426
883.514	18601
883.64	18681
883.766	18650
883.892	18437
884.018	18483
884.143	18631
884.269	18772
884.395	18330
884.52	18243
884.646	18289
884.772	18311
884.897	18159
885.023	18369
885.148	18441
885.274	18502
885.399	18395
885.524	18243
885.65	18319
885.775	18296
885.9	18254
886.025	18342
886.15	18376
886.275	18186
886.4	18243
886.525	18209
886.65	18133
886.775	18148
886.9	18254
887.025	18471
887.149	18201
887.274	18106
887.399	18072
887.523	17916
887.648	18068
887.773	18022
887.897	18140
888.021	18148
888.146	18007
888.27	18136
888.395	18190
888.519	18057
888.643	18038
888.767	18091
888.891	17942
889.015	17874
889.139	17950
889.263	17855
889.387	17961
889.511	18068
889.635	18041
889.759	17878
889.883	17855
890.006	17885
890.13	17965
890.254	17790
890.377	17767
890.501	17615
890.624	17547
890.748	17726
890.871	17509
890.995	17459
891.118	17478
891.241	17486
891.364	17516
891.488	17642
891.611	17501
891.734	17562
891.857	17577
891.98	17452
892.103	17554
892.226	17474
892.349	17478
892.471	17273
892.594	17356
892.717	17490
892.839	17433
892.962	17524
893.085	17528
893.207	17455
893.33	17277
893.452	17345
893.575	17379
893.697	17299
893.819	17592
893.941	17630
894.064	17585
894.186	17448
894.308	17372
894.43	17528
894.552	17623
894.674	17676
894.796	17372
894.918	17505
895.04	17421
895.161	17535
895.283	17490
895.405	17490
895.526	17547
895.648	17452
895.769	17486
895.891	17497
896.012	17562
896.134	17592
896.255	17543
896.376	17455
896.498	17547
896.619	17581
896.74	17630
896.861	17638
896.982	17965
897.103	18152
897.224	17882
897.345	17817
897.466	17699
897.587	17779
897.708	17939
897.828	17802
897.949	17783
898.07	17665
898.19	17802
898.311	17851
898.431	17764
898.552	17817
898.672	17817
898.792	17840
898.913	17767
899.033	17703
899.153	17566
899.273	17539
899.393	17516
899.513	17478
899.633	17497
899.753	17551
899.873	17433
899.993	17554
900.113	17433
900.232	17524
900.352	17482
900.472	17421
900.591	17280
900.711	17429
900.83	17360
900.95	17372
901.069	17353
901.189	17345
901.308	17014
901.427	16938
901.546	17014
901.665	17067
901.784	16987
901.904	16847
902.023	16721
902.141	16577
902.26	16500
902.379	16630
902.498	16554
902.617	16500
902.735	16535
902.854	16596
902.973	16341
903.091	16257
903.21	16169
903.328	16265
903.446	16162
903.565	16128
903.683	16032
903.801	16002
903.919	15987
904.038	16025
904.156	15892
904.274	16017
904.392	15759
904.51	15808
904.627	15762
904.745	15850
904.863	15800
904.981	15606
905.098	15382
905.216	15439
905.334	15542
905.451	15545
905.569	15485
905.686	15485
905.803	15408
905.921	15348
906.038	15386
906.155	15283
906.272	15226
906.389	15188
906.506	15047
906.623	14994
906.74	14960
906.857	15028
906.974	14941
907.091	15051
907.208	15119
907.324	15100
907.441	14979
907.557	14861
907.674	14746
907.79	14621
907.907	14701
908.023	14697
908.139	14735
908.256	14743
908.372	14659
908.488	14587
908.604	14476
908.72	14423
908.836	14514
908.952	14374
909.068	14404
909.184	14454
909.3	14457
909.415	14400
909.531	14358
909.647	14244
909.762	14176
909.878	14164
909.993	14195
910.108	14100
910.224	14069
910.339	14111
910.454	14001
910.57	13947
910.685	13906
910.8	14168
910.915	14100
911.03	13959
911.145	13860
911.259	13875
911.374	13727
911.489	13788
911.604	13681
911.718	13529
911.833	13597
911.947	13537
912.062	13415
912.176	13556
912.291	13575
912.405	13582
912.519	13636
912.633	13772
912.748	13548
912.862	13491
912.976	13343
913.09	13301
913.204	13335
913.318	13255
913.431	13384
913.545	13495
913.659	13487
913.772	13255
913.886	13183
914	13194
914.113	13263
914.226	13293
914.34	13274
914.453	13080
914.566	13240
914.68	13118
914.793	13084
914.906	12913
915.019	12856
915.132	12833
915.245	12894
915.358	12890
915.47	12829
915.583	12985
915.696	12890
915.809	13072
915.921	13072
916.034	12901
916.146	12779
916.259	12795
916.371	12871
916.483	12878
916.595	12722
916.708	12665
916.82	12768
916.932	12681
917.044	12696
917.156	12703
917.268	12585
917.38	12593
917.491	12582
917.603	12642
917.715	12688
917.826	12722
917.938	12559
918.049	12467
918.161	12566
918.272	12734
918.384	12719
918.495	12604
918.606	12437
918.717	12372
918.828	12525
918.939	12399
919.05	12319
919.161	12403
919.272	12186
919.383	12285
919.494	12490
919.604	12593
919.715	12464
919.826	12254
919.936	12270
920.047	12460
920.157	12448
920.267	12532
920.378	12388
920.488	12304
920.598	12506
920.708	12692
920.818	12547
920.928	12407
921.038	12703
921.148	12635
921.258	12334
921.368	12308
921.477	12201
921.587	12148
921.697	11996
921.806	12190
921.916	12030
922.025	11851
922.134	11821
922.244	11821
922.353	11920
922.462	11722
922.571	11592
922.68	11478
922.789	11436
922.898	11509
923.007	11379
923.116	11486
923.224	11459
923.333	11512
923.442	11345
923.55	11383
923.659	11353
923.767	11341
923.876	11318
923.984	11417
924.092	11143
924.201	11288
924.309	11288
924.417	11220
924.525	11140
924.633	11223
924.741	12117
924.849	10984
924.956	11162
925.064	11037
925.172	10927
925.279	10972
925.387	11029
925.494	10923
925.602	11174
925.709	11102
925.816	10980
925.924	10949
926.031	11121
926.138	10889
926.245	10980
926.352	10885
926.459	11048
926.566	11086
926.673	10850
926.779	10869
926.886	10752
926.993	10653
927.099	10691
927.206	10664
927.312	10580
927.419	10561
927.525	10637
927.631	10672
927.737	10481
927.843	10504
927.95	10398
928.056	10504
928.162	10470
928.267	10603
928.373	11189
928.479	10542
928.585	10371
928.69	10519
928.796	10558
928.901	10356
929.007	10181
929.112	10341
929.218	10398
929.323	10363
929.428	10287
929.533	10398
929.638	10215
929.743	10215
929.848	10215
929.953	10169
930.058	10128
930.163	9968
930.267	9983
930.372	10109
930.477	9869
930.581	10143
930.685	10048
930.79	9953
930.894	9930
930.998	9842
931.103	10029
931.207	9629
931.311	9614
931.415	9485
931.519	9321
931.623	9325
