Data from test_V78500241_1189.txt Node
Date: Fri Mar 25 15:50:02 CST 2022
User: usil
Spectrometer: V785-0024
Trigger mode: 0
Integration Time (sec): 4.000000E-1
Scans to average: 1
Nonlinearity correction enabled: false
Boxcar width: 0
Storing dark spectrum: false
XAxis mode: Wavelengths
Number of Pixels in Spectrum: 1024
>>>>>Begin Spectral Data<<<<<
801.071	28550
801.214	28565
801.356	28398
801.499	28295
801.641	28013
801.783	28139
801.926	28112
802.068	28101
802.211	28063
802.353	27987
802.496	27831
802.638	27823
802.78	27728
802.923	27656
803.065	27736
803.208	27804
803.35	27751
803.492	27934
803.635	28116
803.777	27793
803.919	28067
804.061	28253
804.204	27991
804.346	27987
804.488	27888
804.63	28105
804.773	28048
804.915	28093
805.057	28147
805.199	28101
805.341	28093
805.483	28207
805.626	28249
805.768	27827
805.91	28147
806.052	28185
806.194	28173
806.336	28421
806.478	28162
806.62	28261
806.762	28485
806.904	28413
807.046	28771
807.188	28710
807.33	28577
807.472	28691
807.614	28531
807.756	28622
807.898	28470
808.04	28375
808.182	28413
808.324	28584
808.465	28599
808.607	28885
808.749	28938
808.891	28987
809.033	29056
809.174	28938
809.316	28934
809.458	28908
809.6	28809
809.741	28915
809.883	29098
810.025	29235
810.166	29185
810.308	29185
810.45	29105
810.591	29151
810.733	29060
810.875	28953
811.016	28805
811.158	28809
811.299	28980
811.441	28923
811.582	29273
811.724	28854
811.865	28858
812.007	28927
812.148	28850
812.29	29014
812.431	29022
812.573	29261
812.714	29440
812.855	29349
812.997	29524
813.138	29638
813.279	29372
813.421	29467
813.562	29273
813.703	29185
813.845	29185
813.986	28976
814.127	28843
814.268	28736
814.41	28717
814.551	28580
814.692	28843
814.833	28611
814.974	28584
815.115	28577
815.256	28443
815.397	28413
815.539	28516
815.68	28443
815.821	28398
815.962	28303
816.103	28523
816.244	28295
816.385	28105
816.526	28101
816.666	28032
816.807	27949
816.948	27968
817.089	28097
817.23	28025
817.371	27994
817.512	28002
817.653	27964
817.793	27903
817.934	27975
818.075	27876
818.216	27956
818.356	27972
818.497	27690
818.638	27724
818.778	27759
818.919	27545
819.06	27762
819.2	27747
819.341	27888
819.481	27998
819.622	28105
819.762	28371
819.903	28173
820.043	28128
820.184	28306
820.324	28013
820.465	28112
820.605	28017
820.746	28139
820.886	27850
821.026	28082
821.167	28036
821.307	28036
821.447	28017
821.588	27907
821.728	27743
821.868	27633
822.008	27367
822.149	27496
822.289	27424
822.429	27180
822.569	27123
822.709	27081
822.849	26982
822.99	26979
823.13	26940
823.27	26777
823.41	26796
823.55	26693
823.69	26693
823.83	26773
823.97	26617
824.11	26746
824.25	26579
824.389	26541
824.529	26712
824.669	26686
824.809	26830
824.949	26594
825.089	26743
825.228	26541
825.368	26556
825.508	26450
825.648	26358
825.787	26693
825.927	26640
826.067	26568
826.206	26522
826.346	26476
826.485	26465
826.625	26404
826.765	26484
826.904	26480
827.044	26259
827.183	26218
827.323	26153
827.462	26248
827.601	26218
827.741	26202
827.88	26115
828.02	26043
828.159	26119
828.298	26259
828.437	26305
828.577	26218
828.716	26233
828.855	26039
828.994	26111
829.134	25868
829.273	25966
829.412	25761
829.551	25837
829.69	25909
829.829	25822
829.968	25925
830.107	25928
830.246	25788
830.385	26001
830.524	25715
830.663	25586
830.802	25499
830.941	25415
831.08	25533
831.219	25537
831.357	25647
831.496	25586
831.635	25308
831.774	25411
831.913	25403
832.051	25335
832.19	25221
832.329	25282
832.467	25198
832.606	25187
832.744	25217
832.883	25171
833.022	25164
833.16	25091
833.299	25164
833.437	25278
833.576	25179
833.714	25206
833.852	25255
833.991	25240
834.129	25278
834.267	25304
834.406	25209
834.544	25209
834.682	25107
834.821	25183
834.959	25434
835.097	25072
835.235	25187
835.373	25346
835.511	25217
835.65	25103
835.788	25152
835.926	24985
836.064	24806
836.202	24909
836.34	24932
836.478	25084
836.615	24901
836.753	25004
836.891	25008
837.029	25019
837.167	24920
837.305	24932
837.443	25012
837.58	24829
837.718	24954
837.856	24863
837.993	24844
838.131	24795
838.269	24722
838.406	24821
838.544	24707
838.681	24616
838.819	24486
838.956	24414
839.094	24277
839.231	24403
839.369	24555
839.506	24745
839.643	24544
839.781	24304
839.918	24247
840.055	24315
840.193	24338
840.33	24243
840.467	24194
840.604	24273
840.742	24597
840.879	24125
841.016	24163
841.153	24129
841.29	24426
841.427	24190
841.564	24247
841.701	24281
841.838	24213
841.975	24098
842.112	24091
842.249	24140
842.385	23942
842.522	24273
842.659	24076
842.796	23961
842.933	24110
843.069	23912
843.206	24007
843.343	24121
843.479	24049
843.616	23863
843.752	23802
843.889	23866
844.025	23885
844.162	23726
844.298	23771
844.435	23760
844.571	23786
844.708	23824
844.844	23916
844.98	23805
845.117	23931
845.253	23638
845.389	23684
845.525	23718
845.661	23589
845.798	23406
845.934	23623
846.07	23372
846.206	23543
846.342	23615
846.478	23520
846.614	23376
846.75	23109
846.886	23261
847.022	23368
847.158	23216
847.294	23231
847.429	23258
847.565	23151
847.701	23353
847.837	22877
847.972	22862
848.108	23022
848.244	22839
848.379	22866
848.515	22915
848.65	22820
848.786	22847
848.921	22930
849.057	22847
849.192	22991
849.328	22839
849.463	22847
849.598	22774
849.734	22675
849.869	22710
850.004	22557
850.14	22504
850.275	22599
850.41	22443
850.545	22447
850.68	22538
850.815	22615
850.95	22474
851.085	22740
851.22	22656
851.355	22626
851.49	22580
851.625	22622
851.76	22649
851.895	22504
852.03	22569
852.165	22618
852.299	22603
852.434	22607
852.569	22607
852.703	22584
852.838	22641
852.973	22679
853.107	22653
853.242	22592
853.376	22443
853.511	22363
853.645	22299
853.78	22622
853.914	22462
854.048	22390
854.183	22314
854.317	22436
854.451	22493
854.585	22261
854.72	22352
854.854	22489
854.988	22284
855.122	22371
855.256	22344
855.39	22459
855.524	22607
855.658	22428
855.792	22474
855.926	22421
856.06	22268
856.194	22485
856.327	22413
856.461	22268
856.595	22337
856.729	22310
856.862	22504
856.996	22356
857.13	22481
857.263	22500
857.397	22394
857.53	22352
857.664	22474
857.797	22462
857.931	22592
858.064	22318
858.197	22459
858.331	22287
858.464	22322
858.597	22341
858.731	22421
858.864	22402
858.997	22310
859.13	22443
859.263	22363
859.396	22470
859.529	22409
859.662	22390
859.795	22352
859.928	22405
860.061	22417
860.194	22497
860.327	22447
860.46	22424
860.592	22489
860.725	22550
860.858	22535
860.99	22318
861.123	22306
861.256	22421
861.388	22436
861.521	22980
861.653	22192
861.786	22192
861.918	22147
862.05	22306
862.183	22344
862.315	22379
862.447	22322
862.58	22299
862.712	21972
862.844	22078
862.976	22295
863.108	22185
863.24	22607
863.372	22090
863.504	22025
863.636	22139
863.768	22021
863.9	22078
864.032	22082
864.164	22070
864.296	22090
864.428	22162
864.559	22196
864.691	22124
864.823	22017
864.954	22086
865.086	22207
865.217	21941
865.349	21922
865.48	21991
865.612	21926
865.743	22090
865.875	22048
866.006	21934
866.137	22021
866.269	21911
866.4	21964
866.531	21930
866.662	21892
866.793	21892
866.924	21945
867.055	21991
867.186	22029
867.317	21861
867.448	21770
867.579	21922
867.71	21800
867.841	21804
867.972	21934
868.103	21915
868.233	21850
868.364	22006
868.495	22010
868.625	22063
868.756	22253
868.886	21987
869.017	22105
869.147	22135
869.278	22230
869.408	22139
869.539	22150
869.669	22276
869.799	22131
869.929	22181
870.06	22295
870.19	22386
870.32	22478
870.45	22519
870.58	22413
870.71	22615
870.84	22675
870.97	22599
871.1	22500
871.23	22831
871.36	22721
871.489	22611
871.619	22736
871.749	22790
871.879	22653
872.008	22843
872.138	22717
872.267	22771
872.397	22622
872.526	22588
872.656	22542
872.785	22615
872.915	22805
873.044	22786
873.173	22729
873.303	22797
873.432	22850
873.561	22809
873.69	22679
873.819	22759
873.948	22824
874.077	22797
874.206	22611
874.335	22721
874.464	22938
874.593	22991
874.722	22896
874.851	23010
874.979	22953
875.108	22923
875.237	22797
875.365	22828
875.494	22991
875.623	22946
875.751	22938
875.88	23010
876.008	23124
876.136	23064
876.265	23296
876.393	23406
876.521	23501
876.65	23425
876.778	23261
876.906	23208
877.034	23227
877.162	23242
877.29	23265
877.418	23227
877.546	23326
877.674	23296
877.802	23303
877.93	23334
878.058	23200
878.185	23200
878.313	23311
878.441	23341
878.568	23048
878.696	23159
878.824	23341
878.951	23383
879.079	23448
879.206	23577
879.333	23471
879.461	23395
879.588	23436
879.715	23554
879.842	23691
879.97	23360
880.097	23189
880.224	23079
880.351	23151
880.478	23075
880.605	23079
880.732	23121
880.859	23387
880.986	23014
881.112	23239
881.239	22869
881.366	22801
881.493	22835
881.619	22725
881.746	22793
881.872	22698
881.999	22736
882.125	22645
882.252	22786
882.378	22611
882.505	22755
882.631	22500
882.757	22375
882.883	22577
883.01	22360
883.136	22375
883.262	22310
883.388	22253
883.514	22226
883.64	22497
883.766	22382
883.892	22166
884.018	22249
884.143	22261
884.269	22363
884.395	22105
884.52	22036
884.646	22040
884.772	21941
884.897	21865
885.023	22074
885.148	21956
885.274	22139
885.399	22101
885.524	21915
885.65	22128
885.775	21987
885.9	21930
886.025	22036
886.15	22067
886.275	21964
886.4	21876
886.525	21937
886.65	21949
886.775	21918
886.9	22131
887.025	22219
887.149	21998
887.274	21854
887.399	21785
887.523	21736
887.648	21717
887.773	21774
887.897	21903
888.021	21720
888.146	21846
888.27	21869
888.395	21873
888.519	21759
888.643	21743
888.767	21755
888.891	21633
889.015	21561
889.139	21622
889.263	21526
889.387	21652
889.511	21956
889.635	21751
889.759	21428
889.883	21496
890.006	21595
890.13	21667
890.254	21367
890.377	21530
890.501	21367
890.624	21275
890.748	21447
890.871	21135
890.995	21074
891.118	21169
891.241	21199
891.364	21051
891.488	21230
891.611	21135
891.734	21108
891.857	21058
891.98	21131
892.103	21173
892.226	21058
892.349	21047
892.471	20921
892.594	21001
892.717	21085
892.839	20937
892.962	20960
893.085	21077
893.207	20986
893.33	20845
893.452	21009
893.575	21005
893.697	21009
893.819	21161
893.941	21237
894.064	21047
894.186	20895
894.308	20902
894.43	21005
894.552	21093
894.674	20960
894.796	20906
894.918	20921
895.04	20899
895.161	21055
895.283	21131
895.405	20887
895.526	20902
895.648	20967
895.769	21001
895.891	21070
896.012	21066
896.134	21043
896.255	20998
896.376	20838
896.498	20956
896.619	21005
896.74	21032
896.861	20948
896.982	21252
897.103	21291
897.224	21218
897.345	21226
897.466	21123
897.587	21100
897.708	21264
897.828	21256
897.949	21146
898.07	21013
898.19	21169
898.311	21199
898.431	21032
898.552	21154
898.672	21199
898.792	21256
898.913	21119
899.033	20979
899.153	20933
899.273	20811
899.393	20918
899.513	20891
899.633	20937
899.753	20982
899.873	20826
899.993	20952
900.113	20845
900.232	20902
900.352	20815
900.472	20682
900.591	20632
900.711	20701
900.83	20678
900.95	20731
901.069	20625
901.189	20697
901.308	20324
901.427	20240
901.546	20126
901.665	20218
901.784	20248
901.904	20054
902.023	20065
902.141	19868
902.26	19822
902.379	19811
902.498	19795
902.617	19655
902.735	19723
902.854	19696
902.973	19681
903.091	19373
903.21	19255
903.328	19441
903.446	19263
903.565	19171
903.683	19114
903.801	19050
903.919	19118
904.038	19091
904.156	18962
904.274	19038
904.392	18890
904.51	18783
904.627	18882
904.745	18970
904.863	18993
904.981	18810
905.098	18570
905.216	18642
905.334	18681
905.451	18722
905.569	18604
905.686	18650
905.803	18635
905.921	18521
906.038	18448
906.155	18384
906.272	18308
906.389	18327
906.506	18194
906.623	18186
906.74	18224
906.857	17980
906.974	18148
907.091	18152
907.208	18194
907.324	18140
907.441	18091
907.557	17885
907.674	17912
907.79	17851
907.907	17939
908.023	17760
908.139	17893
908.256	17859
908.372	17855
908.488	17756
908.604	17611
908.72	17608
908.836	17554
908.952	17497
909.068	17623
909.184	17699
909.3	17615
909.415	17615
909.531	17615
909.647	17315
909.762	17277
909.878	17223
909.993	17311
910.108	17258
910.224	17128
910.339	17216
910.454	17136
910.57	17140
910.685	17003
910.8	17227
910.915	17052
911.03	17086
911.145	16904
911.259	16850
911.374	16869
911.489	16793
911.604	16656
911.718	16603
911.833	16558
911.947	16531
912.062	16485
912.176	16691
912.291	16622
912.405	16588
912.519	16748
912.633	16740
912.748	16645
912.862	16588
912.976	16500
913.09	16284
913.204	16447
913.318	16398
913.431	16573
913.545	16493
913.659	16645
913.772	16352
913.886	16207
914	16223
914.113	16162
914.226	16348
914.34	16280
914.453	16071
914.566	16215
914.68	16105
914.793	16055
914.906	15876
915.019	15781
915.132	15755
915.245	15785
915.358	15804
915.47	15808
915.583	15804
915.696	15823
915.809	15800
915.921	15960
916.034	15713
916.146	15671
916.259	15667
916.371	15709
916.483	15785
916.595	15580
916.708	15622
916.82	15641
916.932	15538
917.044	15591
917.156	15485
917.268	15466
917.38	15291
917.491	15351
917.603	15367
917.715	15454
917.826	15545
917.938	15321
918.049	15211
918.161	15412
918.272	15564
918.384	15439
918.495	15256
918.606	15165
918.717	15207
918.828	15146
918.939	15119
919.05	15047
919.161	15161
919.272	14895
919.383	15005
919.494	15214
919.604	15344
919.715	15119
919.826	15055
919.936	15058
920.047	15180
920.157	15180
920.267	15370
920.378	15097
920.488	15119
920.598	15249
920.708	15313
920.818	15306
920.928	15203
921.038	15389
921.148	15329
921.258	15116
921.368	14929
921.477	14849
921.587	14750
921.697	14594
921.806	14769
921.916	14731
922.025	14530
922.134	14530
922.244	14377
922.353	14541
922.462	14366
922.571	14259
922.68	14126
922.789	14046
922.898	14138
923.007	14050
923.116	14123
923.224	14046
923.333	14145
923.442	13925
923.55	13864
923.659	13932
923.767	13978
923.876	13898
923.984	13917
924.092	13811
924.201	13868
924.309	13791
924.417	13780
924.525	13647
924.633	13807
924.741	14579
924.849	13575
924.956	13715
925.064	13529
925.172	13438
925.279	13445
925.387	13476
925.494	13457
925.602	13586
925.709	13483
925.816	13381
925.924	13449
926.031	13453
926.138	13453
926.245	13468
926.352	13278
926.459	13373
926.566	13495
926.673	13362
926.779	13236
926.886	13168
926.993	13027
927.099	13019
927.206	13057
927.312	13023
927.419	13042
927.525	13031
927.631	13095
927.737	12932
927.843	12878
927.95	12791
928.056	12802
928.162	12901
928.267	12863
928.373	13540
928.479	12935
928.585	12734
928.69	12768
928.796	12844
928.901	12688
929.007	12582
929.112	12753
929.218	12597
929.323	12623
929.428	12566
929.533	12741
929.638	12471
929.743	12490
929.848	12574
929.953	12544
930.058	12372
930.163	12224
930.267	12205
930.372	12350
930.477	12178
930.581	12441
930.685	12323
930.79	12114
930.894	12232
930.998	12060
931.103	12155
931.207	11847
931.311	11783
931.415	11668
931.519	11417
931.623	11486
