Data from test_V78500241_1289.txt Node
Date: Fri Mar 25 15:50:43 CST 2022
User: usil
Spectrometer: V785-0024
Trigger mode: 0
Integration Time (sec): 4.000000E-1
Scans to average: 1
Nonlinearity correction enabled: false
Boxcar width: 0
Storing dark spectrum: false
XAxis mode: Wavelengths
Number of Pixels in Spectrum: 1024
>>>>>Begin Spectral Data<<<<<
801.071	28599
801.214	28405
801.356	28249
801.499	28303
801.641	28101
801.783	28124
801.926	28150
802.068	28059
802.211	28109
802.353	28131
802.496	27709
802.638	27774
802.78	27797
802.923	27656
803.065	27599
803.208	27686
803.35	27759
803.492	27876
803.635	27968
803.777	27854
803.919	27884
804.061	28150
804.204	28036
804.346	27884
804.488	27884
804.63	28059
804.773	27907
804.915	27998
805.057	28135
805.199	27934
805.341	28063
805.483	28257
805.626	28207
805.768	28086
805.91	28051
806.052	28257
806.194	28188
806.336	28341
806.478	28219
806.62	28207
806.762	28276
806.904	28386
807.046	28664
807.188	28573
807.33	28637
807.472	28607
807.614	28550
807.756	28630
807.898	28443
808.04	28519
808.182	28550
808.324	28557
808.465	28542
808.607	28771
808.749	28797
808.891	28862
809.033	29029
809.174	28854
809.316	28957
809.458	28797
809.6	28923
809.741	28968
809.883	28972
810.025	29098
810.166	29197
810.308	29083
810.45	29102
810.591	29140
810.733	28843
810.875	28801
811.016	28733
811.158	28694
811.299	28885
811.441	29064
811.582	29056
811.724	28911
811.865	28835
812.007	28900
812.148	28915
812.29	28816
812.431	28938
812.573	29303
812.714	29296
812.855	29337
812.997	29463
813.138	29570
813.279	29512
813.421	29387
813.562	29486
813.703	29155
813.845	29044
813.986	28877
814.127	28725
814.268	28478
814.41	28618
814.551	28474
814.692	28683
814.833	28592
814.974	28470
815.115	28649
815.256	28550
815.397	28481
815.539	28447
815.68	28341
815.821	28337
815.962	28390
816.103	28466
816.244	28291
816.385	28131
816.526	28238
816.666	27888
816.807	27812
816.948	27895
817.089	28029
817.23	28013
817.371	27789
817.512	27846
817.653	27914
817.793	27876
817.934	27724
818.075	27975
818.216	27998
818.356	27759
818.497	27728
818.638	27523
818.778	27591
818.919	27682
819.06	27545
819.2	27705
819.341	27903
819.481	27793
819.622	28109
819.762	28257
819.903	28158
820.043	28036
820.184	27934
820.324	27934
820.465	27831
820.605	27922
820.746	28021
820.886	27865
821.026	28036
821.167	27994
821.307	28032
821.447	28036
821.588	27774
821.728	27686
821.868	27454
822.008	27401
822.149	27515
822.289	27397
822.429	27100
822.569	27081
822.709	26952
822.849	26861
822.99	26868
823.13	26712
823.27	27024
823.41	26758
823.55	26560
823.69	26788
823.83	26785
823.97	26682
824.11	26465
824.25	26404
824.389	26488
824.529	26533
824.669	26461
824.809	26564
824.949	26568
825.089	26541
825.228	26552
825.368	26427
825.508	26476
825.648	26453
825.787	26396
825.927	26355
826.067	26256
826.206	26377
826.346	26476
826.485	26408
826.625	26305
826.765	26541
826.904	26541
827.044	26172
827.183	26050
827.323	26130
827.462	26168
827.601	26115
827.741	26157
827.88	26119
828.02	26031
828.159	25989
828.298	25986
828.437	26168
828.577	26065
828.716	26172
828.855	26096
828.994	25860
829.134	25784
829.273	25906
829.412	25833
829.551	25651
829.69	25712
829.829	25833
829.968	25826
830.107	25841
830.246	25807
830.385	25830
830.524	25628
830.663	25518
830.802	25548
830.941	25502
831.08	25289
831.219	25544
831.357	25578
831.496	25651
831.635	25403
831.774	25396
831.913	25202
832.051	25278
832.19	25297
832.329	25255
832.467	25027
832.606	25171
832.744	24966
832.883	25107
833.022	25053
833.16	25118
833.299	25118
833.437	25145
833.576	25293
833.714	25061
833.852	25221
833.991	25255
834.129	25183
834.267	25228
834.406	25331
834.544	25148
834.682	25137
834.821	25145
834.959	25190
835.097	25080
835.235	25099
835.373	25004
835.511	25118
835.65	24973
835.788	25118
835.926	24856
836.064	24837
836.202	24833
836.34	24989
836.478	25012
836.615	24890
836.753	25000
836.891	25034
837.029	24939
837.167	24821
837.305	24905
837.443	24817
837.58	24916
837.718	24913
837.856	24764
837.993	24802
838.131	24722
838.269	24696
838.406	24673
838.544	24620
838.681	24559
838.819	24486
838.956	24247
839.094	24201
839.231	24327
839.369	24399
839.506	24715
839.643	24509
839.781	24254
839.918	24152
840.055	24350
840.193	24285
840.33	24121
840.467	24178
840.604	24209
840.742	24448
840.879	23950
841.016	24095
841.153	24110
841.29	24239
841.427	24152
841.564	24205
841.701	24102
841.838	24182
841.975	24098
842.112	24129
842.249	24041
842.385	23901
842.522	24262
842.659	24030
842.796	23931
842.933	23927
843.069	23718
843.206	23805
843.343	23874
843.479	23912
843.616	23901
843.752	23649
843.889	23649
844.025	23927
844.162	23570
844.298	23805
844.435	23585
844.571	23638
844.708	23634
844.844	23794
844.98	23809
845.117	23794
845.253	23783
845.389	23490
845.525	23638
845.661	23573
845.798	23402
845.934	23391
846.07	23444
846.206	23448
846.342	23528
846.478	23414
846.614	23162
846.75	23117
846.886	23094
847.022	23143
847.158	23075
847.294	23121
847.429	23113
847.565	23170
847.701	23341
847.837	22976
847.972	22771
848.108	22976
848.244	22793
848.379	22679
848.515	22721
848.65	22713
848.786	22782
848.921	22729
849.057	22843
849.192	22771
849.328	22778
849.463	22740
849.598	22721
849.734	22637
849.869	22565
850.004	22462
850.14	22398
850.275	22440
850.41	22356
850.545	22485
850.68	22459
850.815	22478
850.95	22500
851.085	22694
851.22	22759
851.355	22596
851.49	22531
851.625	22478
851.76	22561
851.895	22413
852.03	22409
852.165	22554
852.299	22489
852.434	22542
852.569	22451
852.703	22398
852.838	22402
852.973	22584
853.107	22630
853.242	22489
853.376	22303
853.511	22181
853.645	22207
853.78	22375
853.914	22246
854.048	22348
854.183	22234
854.317	22344
854.451	22527
854.585	22272
854.72	22318
854.854	22367
854.988	22280
855.122	22322
855.256	22169
855.39	22188
855.524	22371
855.658	22356
855.792	22268
855.926	22398
856.06	22379
856.194	22451
856.327	22219
856.461	22192
856.595	22287
856.729	22284
856.862	22424
856.996	22375
857.13	22360
857.263	22432
857.397	22360
857.53	22299
857.664	22314
857.797	22371
857.931	22428
858.064	22325
858.197	22325
858.331	22379
858.464	22230
858.597	22276
858.731	22379
858.864	22291
858.997	22314
859.13	22333
859.263	22280
859.396	22478
859.529	22352
859.662	22363
859.795	22090
859.928	22249
860.061	22455
860.194	22432
860.327	22379
860.46	22375
860.592	22409
860.725	22500
860.858	22497
860.99	22306
861.123	22158
861.256	22310
861.388	22382
861.521	22923
861.653	22090
861.786	22116
861.918	22150
862.05	22150
862.183	22196
862.315	22287
862.447	22207
862.58	22284
862.712	22147
862.844	21994
862.976	22063
863.108	22128
863.24	22352
863.372	21934
863.504	21960
863.636	21953
863.768	22036
863.9	22093
864.032	21892
864.164	22070
864.296	22086
864.428	22158
864.559	22070
864.691	22093
864.823	21994
864.954	21979
865.086	21835
865.217	21854
865.349	21823
865.48	21903
865.612	21949
865.743	22010
865.875	21899
866.006	21835
866.137	21937
866.269	21857
866.4	21869
866.531	21827
866.662	21831
866.793	21869
866.924	21823
867.055	21949
867.186	21762
867.317	21918
867.448	21739
867.579	21808
867.71	21842
867.841	21648
867.972	21895
868.103	21797
868.233	21857
868.364	21876
868.495	21983
868.625	21998
868.756	22181
868.886	22032
869.017	22120
869.147	22150
869.278	22215
869.408	22063
869.539	22067
869.669	22074
869.799	22215
869.929	22143
870.06	22192
870.19	22424
870.32	22455
870.45	22440
870.58	22497
870.71	22561
870.84	22584
870.97	22447
871.1	22443
871.23	22565
871.36	22820
871.489	22573
871.619	22611
871.749	22694
871.879	22778
872.008	22824
872.138	22691
872.267	22634
872.397	22664
872.526	22611
872.656	22561
872.785	22489
872.915	22839
873.044	22801
873.173	22626
873.303	22774
873.432	22816
873.561	22812
873.69	22672
873.819	22839
873.948	22824
874.077	22801
874.206	22717
874.335	22710
874.464	22759
874.593	22889
874.722	22877
874.851	23105
874.979	22900
875.108	23041
875.237	22858
875.365	22816
875.494	22850
875.623	23067
875.751	22972
875.88	22896
876.008	22991
876.136	23162
876.265	23303
876.393	23391
876.521	23387
876.65	23421
876.778	23318
876.906	23261
877.034	23292
877.162	23250
877.29	23220
877.418	23284
877.546	23239
877.674	23220
877.802	23231
877.93	23326
878.058	23204
878.185	23170
878.313	23109
878.441	23349
878.568	23136
878.696	23220
878.824	23292
878.951	23284
879.079	23299
879.206	23619
879.333	23406
879.461	23280
879.588	23406
879.715	23402
879.842	23539
879.97	23288
880.097	23056
880.224	22984
880.351	23033
880.478	23071
880.605	23102
880.732	23056
880.859	23337
880.986	23170
881.112	23083
881.239	22873
881.366	22831
881.493	22584
881.619	22675
881.746	22668
881.872	22687
881.999	22546
882.125	22649
882.252	22660
882.378	22554
882.505	22679
882.631	22527
882.757	22447
882.883	22348
883.01	22318
883.136	22249
883.262	22219
883.388	22112
883.514	22367
883.64	22325
883.766	22204
883.892	22040
884.018	22128
884.143	22314
884.269	22428
884.395	22002
884.52	21918
884.646	22010
884.772	21876
884.897	21895
885.023	22021
885.148	21964
885.274	22067
885.399	22109
885.524	21838
885.65	22048
885.775	21934
885.9	21918
886.025	22059
886.15	21956
886.275	21880
886.4	21846
886.525	21926
886.65	21956
886.775	21880
886.9	21972
887.025	22116
887.149	22013
887.274	21781
887.399	21747
887.523	21724
887.648	21663
887.773	21572
887.897	21720
888.021	21717
888.146	21842
888.27	21770
888.395	21759
888.519	21804
888.643	21781
888.767	21793
888.891	21629
889.015	21496
889.139	21679
889.263	21435
889.387	21641
889.511	21838
889.635	21690
889.759	21504
889.883	21523
890.006	21515
890.13	21583
890.254	21523
890.377	21428
890.501	21161
890.624	21249
890.748	21226
890.871	21169
890.995	21066
891.118	20979
891.241	21047
891.364	21108
891.488	21268
891.611	21043
891.734	21123
891.857	21089
891.98	21005
892.103	21135
892.226	21005
892.349	20944
892.471	20853
892.594	20933
892.717	21013
892.839	20941
892.962	20975
893.085	21161
893.207	20861
893.33	20895
893.452	20830
893.575	20921
893.697	20853
893.819	21028
893.941	21146
894.064	21028
894.186	20910
894.308	20963
894.43	20929
894.552	21100
894.674	20982
894.796	20838
894.918	20857
895.04	20819
895.161	21104
895.283	20963
895.405	20918
895.526	20929
895.648	20937
895.769	20910
895.891	20963
896.012	21043
896.134	20967
896.255	20967
896.376	20811
896.498	20876
896.619	21020
896.74	20883
896.861	20853
896.982	21283
897.103	21367
897.224	21192
897.345	21116
897.466	21176
897.587	21093
897.708	21214
897.828	21180
897.949	21062
898.07	20971
898.19	21051
898.311	21176
898.431	21024
898.552	21169
898.672	21245
898.792	21142
898.913	21089
899.033	21017
899.153	20910
899.273	20739
899.393	20921
899.513	20887
899.633	20921
899.753	20868
899.873	20800
899.993	20979
900.113	20769
900.232	20754
900.352	20785
900.472	20556
900.591	20678
900.711	20659
900.83	20651
900.95	20758
901.069	20762
901.189	20552
901.308	20305
901.427	20180
901.546	20259
901.665	20275
901.784	20237
901.904	20031
902.023	20050
902.141	19875
902.26	19837
902.379	19902
902.498	19689
902.617	19575
902.735	19643
902.854	19757
902.973	19616
903.091	19400
903.21	19415
903.328	19419
903.446	19289
903.565	19133
903.683	19164
903.801	18985
903.919	19110
904.038	19050
904.156	18916
904.274	18996
904.392	18932
904.51	18871
904.627	19027
904.745	18966
904.863	19031
904.981	18764
905.098	18700
905.216	18528
905.334	18665
905.451	18544
905.569	18574
905.686	18700
905.803	18620
905.921	18315
906.038	18479
906.155	18334
906.272	18334
906.389	18304
906.506	18129
906.623	18106
906.74	18144
906.857	18060
906.974	18072
907.091	18216
907.208	18209
907.324	18076
907.441	18003
907.557	17874
907.674	17855
907.79	17802
907.907	17786
908.023	17748
908.139	17821
908.256	17722
908.372	17764
908.488	17653
908.604	17528
908.72	17600
908.836	17608
908.952	17516
909.068	17528
909.184	17710
909.3	17566
909.415	17551
909.531	17436
909.647	17269
909.762	17322
909.878	17216
909.993	17246
910.108	17208
910.224	17132
910.339	17166
910.454	17064
910.57	17029
910.685	17025
910.8	17261
910.915	17216
911.03	16999
911.145	16904
911.259	16839
911.374	16877
911.489	16740
911.604	16771
911.718	16588
911.833	16546
911.947	16519
912.062	16432
912.176	16645
912.291	16592
912.405	16596
912.519	16755
912.633	16812
912.748	16660
912.862	16538
912.976	16436
913.09	16299
913.204	16413
913.318	16409
913.431	16504
913.545	16390
913.659	16485
913.772	16272
913.886	16234
914	16219
914.113	16291
914.226	16204
914.34	16207
914.453	16097
914.566	16223
914.68	16006
914.793	16101
914.906	15827
915.019	15736
915.132	15789
915.245	15724
915.358	15793
915.47	15816
915.583	15785
915.696	15633
915.809	15949
915.921	15915
916.034	15637
916.146	15622
916.259	15690
916.371	15747
916.483	15690
916.595	15542
916.708	15549
916.82	15485
916.932	15568
917.044	15534
917.156	15576
917.268	15469
917.38	15355
917.491	15424
917.603	15435
917.715	15412
917.826	15428
917.938	15332
918.049	15260
918.161	15291
918.272	15523
918.384	15340
918.495	15363
918.606	15066
918.717	14986
918.828	15184
918.939	15180
919.05	14941
919.161	15195
919.272	14925
919.383	15028
919.494	15184
919.604	15256
919.715	14963
919.826	14971
919.936	15093
920.047	15123
920.157	15154
920.267	15279
920.378	15047
920.488	14963
920.598	15218
920.708	15302
920.818	15108
920.928	15180
921.038	15363
921.148	15268
921.258	15089
921.368	14960
921.477	14883
921.587	14906
921.697	14689
921.806	14769
921.916	14697
922.025	14396
922.134	14438
922.244	14301
922.353	14492
922.462	14244
922.571	14332
922.68	14153
922.789	14107
922.898	14092
923.007	14043
923.116	14096
923.224	14069
923.333	14062
923.442	13875
923.55	13928
923.659	14001
923.767	13959
923.876	13818
923.984	13963
924.092	13830
924.201	13894
924.309	13769
924.417	13784
924.525	13715
924.633	13719
924.741	14701
924.849	13537
924.956	13727
925.064	13586
925.172	13441
925.279	13499
925.387	13540
925.494	13472
925.602	13594
925.709	13411
925.816	13266
925.924	13464
926.031	13464
926.138	13377
926.245	13491
926.352	13331
926.459	13453
926.566	13396
926.673	13297
926.779	13232
926.886	13171
926.993	13000
927.099	12973
927.206	13019
927.312	12901
927.419	13069
927.525	12985
927.631	13015
927.737	12878
927.843	12814
927.95	12719
928.056	12760
928.162	12814
928.267	12954
928.373	13369
928.479	12882
928.585	12677
928.69	12772
928.796	12730
928.901	12681
929.007	12509
929.112	12669
929.218	12627
929.323	12490
929.428	12547
929.533	12734
929.638	12441
929.743	12441
929.848	12509
929.953	12479
930.058	12399
930.163	12205
930.267	12140
930.372	12414
930.477	12190
930.581	12456
930.685	12216
930.79	12163
930.894	12121
930.998	12064
931.103	12213
931.207	11893
931.311	11752
931.415	11634
931.519	11493
931.623	11402
