Data from test_V78500241_2613.txt Node
Date: Fri Mar 25 15:59:54 CST 2022
User: usil
Spectrometer: V785-0024
Trigger mode: 0
Integration Time (sec): 4.000000E-1
Scans to average: 1
Nonlinearity correction enabled: false
Boxcar width: 0
Storing dark spectrum: false
XAxis mode: Wavelengths
Number of Pixels in Spectrum: 1024
>>>>>Begin Spectral Data<<<<<
801.071	28717
801.214	28687
801.356	28493
801.499	28325
801.641	28356
801.783	28310
801.926	28207
802.068	28280
802.211	28226
802.353	28120
802.496	28059
802.638	27987
802.78	28036
802.923	28021
803.065	27911
803.208	27838
803.35	28025
803.492	28192
803.635	28177
803.777	28116
803.919	28238
804.061	28557
804.204	28154
804.346	28185
804.488	28070
804.63	28154
804.773	28131
804.915	28398
805.057	28295
805.199	28169
805.341	28371
805.483	28424
805.626	28428
805.768	28253
805.91	28303
806.052	28268
806.194	28375
806.336	28535
806.478	28432
806.62	28253
806.762	28367
806.904	28755
807.046	28866
807.188	28831
807.33	28927
807.472	28923
807.614	28740
807.756	28930
807.898	28618
808.04	28603
808.182	28580
808.324	28736
808.465	28812
808.607	28946
808.749	29064
808.891	29147
809.033	29159
809.174	29086
809.316	29162
809.458	29060
809.6	29121
809.741	29193
809.883	29261
810.025	29391
810.166	29395
810.308	29501
810.45	29398
810.591	29239
810.733	29315
810.875	29128
811.016	28888
811.158	28927
811.299	29223
811.441	29212
811.582	29178
811.724	29090
811.865	29018
812.007	29105
812.148	29102
812.29	29227
812.431	29105
812.573	29383
812.714	29425
812.855	29585
812.997	29802
813.138	29862
813.279	29786
813.421	29592
813.562	29551
813.703	29463
813.845	29391
813.986	29010
814.127	28809
814.268	28752
814.41	28809
814.551	28702
814.692	28797
814.833	28554
814.974	28641
815.115	28847
815.256	28748
815.397	28641
815.539	28618
815.68	28653
815.821	28436
815.962	28656
816.103	28557
816.244	28478
816.385	28424
816.526	28310
816.666	28215
816.807	28101
816.948	28219
817.089	28295
817.23	28169
817.371	28040
817.512	28074
817.653	28101
817.793	28063
817.934	27918
818.075	28013
818.216	28097
818.356	27983
818.497	27964
818.638	27804
818.778	27869
818.919	27808
819.06	27926
819.2	28002
819.341	28101
819.481	27960
819.622	28268
819.762	28485
819.903	28276
820.043	28295
820.184	28230
820.324	28215
820.465	28363
820.605	28272
820.746	28322
820.886	28207
821.026	28344
821.167	28154
821.307	28154
821.447	28188
821.588	27975
821.728	28006
821.868	27701
822.008	27675
822.149	27610
822.289	27667
822.429	27310
822.569	27230
822.709	27211
822.849	27104
822.99	27039
823.13	27165
823.27	27093
823.41	26952
823.55	26906
823.69	26937
823.83	26929
823.97	26838
824.11	26834
824.25	26659
824.389	26644
824.529	26716
824.669	26781
824.809	26872
824.949	26819
825.089	26792
825.228	26750
825.368	26556
825.508	26564
825.648	26670
825.787	26689
825.927	26716
826.067	26644
826.206	26476
826.346	26621
826.485	26708
826.625	26522
826.765	26693
826.904	26625
827.044	26393
827.183	26431
827.323	26290
827.462	26305
827.601	26343
827.741	26244
827.88	26419
828.02	26214
828.159	26240
828.298	26336
828.437	26374
828.577	26370
828.716	26336
828.855	26229
828.994	26027
829.134	26008
829.273	26005
829.412	26092
829.551	25966
829.69	25989
829.829	26103
829.968	26142
830.107	26062
830.246	26050
830.385	25951
830.524	25875
830.663	25833
830.802	25784
830.941	25704
831.08	25567
831.219	25647
831.357	25651
831.496	25860
831.635	25582
831.774	25723
831.913	25540
832.051	25582
832.19	25392
832.329	25362
832.467	25377
832.606	25228
832.744	25206
832.883	25301
833.022	25137
833.16	25209
833.299	25289
833.437	25438
833.576	25346
833.714	25392
833.852	25415
833.991	25460
834.129	25533
834.267	25552
834.406	25464
834.544	25362
834.682	25354
834.821	25396
834.959	25483
835.097	25293
835.235	25293
835.373	25411
835.511	25297
835.65	25259
835.788	25160
835.926	25004
836.064	25114
836.202	25088
836.34	25187
836.478	25194
836.615	25129
836.753	25183
836.891	25251
837.029	25236
837.167	25091
837.305	25050
837.443	24985
837.58	24951
837.718	25053
837.856	24943
837.993	24939
838.131	24928
838.269	24901
838.406	24928
838.544	24768
838.681	24593
838.819	24582
838.956	24441
839.094	24494
839.231	24570
839.369	24646
839.506	24829
839.643	24646
839.781	24391
839.918	24323
840.055	24452
840.193	24532
840.33	24445
840.467	24433
840.604	24437
840.742	24741
840.879	24258
841.016	24213
841.153	24304
841.29	24460
841.427	24372
841.564	24262
841.701	24334
841.838	24266
841.975	24239
842.112	24361
842.249	24296
842.385	24060
842.522	24395
842.659	24216
842.796	24095
842.933	24110
843.069	24034
843.206	24064
843.343	24144
843.479	24102
843.616	24098
843.752	23980
843.889	24022
844.025	24091
844.162	23836
844.298	23836
844.435	23775
844.571	23878
844.708	23939
844.844	23999
844.98	23969
845.117	23996
845.253	23969
845.389	23733
845.525	23828
845.661	23794
845.798	23699
845.934	23733
846.07	23665
846.206	23638
846.342	23733
846.478	23668
846.614	23505
846.75	23337
846.886	23330
847.022	23425
847.158	23395
847.294	23280
847.429	23467
847.565	23337
847.701	23524
847.837	23048
847.972	22991
848.108	23170
848.244	23166
848.379	22919
848.515	22885
848.65	22889
848.786	22946
848.921	22995
849.057	23044
849.192	22972
849.328	22930
849.463	22953
849.598	22877
849.734	22980
849.869	22721
850.004	22801
850.14	22782
850.275	22771
850.41	22634
850.545	22554
850.68	22630
850.815	22660
850.95	22698
851.085	22835
851.22	22778
851.355	22736
851.49	22683
851.625	22668
851.76	22607
851.895	22649
852.03	22554
852.165	22626
852.299	22733
852.434	22782
852.569	22721
852.703	22885
852.838	22778
852.973	22831
853.107	22774
853.242	22713
853.376	22584
853.511	22447
853.645	22527
853.78	22531
853.914	22615
854.048	22440
854.183	22577
854.317	22561
854.451	22812
854.585	22656
854.72	22500
854.854	22630
854.988	22470
855.122	22542
855.256	22333
855.39	22580
855.524	22672
855.658	22683
855.792	22531
855.926	22527
856.06	22599
856.194	22607
856.327	22527
856.461	22394
856.595	22459
856.729	22542
856.862	22736
856.996	22550
857.13	22634
857.263	22668
857.397	22645
857.53	22405
857.664	22653
857.797	22645
857.931	22622
858.064	22508
858.197	22599
858.331	22577
858.464	22569
858.597	22413
858.731	22451
858.864	22508
858.997	22447
859.13	22523
859.263	22554
859.396	22546
859.529	22398
859.662	22569
859.795	22557
859.928	22531
860.061	22626
860.194	22729
860.327	22698
860.46	22535
860.592	22626
860.725	22706
860.858	22622
860.99	22622
861.123	22379
861.256	22398
861.388	22527
861.521	23121
861.653	22303
861.786	22238
861.918	22322
862.05	22417
862.183	22219
862.315	22527
862.447	22550
862.58	22443
862.712	22322
862.844	22177
862.976	22314
863.108	22234
863.24	22615
863.372	22185
863.504	22154
863.636	22287
863.768	22215
863.9	22158
864.032	22185
864.164	22139
864.296	22265
864.428	22268
864.559	22390
864.691	22306
864.823	22207
864.954	22211
865.086	22211
865.217	22173
865.349	22017
865.48	22074
865.612	22280
865.743	22284
865.875	22207
866.006	22196
866.137	22055
866.269	22147
866.4	22067
866.531	22055
866.662	22036
866.793	22044
866.924	22044
867.055	22135
867.186	22040
867.317	21937
867.448	21975
867.579	22082
867.71	21956
867.841	22013
867.972	21956
868.103	22097
868.233	22021
868.364	22048
868.495	22177
868.625	22352
868.756	22455
868.886	22230
869.017	22238
869.147	22459
869.278	22322
869.408	22322
869.539	22261
869.669	22348
869.799	22356
869.929	22363
870.06	22409
870.19	22615
870.32	22504
870.45	22523
870.58	22778
870.71	22725
870.84	22763
870.97	22733
871.1	22618
871.23	22797
871.36	22885
871.489	22854
871.619	22828
871.749	22778
871.879	22976
872.008	22984
872.138	22987
872.267	22896
872.397	22778
872.526	22778
872.656	22706
872.785	22641
872.915	22908
873.044	22957
873.173	22877
873.303	22866
873.432	23048
873.561	23052
873.69	23060
873.819	22858
873.948	22885
874.077	22946
874.206	22812
874.335	22774
874.464	23162
874.593	23060
874.722	23071
874.851	23216
874.979	23083
875.108	23132
875.237	22961
875.365	22930
875.494	22987
875.623	23083
875.751	23166
875.88	23185
876.008	23121
876.136	23292
876.265	23452
876.393	23676
876.521	23573
876.65	23539
876.778	23490
876.906	23455
877.034	23642
877.162	23398
877.29	23417
877.418	23368
877.546	23528
877.674	23410
877.802	23299
877.93	23512
878.058	23246
878.185	23356
878.313	23269
878.441	23414
878.568	23284
878.696	23414
878.824	23528
878.951	23562
879.079	23577
879.206	23733
879.333	23558
879.461	23467
879.588	23558
879.715	23707
879.842	23809
879.97	23661
880.097	23208
880.224	23197
880.351	23322
880.478	23277
880.605	23178
880.732	23277
880.859	23512
880.986	23330
881.112	23326
881.239	23181
881.366	22919
881.493	22911
881.619	22839
881.746	22862
881.872	22847
881.999	22790
882.125	22748
882.252	23029
882.378	22869
882.505	22774
882.631	22725
882.757	22474
882.883	22569
883.01	22519
883.136	22519
883.262	22512
883.388	22394
883.514	22546
883.64	22626
883.766	22440
883.892	22226
884.018	22196
884.143	22451
884.269	22569
884.395	22261
884.52	22101
884.646	22150
884.772	22093
884.897	22048
885.023	22112
885.148	22265
885.274	22120
885.399	22272
885.524	22196
885.65	22150
885.775	22177
885.9	22154
886.025	22211
886.15	22131
886.275	22116
886.4	21972
886.525	22238
886.65	22188
886.775	22040
886.9	22207
887.025	22284
887.149	22017
887.274	21911
887.399	21884
887.523	21934
887.648	21903
887.773	21800
887.897	21979
888.021	21956
888.146	21831
888.27	22109
888.395	21835
888.519	22082
888.643	21945
888.767	21964
888.891	21663
889.015	21774
889.139	21789
889.263	21644
889.387	21755
889.511	21819
889.635	21808
889.759	21694
889.883	21739
890.006	21633
890.13	21781
890.254	21583
890.377	21637
890.501	21389
890.624	21306
890.748	21389
890.871	21252
890.995	21264
891.118	21310
891.241	21260
891.364	21313
891.488	21389
891.611	21298
891.734	21294
891.857	21237
891.98	21279
892.103	21359
892.226	21249
892.349	21188
892.471	21161
892.594	21096
892.717	21123
892.839	21135
892.962	21176
893.085	21222
893.207	21119
893.33	21062
893.452	20998
893.575	21176
893.697	21043
893.819	21222
893.941	21355
894.064	21336
894.186	21112
894.308	21047
894.43	21165
894.552	21298
894.674	21233
894.796	21036
894.918	21005
895.04	21112
895.161	21173
895.283	21081
895.405	20979
895.526	21154
895.648	21100
895.769	21074
895.891	21135
896.012	21203
896.134	21241
896.255	21051
896.376	21077
896.498	21184
896.619	21100
896.74	21093
896.861	21100
896.982	21370
897.103	21511
897.224	21412
897.345	21332
897.466	21264
897.587	21264
897.708	21439
897.828	21424
897.949	21283
898.07	21184
898.19	21291
898.311	21340
898.431	21241
898.552	21310
898.672	21370
898.792	21313
898.913	21298
899.033	21165
899.153	21093
899.273	21013
899.393	21009
899.513	21039
899.633	21013
899.753	21066
899.873	20921
899.993	20979
900.113	20990
900.232	20952
900.352	20918
900.472	20861
900.591	20708
900.711	20876
900.83	20781
900.95	20891
901.069	20842
901.189	20781
901.308	20408
901.427	20381
901.546	20412
901.665	20381
901.784	20393
901.904	20301
902.023	20168
902.141	20005
902.26	19887
902.379	20020
902.498	19940
902.617	19830
902.735	20001
902.854	19852
902.973	19761
903.091	19499
903.21	19544
903.328	19548
903.446	19335
903.565	19377
903.683	19426
903.801	19187
903.919	19285
904.038	19362
904.156	19129
904.274	18993
904.392	19069
904.51	19099
904.627	19050
904.745	19145
904.863	19118
904.981	18863
905.098	18703
905.216	18848
905.334	18798
905.451	18802
905.569	18719
905.686	18745
905.803	18688
905.921	18574
906.038	18601
906.155	18608
906.272	18365
906.389	18414
906.506	18110
906.623	18266
906.74	18281
906.857	18220
906.974	18114
907.091	18452
907.208	18395
907.324	18300
907.441	18125
907.557	17977
907.674	17977
907.79	17958
907.907	17980
908.023	17984
908.139	17977
908.256	17999
908.372	17874
908.488	17843
908.604	17767
908.72	17627
908.836	17638
908.952	17687
909.068	17737
909.184	17726
909.3	17672
909.415	17684
909.531	17665
909.647	17440
909.762	17376
909.878	17398
909.993	17429
910.108	17235
910.224	17360
910.339	17376
910.454	17254
910.57	17220
910.685	17094
910.8	17417
910.915	17303
911.03	17242
911.145	17003
911.259	16972
911.374	16942
911.489	16869
911.604	16946
911.718	16790
911.833	16641
911.947	16580
912.062	16580
912.176	16767
912.291	16649
912.405	16691
912.519	16862
912.633	16934
912.748	16649
912.862	16645
912.976	16535
913.09	16466
913.204	16500
913.318	16531
913.431	16577
913.545	16561
913.659	16584
913.772	16402
913.886	16382
914	16348
914.113	16356
914.226	16390
914.34	16352
914.453	16143
914.566	16337
914.68	16116
914.793	16207
914.906	16036
915.019	15930
915.132	15831
915.245	15888
915.358	15880
915.47	15922
915.583	15827
915.696	15953
915.809	16112
915.921	15949
916.034	15831
916.146	15724
916.259	15781
916.371	15888
916.483	15728
916.595	15724
916.708	15622
916.82	15629
916.932	15644
917.044	15625
917.156	15576
917.268	15488
917.38	15447
917.491	15458
917.603	15488
917.715	15648
917.826	15496
917.938	15424
918.049	15351
918.161	15443
918.272	15553
918.384	15519
918.495	15458
918.606	15291
918.717	15176
918.828	15325
918.939	15264
919.05	15157
919.161	15195
919.272	14982
919.383	15051
919.494	15233
919.604	15466
919.715	15252
919.826	15081
919.936	15146
920.047	15260
920.157	15310
920.267	15367
920.378	15214
920.488	15176
920.598	15355
920.708	15526
920.818	15325
920.928	15291
921.038	15492
921.148	15469
921.258	15138
921.368	15066
921.477	14842
921.587	14910
921.697	14796
921.806	14857
921.916	14777
922.025	14476
922.134	14541
922.244	14568
922.353	14598
922.462	14412
922.571	14332
922.68	14275
922.789	14248
922.898	14191
923.007	14126
923.116	14240
923.224	14195
923.333	14210
923.442	14134
923.55	14058
923.659	14054
923.767	14081
923.876	13883
923.984	14001
924.092	13917
924.201	13986
924.309	14027
924.417	13864
924.525	13799
924.633	13849
924.741	14807
924.849	13693
924.956	13723
925.064	13632
925.172	13464
925.279	13582
925.387	13563
925.494	13578
925.602	13696
925.709	13548
925.816	13320
925.924	13514
926.031	13594
926.138	13457
926.245	13514
926.352	13396
926.459	13506
926.566	13559
926.673	13529
926.779	13312
926.886	13369
926.993	13175
927.099	13107
927.206	13061
927.312	13171
927.419	13152
927.525	13122
927.631	13145
927.737	12947
927.843	13008
927.95	12776
928.056	12939
928.162	12996
928.267	13038
928.373	13438
928.479	12981
928.585	12753
928.69	12844
928.796	13004
928.901	12779
929.007	12665
929.112	12817
929.218	12654
929.323	12665
929.428	12585
929.533	12726
929.638	12547
929.743	12608
929.848	12700
929.953	12585
930.058	12494
930.163	12262
930.267	12254
930.372	12410
930.477	12304
930.581	12578
930.685	12338
930.79	12159
930.894	12251
930.998	12133
931.103	12270
931.207	11946
931.311	11855
931.415	11752
931.519	11611
931.623	11551
