Data from test_V78500241_134.txt Node
Date: Fri Mar 25 15:42:43 CST 2022
User: usil
Spectrometer: V785-0024
Trigger mode: 0
Integration Time (sec): 4.000000E-1
Scans to average: 1
Nonlinearity correction enabled: false
Boxcar width: 0
Storing dark spectrum: false
XAxis mode: Wavelengths
Number of Pixels in Spectrum: 1024
>>>>>Begin Spectral Data<<<<<
801.071	30102
801.214	29996
801.356	29611
801.499	29623
801.641	29501
801.783	29558
801.926	29592
802.068	29573
802.211	29490
802.353	29292
802.496	29064
802.638	29170
802.78	29056
802.923	29128
803.065	28972
803.208	29041
803.35	29086
803.492	29223
803.635	29349
803.777	29227
803.919	29326
804.061	29531
804.204	29375
804.346	29204
804.488	29296
804.63	29147
804.773	29208
804.915	29353
805.057	29330
805.199	29185
805.341	29254
805.483	29197
805.626	29414
805.768	29265
805.91	29364
806.052	29402
806.194	29220
806.336	29383
806.478	29387
806.62	29349
806.762	29417
806.904	29589
807.046	29813
807.188	29707
807.33	29615
807.472	29653
807.614	29589
807.756	29687
807.898	29505
808.04	29551
808.182	29493
808.324	29421
808.465	29562
808.607	29783
808.749	29939
808.891	29954
809.033	30125
809.174	29901
809.316	29893
809.458	29897
809.6	29809
809.741	29958
809.883	29958
810.025	29973
810.166	30034
810.308	30178
810.45	30114
810.591	30163
810.733	29859
810.875	29859
811.016	29699
811.158	29802
811.299	30068
811.441	30117
811.582	29980
811.724	29885
811.865	29832
812.007	29840
812.148	29726
812.29	29790
812.431	29973
812.573	30216
812.714	30155
812.855	30235
812.997	30346
813.138	30513
813.279	30376
813.421	30228
813.562	30213
813.703	30292
813.845	30011
813.986	29790
814.127	29695
814.268	29448
814.41	29448
814.551	29372
814.692	29562
814.833	29425
814.974	29356
815.115	29570
815.256	29345
815.397	29261
815.539	29345
815.68	29155
815.821	29075
815.962	29170
816.103	29143
816.244	29128
816.385	28934
816.526	28984
816.666	28786
816.807	28748
816.948	28736
817.089	28793
817.23	28451
817.371	28599
817.512	28500
817.653	28398
817.793	28580
817.934	28493
818.075	28611
818.216	28592
818.356	28557
818.497	28413
818.638	28143
818.778	28192
818.919	28382
819.06	28386
819.2	28535
819.341	28538
819.481	28451
819.622	28694
819.762	28786
819.903	28812
820.043	28573
820.184	28470
820.324	28596
820.465	28618
820.605	28577
820.746	28580
820.886	28428
821.026	28561
821.167	28527
821.307	28755
821.447	28466
821.588	28390
821.728	28230
821.868	28200
822.008	27869
822.149	28044
822.289	27819
822.429	27530
822.569	27603
822.709	27603
822.849	27389
822.99	27401
823.13	27344
823.27	27340
823.41	27089
823.55	26986
823.69	27211
823.83	27188
823.97	27195
824.11	26925
824.25	27036
824.389	26994
824.529	27089
824.669	26960
824.809	27039
824.949	27199
825.089	26994
825.228	27066
825.368	26765
825.508	26857
825.648	26842
825.787	26739
825.927	26686
826.067	26678
826.206	26670
826.346	26792
826.485	26842
826.625	26857
826.765	26792
826.904	26819
827.044	26571
827.183	26442
827.323	26324
827.462	26492
827.601	26434
827.741	26434
827.88	26473
828.02	26415
828.159	26282
828.298	26419
828.437	26450
828.577	26298
828.716	26434
828.855	26290
828.994	26130
829.134	26161
829.273	26005
829.412	26096
829.551	25966
829.69	26122
829.829	25986
829.968	26100
830.107	26142
830.246	26012
830.385	26035
830.524	26024
830.663	25830
830.802	25624
830.941	25666
831.08	25635
831.219	25605
831.357	25772
831.496	25757
831.635	25750
831.774	25434
831.913	25597
832.051	25491
832.19	25407
832.329	25396
832.467	25255
832.606	25190
832.744	25175
832.883	25270
833.022	25251
833.16	25213
833.299	25297
833.437	25126
833.576	25346
833.714	25278
833.852	25381
833.991	25346
834.129	25282
834.267	25183
834.406	25225
834.544	25297
834.682	25270
834.821	25126
834.959	25457
835.097	25095
835.235	25247
835.373	25259
835.511	25206
835.65	25065
835.788	25118
835.926	24878
836.064	24909
836.202	24859
836.34	25046
836.478	25072
836.615	24992
836.753	25069
836.891	25175
837.029	25069
837.167	25015
837.305	25050
837.443	24939
837.58	24787
837.718	24947
837.856	24852
837.993	24749
838.131	24897
838.269	24707
838.406	24772
838.544	24650
838.681	24475
838.819	24578
838.956	24323
839.094	24281
839.231	24391
839.369	24544
839.506	24642
839.643	24521
839.781	24270
839.918	24095
840.055	24277
840.193	24045
840.33	24235
840.467	24163
840.604	24270
840.742	24407
840.879	23961
841.016	24182
841.153	24049
841.29	24182
841.427	24087
841.564	24053
841.701	24095
841.838	24007
841.975	24030
842.112	24091
842.249	23901
842.385	23863
842.522	24041
842.659	23840
842.796	23824
842.933	23729
843.069	23748
843.206	23771
843.343	23836
843.479	23866
843.616	23756
843.752	23592
843.889	23452
844.025	23672
844.162	23516
844.298	23665
844.435	23554
844.571	23520
844.708	23474
844.844	23687
844.98	23687
845.117	23608
845.253	23444
845.389	23398
845.525	23341
845.661	23379
845.798	23296
845.934	23303
846.07	23284
846.206	23311
846.342	23356
846.478	23273
846.614	23052
846.75	22820
846.886	23006
847.022	23113
847.158	22995
847.294	22915
847.429	23083
847.565	22938
847.701	23197
847.837	22675
847.972	22691
848.108	22668
848.244	22710
848.379	22573
848.515	22417
848.65	22474
848.786	22470
848.921	22580
849.057	22519
849.192	22466
849.328	22615
849.463	22455
849.598	22474
849.734	22348
849.869	22333
850.004	22299
850.14	22238
850.275	22223
850.41	22192
850.545	22105
850.68	22173
850.815	22120
850.95	22147
851.085	22382
851.22	22322
851.355	22238
851.49	22196
851.625	22097
851.76	22109
851.895	22131
852.03	22120
852.165	22131
852.299	22223
852.434	22287
852.569	22139
852.703	22181
852.838	22181
852.973	22303
853.107	22310
853.242	22048
853.376	22006
853.511	21895
853.645	21964
853.78	22223
853.914	22006
854.048	21854
854.183	21994
854.317	21915
854.451	22135
854.585	21941
854.72	21892
854.854	21926
854.988	21949
855.122	21968
855.256	21778
855.39	22017
855.524	22192
855.658	22070
855.792	22021
855.926	21987
856.06	21915
856.194	22120
856.327	22025
856.461	22048
856.595	21861
856.729	21960
856.862	21987
856.996	22044
857.13	21915
857.263	22002
857.397	22036
857.53	21899
857.664	22013
857.797	22013
857.931	22139
858.064	21956
858.197	22013
858.331	21888
858.464	21869
858.597	21819
858.731	21991
858.864	21960
858.997	21895
859.13	21903
859.263	21911
859.396	22093
859.529	21869
859.662	21850
859.795	21778
859.928	21960
860.061	22143
860.194	22196
860.327	22010
860.46	21953
860.592	22040
860.725	21941
860.858	21907
860.99	21888
861.123	21778
861.256	21827
861.388	21911
861.521	22436
861.653	21720
861.786	21713
861.918	21762
862.05	21960
862.183	21964
862.315	22059
862.447	22025
862.58	22006
862.712	21774
862.844	21603
862.976	21705
863.108	21728
863.24	21994
863.372	21515
863.504	21648
863.636	21511
863.768	21576
863.9	21587
864.032	21488
864.164	21618
864.296	21633
864.428	21637
864.559	21644
864.691	21671
864.823	21580
864.954	21557
865.086	21523
865.217	21397
865.349	21348
865.48	21496
865.612	21412
865.743	21614
865.875	21473
866.006	21336
866.137	21408
866.269	21511
866.4	21488
866.531	21351
866.662	21313
866.793	21450
866.924	21348
867.055	21469
867.186	21469
867.317	21317
867.448	21317
867.579	21351
867.71	21363
867.841	21302
867.972	21408
868.103	21332
868.233	21439
868.364	21378
868.495	21397
868.625	21561
868.756	21629
868.886	21561
869.017	21507
869.147	21641
869.278	21682
869.408	21732
869.539	21591
869.669	21660
869.799	21557
869.929	21736
870.06	21709
870.19	21861
870.32	21964
870.45	21945
870.58	22070
870.71	22059
870.84	22177
870.97	22101
871.1	22112
871.23	22204
871.36	22234
871.489	22173
871.619	22177
871.749	22158
871.879	22329
872.008	22325
872.138	22143
872.267	22268
872.397	22143
872.526	22010
872.656	22002
872.785	21994
872.915	22166
873.044	22432
873.173	22310
873.303	22257
873.432	22188
873.561	22226
873.69	22158
873.819	22188
873.948	22356
874.077	22223
874.206	22150
874.335	22234
874.464	22451
874.593	22436
874.722	22344
874.851	22516
874.979	22508
875.108	22546
875.237	22322
875.365	22344
875.494	22432
875.623	22546
875.751	22386
875.88	22470
876.008	22516
876.136	22580
876.265	22881
876.393	23056
876.521	22923
876.65	22877
876.778	22904
876.906	22729
877.034	22778
877.162	22896
877.29	22771
877.418	22976
877.546	22797
877.674	22782
877.802	22828
877.93	22904
878.058	22771
878.185	22626
878.313	22858
878.441	22847
878.568	22717
878.696	22698
878.824	22911
878.951	22824
879.079	22900
879.206	23105
879.333	23060
879.461	22862
879.588	22873
879.715	22953
879.842	23159
879.97	22824
880.097	22550
880.224	22470
880.351	22668
880.478	22599
880.605	22675
880.732	22626
880.859	22824
880.986	22744
881.112	22577
881.239	22504
881.366	22402
881.493	22272
881.619	22150
881.746	22249
881.872	22139
881.999	22162
882.125	22131
882.252	22234
882.378	22246
882.505	22287
882.631	22219
882.757	22010
882.883	22013
883.01	21884
883.136	21732
883.262	21812
883.388	21720
883.514	22013
883.64	21994
883.766	21922
883.892	21732
884.018	21648
884.143	21778
884.269	22051
884.395	21637
884.52	21542
884.646	21622
884.772	21488
884.897	21424
885.023	21534
885.148	21622
885.274	21587
885.399	21557
885.524	21564
885.65	21496
885.775	21583
885.9	21492
886.025	21648
886.15	21557
886.275	21359
886.4	21416
886.525	21519
886.65	21428
886.775	21568
886.9	21675
887.025	21618
887.149	21382
887.274	21260
887.399	21348
887.523	21359
887.648	21173
887.773	21218
887.897	21313
888.021	21420
888.146	21135
888.27	21389
888.395	21382
888.519	21321
888.643	21351
888.767	21374
888.891	21142
889.015	21214
889.139	21127
889.263	21058
889.387	21230
889.511	21176
889.635	21085
889.759	20982
889.883	20899
890.006	21074
890.13	21077
890.254	20990
890.377	20910
890.501	20792
890.624	20621
890.748	20788
890.871	20613
890.995	20552
891.118	20537
891.241	20530
891.364	20712
891.488	20739
891.611	20644
891.734	20598
891.857	20686
891.98	20549
892.103	20606
892.226	20609
892.349	20518
892.471	20393
892.594	20549
892.717	20492
892.839	20533
892.962	20541
893.085	20537
893.207	20564
893.33	20393
893.452	20484
893.575	20552
893.697	20476
893.819	20568
893.941	20697
894.064	20522
894.186	20423
894.308	20336
894.43	20495
894.552	20758
894.674	20606
894.796	20454
894.918	20480
895.04	20457
895.161	20594
895.283	20552
895.405	20465
895.526	20434
895.648	20575
895.769	20590
895.891	20514
896.012	20663
896.134	20552
896.255	20499
896.376	20518
896.498	20579
896.619	20674
896.74	20484
896.861	20549
896.982	20948
897.103	21020
897.224	20906
897.345	20800
897.466	20625
897.587	20804
897.708	20845
897.828	20640
897.949	20655
898.07	20488
898.19	20625
898.311	20781
898.431	20667
898.552	20636
898.672	20735
898.792	20773
898.913	20644
899.033	20632
899.153	20385
899.273	20343
899.393	20370
899.513	20328
899.633	20404
899.753	20305
899.873	20434
899.993	20343
900.113	20259
900.232	20381
900.352	20294
900.472	20328
900.591	20096
900.711	20180
900.83	20161
900.95	20218
901.069	20271
901.189	20107
901.308	19894
901.427	19753
901.546	19700
901.665	19776
901.784	19769
901.904	19613
902.023	19438
902.141	19251
902.26	19270
902.379	19308
902.498	19274
902.617	19133
902.735	19251
902.854	19240
902.973	19145
903.091	18943
903.21	18958
903.328	18958
903.446	18817
903.565	18795
903.683	18677
903.801	18623
903.919	18604
904.038	18692
904.156	18589
904.274	18551
904.392	18407
904.51	18467
904.627	18456
904.745	18536
904.863	18502
904.981	18213
905.098	18072
905.216	18121
905.334	18125
905.451	18049
905.569	18038
905.686	18129
905.803	18125
905.921	18019
906.038	18026
906.155	17954
906.272	17798
906.389	17756
906.506	17710
906.623	17585
906.74	17600
906.857	17520
906.974	17463
907.091	17710
907.208	17722
907.324	17707
907.441	17524
907.557	17360
907.674	17383
907.79	17242
907.907	17292
908.023	17318
908.139	17239
908.256	17193
908.372	17239
908.488	17174
908.604	17041
908.72	16900
908.836	17006
908.952	16930
909.068	16987
909.184	17090
909.3	17037
909.415	17041
909.531	17037
909.647	16710
909.762	16774
909.878	16573
909.993	16618
910.108	16668
910.224	16622
910.339	16721
910.454	16523
910.57	16512
910.685	16413
910.8	16683
910.915	16607
911.03	16417
911.145	16356
911.259	16211
911.374	16234
911.489	16204
911.604	16055
911.718	16002
911.833	16063
911.947	15945
912.062	15835
912.176	16059
912.291	15983
912.405	16017
912.519	16154
912.633	16196
912.748	16017
912.862	15903
912.976	15800
913.09	15637
913.204	15789
913.318	15816
913.431	15804
913.545	15846
913.659	15797
913.772	15709
913.886	15587
914	15492
914.113	15603
914.226	15778
914.34	15713
914.453	15488
914.566	15701
914.68	15389
914.793	15500
914.906	15310
915.019	15226
915.132	15180
915.245	15116
915.358	15188
915.47	15222
915.583	15157
915.696	15310
915.809	15363
915.921	15389
916.034	15211
916.146	15161
916.259	15146
916.371	15272
916.483	15066
916.595	15017
916.708	15112
916.82	15066
916.932	14948
917.044	14982
917.156	14842
917.268	14773
917.38	14941
917.491	14762
917.603	14876
917.715	14887
917.826	14887
917.938	14750
918.049	14689
918.161	14845
918.272	14891
918.384	14899
918.495	14777
918.606	14594
918.717	14549
918.828	14629
918.939	14636
919.05	14492
919.161	14556
919.272	14317
919.383	14450
919.494	14556
919.604	14678
919.715	14552
919.826	14400
919.936	14442
920.047	14670
920.157	14495
920.267	14743
920.378	14545
920.488	14541
920.598	14693
920.708	14849
920.818	14640
920.928	14613
921.038	14845
921.148	14743
921.258	14328
921.368	14370
921.477	14206
921.587	14259
921.697	14062
921.806	14218
921.916	14062
922.025	13898
922.134	13826
922.244	13799
922.353	13909
922.462	13784
922.571	13719
922.68	13616
922.789	13559
922.898	13525
923.007	13396
923.116	13586
923.224	13506
923.333	13434
923.442	13358
923.55	13316
923.659	13324
923.767	13365
923.876	13282
923.984	13297
924.092	13206
924.201	13244
924.309	13308
924.417	13263
924.525	13168
924.633	13129
924.741	13856
924.849	12947
924.956	13175
925.064	12894
925.172	12852
925.279	12939
925.387	13004
925.494	12859
925.602	12973
925.709	13027
925.816	12882
925.924	12924
926.031	12882
926.138	12856
926.245	12951
926.352	12817
926.459	12875
926.566	12856
926.673	12722
926.779	12620
926.886	12696
926.993	12536
927.099	12471
927.206	12388
927.312	12380
927.419	12555
927.525	12563
927.631	12464
927.737	12372
927.843	12220
927.95	12232
928.056	12281
928.162	12376
928.267	12315
928.373	12939
928.479	12376
928.585	12152
928.69	12266
928.796	12315
928.901	12194
929.007	12030
929.112	12114
929.218	12102
929.323	12125
929.428	11950
929.533	12178
929.638	11961
929.743	11958
929.848	12049
929.953	11961
930.058	11794
930.163	11722
930.267	11672
930.372	11790
930.477	11688
930.581	11809
930.685	11756
930.79	11558
930.894	11653
930.998	11471
931.103	11661
931.207	11318
931.311	11212
931.415	11071
931.519	11025
931.623	10938
