Data from test_V78500241_908.txt Node
Date: Fri Mar 25 15:48:05 CST 2022
User: usil
Spectrometer: V785-0024
Trigger mode: 0
Integration Time (sec): 4.000000E-1
Scans to average: 1
Nonlinearity correction enabled: false
Boxcar width: 0
Storing dark spectrum: false
XAxis mode: Wavelengths
Number of Pixels in Spectrum: 1024
>>>>>Begin Spectral Data<<<<<
801.071	27941
801.214	27895
801.356	27637
801.499	27397
801.641	27378
801.783	27355
801.926	27427
802.068	27401
802.211	27374
802.353	27291
802.496	27085
802.638	27310
802.78	27085
802.923	27138
803.065	26880
803.208	26937
803.35	27116
803.492	27123
803.635	27161
803.777	27131
803.919	27291
804.061	27526
804.204	27245
804.346	27245
804.488	27173
804.63	27192
804.773	27211
804.915	27306
805.057	27325
805.199	27283
805.341	27386
805.483	27302
805.626	27431
805.768	27268
805.91	27424
806.052	27332
806.194	27397
806.336	27747
806.478	27454
806.62	27355
806.762	27572
806.904	27766
807.046	27930
807.188	27732
807.33	27892
807.472	27880
807.614	27785
807.756	27850
807.898	27751
808.04	27690
808.182	27641
808.324	27614
808.465	27717
808.607	27861
808.749	27907
808.891	28097
809.033	28352
809.174	28230
809.316	27979
809.458	28124
809.6	27850
809.741	28284
809.883	28325
810.025	28371
810.166	28352
810.308	28352
810.45	28230
810.591	28344
810.733	28112
810.875	27968
811.016	27865
811.158	27949
811.299	28166
811.441	28272
811.582	28287
811.724	28055
811.865	28067
812.007	28177
812.148	28063
812.29	28040
812.431	28219
812.573	28356
812.714	28295
812.855	28554
812.997	28672
813.138	28915
813.279	28626
813.421	28630
813.562	28660
813.703	28394
813.845	28382
813.986	27953
814.127	27854
814.268	27682
814.41	27751
814.551	27865
814.692	27823
814.833	27701
814.974	27709
815.115	27812
815.256	27587
815.397	27576
815.539	27648
815.68	27523
815.821	27477
815.962	27770
816.103	27572
816.244	27348
816.385	27378
816.526	27397
816.666	27283
816.807	26929
816.948	27150
817.089	27116
817.23	27020
817.371	27020
817.512	27051
817.653	27096
817.793	27017
817.934	27051
818.075	27089
818.216	27058
818.356	26982
818.497	27028
818.638	26648
818.778	26849
818.919	26864
819.06	26845
819.2	26990
819.341	27104
819.481	27036
819.622	27131
819.762	27306
819.903	27199
820.043	27226
820.184	27146
820.324	27077
820.465	27233
820.605	27184
820.746	27093
820.886	26990
821.026	27096
821.167	27089
821.307	27001
821.447	27020
821.588	26998
821.728	26838
821.868	26636
822.008	26571
822.149	26522
822.289	26484
822.429	26259
822.569	26168
822.709	26161
822.849	25986
822.99	26001
823.13	25997
823.27	25989
823.41	25833
823.55	25715
823.69	25879
823.83	25833
823.97	25879
824.11	25738
824.25	25575
824.389	25647
824.529	25845
824.669	25712
824.809	25723
824.949	25750
825.089	25906
825.228	25685
825.368	25597
825.508	25468
825.648	25613
825.787	25590
825.927	25556
826.067	25582
826.206	25491
826.346	25575
826.485	25601
826.625	25696
826.765	25738
826.904	25499
827.044	25403
827.183	25228
827.323	25274
827.462	25358
827.601	25198
827.741	25145
827.88	25365
828.02	25053
828.159	25171
828.298	25137
828.437	25263
828.577	25114
828.716	25194
828.855	25148
828.994	25065
829.134	24943
829.273	25042
829.412	24833
829.551	24939
829.69	24977
829.829	24935
829.968	24951
830.107	25095
830.246	24909
830.385	24837
830.524	24791
830.663	24757
830.802	24711
830.941	24441
831.08	24505
831.219	24692
831.357	24665
831.496	24791
831.635	24574
831.774	24513
831.913	24441
832.051	24232
832.19	24235
832.329	24308
832.467	24228
832.606	24106
832.744	24296
832.883	24201
833.022	24140
833.16	24174
833.299	24300
833.437	24292
833.576	24247
833.714	24289
833.852	24159
833.991	24308
834.129	24361
834.267	24407
834.406	24281
834.544	24159
834.682	24262
834.821	24174
834.959	24334
835.097	24304
835.235	24273
835.373	24213
835.511	24190
835.65	24133
835.788	24133
835.926	24041
836.064	24007
836.202	23999
836.34	24041
836.478	24235
836.615	24110
836.753	24038
836.891	24136
837.029	24136
837.167	24140
837.305	24045
837.443	24018
837.58	23939
837.718	23885
837.856	23927
837.993	23935
838.131	23878
838.269	23828
838.406	23897
838.544	23767
838.681	23615
838.819	23543
838.956	23509
839.094	23341
839.231	23440
839.369	23528
839.506	23817
839.643	23691
839.781	23402
839.918	23440
840.055	23543
840.193	23444
840.33	23220
840.467	23239
840.604	23425
840.742	23733
840.879	23322
841.016	23239
841.153	23254
841.29	23410
841.427	23360
841.564	23334
841.701	23376
841.838	23307
841.975	23193
842.112	23242
842.249	23178
842.385	23044
842.522	23326
842.659	23124
842.796	23003
842.933	22889
843.069	23162
843.206	23022
843.343	23162
843.479	23056
843.616	23132
843.752	22934
843.889	22873
844.025	23029
844.162	22786
844.298	22869
844.435	22900
844.571	22805
844.708	22919
844.844	23083
844.98	22930
845.117	22934
845.253	22835
845.389	22755
845.525	22645
845.661	22641
845.798	22603
845.934	22565
846.07	22519
846.206	22550
846.342	22793
846.478	22596
846.614	22226
846.75	22291
846.886	22257
847.022	22398
847.158	22276
847.294	22497
847.429	22348
847.565	22318
847.701	22565
847.837	22097
847.972	21956
848.108	22246
848.244	22063
848.379	21941
848.515	21972
848.65	21895
848.786	21968
848.921	21861
849.057	22120
849.192	22017
849.328	22044
849.463	21850
849.598	21854
849.734	21899
849.869	21770
850.004	21652
850.14	21774
850.275	21705
850.41	21523
850.545	21709
850.68	21515
850.815	21720
850.95	21679
851.085	21743
851.22	21774
851.355	21648
851.49	21583
851.625	21614
851.76	21698
851.895	21622
852.03	21633
852.165	21637
852.299	21675
852.434	21739
852.569	21816
852.703	21629
852.838	21694
852.973	21743
853.107	21728
853.242	21595
853.376	21526
853.511	21344
853.645	21545
853.78	21591
853.914	21599
854.048	21351
854.183	21428
854.317	21389
854.451	21667
854.585	21488
854.72	21545
854.854	21538
854.988	21492
855.122	21481
855.256	21363
855.39	21412
855.524	21526
855.658	21583
855.792	21469
855.926	21450
856.06	21500
856.194	21443
856.327	21458
856.461	21416
856.595	21515
856.729	21435
856.862	21641
856.996	21530
857.13	21568
857.263	21564
857.397	21587
857.53	21439
857.664	21538
857.797	21663
857.931	21663
858.064	21561
858.197	21511
858.331	21412
858.464	21408
858.597	21272
858.731	21424
858.864	21408
858.997	21466
859.13	21473
859.263	21526
859.396	21538
859.529	21473
859.662	21408
859.795	21359
859.928	21610
860.061	21705
860.194	21785
860.327	21526
860.46	21485
860.592	21591
860.725	21564
860.858	21587
860.99	21420
861.123	21450
861.256	21435
861.388	21477
861.521	22272
861.653	21306
861.786	21207
861.918	21218
862.05	21469
862.183	21504
862.315	21382
862.447	21519
862.58	21401
862.712	21013
862.844	21226
862.976	21504
863.108	21150
863.24	21538
863.372	21226
863.504	21142
863.636	21230
863.768	21150
863.9	21268
864.032	21256
864.164	21207
864.296	21283
864.428	21420
864.559	21279
864.691	21287
864.823	21249
864.954	21135
865.086	21135
865.217	21108
865.349	21028
865.48	21089
865.612	21062
865.743	21203
865.875	21241
866.006	21146
866.137	21135
866.269	21119
866.4	20979
866.531	21024
866.662	20887
866.793	20948
866.924	21043
867.055	21039
867.186	21051
867.317	21051
867.448	20967
867.579	20998
867.71	21005
867.841	20925
867.972	21009
868.103	21036
868.233	21123
868.364	21032
868.495	21116
868.625	21264
868.756	21317
868.886	21306
869.017	21252
869.147	21317
869.278	21348
869.408	21211
869.539	21256
869.669	21370
869.799	21260
869.929	21370
870.06	21355
870.19	21694
870.32	21523
870.45	21454
870.58	21622
870.71	21797
870.84	21705
870.97	21675
871.1	21458
871.23	21785
871.36	21850
871.489	21781
871.619	21953
871.749	21838
871.879	21880
872.008	21953
872.138	21838
872.267	21690
872.397	21766
872.526	21682
872.656	21766
872.785	21736
872.915	21797
873.044	21930
873.173	21945
873.303	21915
873.432	21945
873.561	22059
873.69	21835
873.819	21937
873.948	21926
874.077	21941
874.206	21812
874.335	21857
874.464	21880
874.593	22055
874.722	22109
874.851	22173
874.979	22166
875.108	22200
875.237	21983
875.365	22044
875.494	22040
875.623	22154
875.751	22086
875.88	22226
876.008	22200
876.136	22162
876.265	22474
876.393	22599
876.521	22565
876.65	22531
876.778	22470
876.906	22489
877.034	22367
877.162	22398
877.29	22405
877.418	22493
877.546	22466
877.674	22675
877.802	22542
877.93	22493
878.058	22417
878.185	22284
878.313	22504
878.441	22550
878.568	22207
878.696	22363
878.824	22493
878.951	22512
879.079	22565
879.206	22630
879.333	22611
879.461	22451
879.588	22500
879.715	22538
879.842	22706
879.97	22478
880.097	22402
880.224	22257
880.351	22322
880.478	22314
880.605	22185
880.732	22382
880.859	22493
880.986	22360
881.112	22303
881.239	22185
881.366	22063
881.493	21892
881.619	21827
881.746	21869
881.872	21827
881.999	21850
882.125	21816
882.252	21850
882.378	21789
882.505	21804
882.631	21778
882.757	21610
882.883	21732
883.01	21466
883.136	21504
883.262	21416
883.388	21389
883.514	21538
883.64	21629
883.766	21374
883.892	21264
884.018	21424
884.143	21462
884.269	21557
884.395	21310
884.52	21161
884.646	21291
884.772	21104
884.897	21123
885.023	21302
885.148	21302
885.274	21382
885.399	21279
885.524	21188
885.65	21279
885.775	21275
885.9	21195
886.025	21321
886.15	21294
886.275	21199
886.4	21150
886.525	21199
886.65	21066
886.775	21028
886.9	21317
887.025	21389
887.149	21241
887.274	21017
887.399	20914
887.523	20887
887.648	20948
887.773	20868
887.897	20963
888.021	20979
888.146	20918
888.27	21039
888.395	21028
888.519	21062
888.643	20914
888.767	20952
888.891	20921
889.015	20792
889.139	20815
889.263	20758
889.387	20720
889.511	20899
889.635	20876
889.759	20712
889.883	20670
890.006	20773
890.13	20887
890.254	20769
890.377	20678
890.501	20503
890.624	20522
890.748	20678
890.871	20549
890.995	20358
891.118	20237
891.241	20358
891.364	20385
891.488	20461
891.611	20400
891.734	20278
891.857	20381
891.98	20282
892.103	20469
892.226	20370
892.349	20062
892.471	20122
892.594	20218
892.717	20259
892.839	20271
892.962	20142
893.085	20317
893.207	20244
893.33	20187
893.452	20180
893.575	20419
893.697	20073
893.819	20320
893.941	20415
894.064	20450
894.186	20267
894.308	20187
894.43	20271
894.552	20465
894.674	20309
894.796	20077
894.918	20225
895.04	20191
895.161	20282
895.283	20259
895.405	20202
895.526	20168
895.648	20267
895.769	20271
895.891	20183
896.012	20267
896.134	20229
896.255	20221
896.376	20256
896.498	20317
896.619	20305
896.74	20229
896.861	20370
896.982	20583
897.103	20800
897.224	20469
897.345	20454
897.466	20294
897.587	20419
897.708	20590
897.828	20526
897.949	20396
898.07	20278
898.19	20351
898.311	20560
898.431	20370
898.552	20488
898.672	20533
898.792	20568
898.913	20374
899.033	20301
899.153	20195
899.273	20138
899.393	20233
899.513	20168
899.633	20298
899.753	20233
899.873	20157
899.993	20244
900.113	20115
900.232	20271
900.352	20027
900.472	20035
900.591	19928
900.711	19947
900.83	20005
900.95	20077
901.069	20005
901.189	19928
901.308	19700
901.427	19525
901.546	19586
901.665	19480
901.784	19476
901.904	19365
902.023	19301
902.141	19209
902.26	19000
902.379	19129
902.498	19164
902.617	19038
902.735	19069
902.854	19031
902.973	18966
903.091	18852
903.21	18821
903.328	18703
903.446	18544
903.565	18498
903.683	18570
903.801	18323
903.919	18391
904.038	18395
904.156	18194
904.274	18403
904.392	18258
904.51	18277
904.627	18323
904.745	18334
904.863	18327
904.981	18106
905.098	17969
905.216	17996
905.334	18003
905.451	17988
905.569	17920
905.686	18053
905.803	17935
905.921	17718
906.038	17916
906.155	17748
906.272	17627
906.389	17672
906.506	17699
906.623	17455
906.74	17516
906.857	17364
906.974	17349
907.091	17512
907.208	17604
907.324	17619
907.441	17471
907.557	17102
907.674	17284
907.79	17185
907.907	17136
908.023	17269
908.139	17280
908.256	17189
908.372	17121
908.488	16942
908.604	17075
908.72	16984
908.836	16972
908.952	16839
909.068	16885
909.184	17064
909.3	17041
909.415	17045
909.531	16991
909.647	16713
909.762	16702
909.878	16599
909.993	16577
910.108	16698
910.224	16698
910.339	16599
910.454	16500
910.57	16440
910.685	16409
910.8	16649
910.915	16550
911.03	16459
911.145	16249
911.259	16177
911.374	16223
911.489	16234
911.604	16086
911.718	16078
911.833	16063
911.947	15949
912.062	15831
912.176	15956
912.291	16021
912.405	16017
912.519	16188
912.633	16150
912.748	16051
912.862	15941
912.976	15709
913.09	15709
913.204	15781
913.318	15793
913.431	15797
913.545	15907
913.659	15857
913.772	15838
913.886	15644
914	15519
914.113	15515
914.226	15663
914.34	15625
914.453	15469
914.566	15568
914.68	15420
914.793	15477
914.906	15279
915.019	15264
915.132	15131
915.245	15199
915.358	15237
915.47	15260
915.583	15100
915.696	15218
915.809	15310
915.921	15317
916.034	15252
916.146	15077
916.259	15024
916.371	15112
916.483	15119
916.595	15047
916.708	15039
916.82	15001
916.932	15024
917.044	14944
917.156	14914
917.268	14868
917.38	14819
917.491	14891
917.603	14849
917.715	14899
917.826	14941
917.938	14746
918.049	14552
918.161	14880
918.272	14880
918.384	14944
918.495	14708
918.606	14636
918.717	14560
918.828	14590
918.939	14613
919.05	14556
919.161	14579
919.272	14404
919.383	14415
919.494	14678
919.604	14712
919.715	14587
919.826	14499
919.936	14575
920.047	14617
920.157	14587
920.267	14773
920.378	14613
920.488	14511
920.598	14739
920.708	14902
920.818	14701
920.928	14689
921.038	14861
921.148	14773
921.258	14469
921.368	14355
921.477	14400
921.587	14278
921.697	14263
921.806	14389
921.916	14237
922.025	13856
922.134	14043
922.244	13864
922.353	14035
922.462	13868
922.571	13750
922.68	13658
922.789	13616
922.898	13624
923.007	13609
923.116	13605
923.224	13582
923.333	13544
923.442	13422
923.55	13388
923.659	13422
923.767	13499
923.876	13388
923.984	13415
924.092	13320
924.201	13434
924.309	13339
924.417	13304
924.525	13301
924.633	13350
924.741	14180
924.849	13061
924.956	13179
925.064	13019
925.172	12932
925.279	13038
925.387	13042
925.494	13038
925.602	13103
925.709	13122
925.816	12954
925.924	12966
926.031	13015
926.138	12973
926.245	13015
926.352	12738
926.459	13004
926.566	12935
926.673	12897
926.779	12798
926.886	12776
926.993	12616
927.099	12494
927.206	12639
927.312	12486
927.419	12563
927.525	12627
927.631	12566
927.737	12418
927.843	12578
927.95	12281
928.056	12327
928.162	12353
928.267	12479
928.373	12882
928.479	12525
928.585	12220
928.69	12342
928.796	12262
928.901	12254
929.007	12072
929.112	12251
929.218	12224
929.323	12087
929.428	12106
929.533	12262
929.638	12045
929.743	12064
929.848	11999
929.953	12030
930.058	11931
930.163	11756
930.267	11802
930.372	11828
930.477	11779
930.581	11992
930.685	11916
930.79	11726
930.894	11767
930.998	11661
931.103	11802
931.207	11486
931.311	11391
931.415	11235
931.519	11064
931.623	11071
