Data from test_V78500241_570.txt Node
Date: Fri Mar 25 15:45:45 CST 2022
User: usil
Spectrometer: V785-0024
Trigger mode: 0
Integration Time (sec): 4.000000E-1
Scans to average: 1
Nonlinearity correction enabled: false
Boxcar width: 0
Storing dark spectrum: false
XAxis mode: Wavelengths
Number of Pixels in Spectrum: 1024
>>>>>Begin Spectral Data<<<<<
801.071	27412
801.214	27249
801.356	27123
801.499	27093
801.641	26891
801.783	26933
801.926	26986
802.068	26788
802.211	26842
802.353	26887
802.496	26663
802.638	26453
802.78	26575
802.923	26492
803.065	26678
803.208	26545
803.35	26476
803.492	26503
803.635	26640
803.777	26587
803.919	26625
804.061	27077
804.204	26697
804.346	26549
804.488	26659
804.63	26632
804.773	26594
804.915	26701
805.057	26750
805.199	26621
805.341	26705
805.483	26826
805.626	26682
805.768	26621
805.91	26705
806.052	26739
806.194	26807
806.336	27051
806.478	26883
806.62	26720
806.762	26891
806.904	27123
807.046	27241
807.188	27237
807.33	27184
807.472	27260
807.614	27131
807.756	27093
807.898	27051
808.04	26986
808.182	27127
808.324	27256
808.465	27104
808.607	27332
808.749	27313
808.891	27443
809.033	27625
809.174	27603
809.316	27397
809.458	27530
809.6	27523
809.741	27606
809.883	27686
810.025	27606
810.166	27644
810.308	27709
810.45	27675
810.591	27618
810.733	27488
810.875	27367
811.016	27302
811.158	27496
811.299	27545
811.441	27534
811.582	27656
811.724	27401
811.865	27355
812.007	27401
812.148	27329
812.29	27310
812.431	27644
812.573	27816
812.714	27736
812.855	27922
812.997	27987
813.138	28070
813.279	28105
813.421	27911
813.562	27812
813.703	27831
813.845	27542
813.986	27367
814.127	27119
814.268	27123
814.41	27256
814.551	27085
814.692	27157
814.833	26994
814.974	26944
815.115	27211
815.256	26861
815.397	26986
815.539	26902
815.68	26811
815.821	26693
815.962	26876
816.103	26716
816.244	26689
816.385	26625
816.526	26617
816.666	26590
816.807	26461
816.948	26480
817.089	26377
817.23	26385
817.371	26237
817.512	26237
817.653	26503
817.793	26206
817.934	26309
818.075	26362
818.216	26389
818.356	26278
818.497	26172
818.638	25978
818.778	26122
818.919	26176
819.06	26088
819.2	26077
819.341	26183
819.481	26431
819.622	26442
819.762	26701
819.903	26625
820.043	26530
820.184	26469
820.324	26400
820.465	26552
820.605	26381
820.746	26358
820.886	26461
821.026	26370
821.167	26438
821.307	26465
821.447	26438
821.588	26218
821.728	26024
821.868	26027
822.008	25826
822.149	25826
822.289	25738
822.429	25525
822.569	25567
822.709	25483
822.849	25339
822.99	25388
823.13	25247
823.27	25103
823.41	25187
823.55	25008
823.69	25137
823.83	25156
823.97	25050
824.11	25095
824.25	24920
824.389	24905
824.529	25031
824.669	25027
824.809	25091
824.949	25080
825.089	25072
825.228	24958
825.368	24764
825.508	24798
825.648	24810
825.787	24856
825.927	24909
826.067	24875
826.206	24814
826.346	24821
826.485	24817
826.625	24878
826.765	24764
826.904	24821
827.044	24631
827.183	24547
827.323	24418
827.462	24525
827.601	24414
827.741	24433
827.88	24551
828.02	24372
828.159	24517
828.298	24585
828.437	24589
828.577	24414
828.716	24650
828.855	24395
828.994	24232
829.134	24144
829.273	24258
829.412	24064
829.551	24171
829.69	24194
829.829	24144
829.968	24304
830.107	24140
830.246	24235
830.385	24334
830.524	24216
830.663	23897
830.802	23866
830.941	23927
831.08	23779
831.219	23843
831.357	23885
831.496	24117
831.635	23775
831.774	23687
831.913	23608
832.051	23478
832.19	23535
832.329	23558
832.467	23539
832.606	23372
832.744	23448
832.883	23505
833.022	23573
833.16	23474
833.299	23493
833.437	23391
833.576	23501
833.714	23566
833.852	23547
833.991	23619
834.129	23718
834.267	23581
834.406	23562
834.544	23581
834.682	23547
834.821	23619
834.959	23710
835.097	23440
835.235	23642
835.373	23440
835.511	23566
835.65	23368
835.788	23288
835.926	23379
836.064	23155
836.202	23250
836.34	23387
836.478	23589
836.615	23326
836.753	23372
836.891	23554
837.029	23395
837.167	23284
837.305	23258
837.443	23223
837.58	23170
837.718	23269
837.856	23326
837.993	23128
838.131	23212
838.269	23022
838.406	23014
838.544	23010
838.681	22900
838.819	22786
838.956	22717
839.094	22542
839.231	22653
839.369	22793
839.506	23060
839.643	22877
839.781	22535
839.918	22592
840.055	22843
840.193	22645
840.33	22634
840.467	22729
840.604	22656
840.742	22961
840.879	22405
841.016	22565
841.153	22580
841.29	22527
841.427	22637
841.564	22713
841.701	22584
841.838	22516
841.975	22493
842.112	22535
842.249	22375
842.385	22329
842.522	22615
842.659	22402
842.796	22421
842.933	22249
843.069	22223
843.206	22333
843.343	22363
843.479	22371
843.616	22405
843.752	22086
843.889	22109
844.025	22402
844.162	22078
844.298	22238
844.435	22215
844.571	22150
844.708	22150
844.844	22341
844.98	22219
845.117	22261
845.253	22017
845.389	21983
845.525	21994
845.661	22040
845.798	21823
845.934	21895
846.07	21873
846.206	21972
846.342	21968
846.478	21854
846.614	21759
846.75	21542
846.886	21682
847.022	21625
847.158	21717
847.294	21648
847.429	21739
847.565	21523
847.701	21819
847.837	21195
847.972	21321
848.108	21515
848.244	21393
848.379	21348
848.515	21237
848.65	21081
848.786	21180
848.921	21226
849.057	21275
849.192	21298
849.328	21329
849.463	21256
849.598	21085
849.734	21157
849.869	21005
850.004	20887
850.14	20918
850.275	20933
850.41	20956
850.545	20796
850.68	20849
850.815	20998
850.95	21024
851.085	21131
851.22	21089
851.355	20868
851.49	20887
851.625	21020
851.76	20899
851.895	20899
852.03	20804
852.165	20948
852.299	20921
852.434	21055
852.569	20998
852.703	20944
852.838	21024
852.973	21039
853.107	21146
853.242	20883
853.376	20796
853.511	20594
853.645	20781
853.78	20952
853.914	20788
854.048	20750
854.183	20777
854.317	20830
854.451	20918
854.585	20849
854.72	20823
854.854	20902
854.988	20686
855.122	20750
855.256	20632
855.39	20674
855.524	20819
855.658	20731
855.792	20743
855.926	20826
856.06	20880
856.194	20880
856.327	20785
856.461	20663
856.595	20686
856.729	20823
856.862	20971
856.996	20796
857.13	20815
857.263	20815
857.397	20967
857.53	20762
857.664	20861
857.797	20887
857.931	20849
858.064	20918
858.197	20994
858.331	20724
858.464	20727
858.597	20667
858.731	20648
858.864	20773
858.997	20746
859.13	20895
859.263	20830
859.396	20853
859.529	20724
859.662	20796
859.795	20659
859.928	20864
860.061	20899
860.194	21020
860.327	20861
860.46	20750
860.592	20941
860.725	21009
860.858	20918
860.99	20804
861.123	20830
861.256	20629
861.388	20705
861.521	21302
861.653	20621
861.786	20609
861.918	20648
862.05	20712
862.183	20762
862.315	20651
862.447	20826
862.58	20606
862.712	20492
862.844	20305
862.976	20609
863.108	20530
863.24	20887
863.372	20465
863.504	20518
863.636	20396
863.768	20476
863.9	20457
864.032	20408
864.164	20385
864.296	20568
864.428	20594
864.559	20571
864.691	20655
864.823	20533
864.954	20526
865.086	20556
865.217	20442
865.349	20358
865.48	20457
865.612	20370
865.743	20575
865.875	20438
866.006	20240
866.137	20419
866.269	20396
866.4	20393
866.531	20320
866.662	20404
866.793	20252
866.924	20343
867.055	20320
867.186	20358
867.317	20278
867.448	20252
867.579	20237
867.71	20282
867.841	20183
867.972	20415
868.103	20339
868.233	20415
868.364	20263
868.495	20404
868.625	20606
868.756	20644
868.886	20537
869.017	20499
869.147	20708
869.278	20712
869.408	20609
869.539	20674
869.669	20682
869.799	20651
869.929	20807
870.06	20640
870.19	20906
870.32	20819
870.45	20956
870.58	20944
870.71	21135
870.84	21100
870.97	21055
871.1	20944
871.23	21108
871.36	21252
871.489	21161
871.619	21131
871.749	21176
871.879	21146
872.008	21207
872.138	21241
872.267	21245
872.397	21066
872.526	21028
872.656	21009
872.785	20933
872.915	21348
873.044	21332
873.173	21222
873.303	21218
873.432	21218
873.561	21313
873.69	21214
873.819	21188
873.948	21260
874.077	21260
874.206	21096
874.335	21298
874.464	21310
874.593	21439
874.722	21382
874.851	21492
874.979	21416
875.108	21447
875.237	21332
875.365	21317
875.494	21481
875.623	21450
875.751	21458
875.88	21439
876.008	21526
876.136	21576
876.265	21846
876.393	21930
876.521	21850
876.65	22055
876.778	21804
876.906	21770
877.034	21724
877.162	21808
877.29	21751
877.418	21816
877.546	21717
877.674	21785
877.802	21785
877.93	21880
878.058	21808
878.185	21713
878.313	21781
878.441	21747
878.568	21644
878.696	21755
878.824	21713
878.951	21819
879.079	21956
879.206	22147
879.333	22044
879.461	21759
879.588	21956
879.715	22025
879.842	22048
879.97	21949
880.097	21663
880.224	21622
880.351	21736
880.478	21625
880.605	21625
880.732	21549
880.859	21865
880.986	21542
881.112	21709
881.239	21447
881.366	21291
881.493	21313
881.619	21157
881.746	21192
881.872	21222
881.999	21058
882.125	21135
882.252	21233
882.378	21104
882.505	21222
882.631	21070
882.757	20914
882.883	20990
883.01	20887
883.136	20872
883.262	20705
883.388	20754
883.514	20883
883.64	20994
883.766	20880
883.892	20735
884.018	20769
884.143	20807
884.269	20887
884.395	20693
884.52	20530
884.646	20594
884.772	20495
884.897	20488
885.023	20541
885.148	20644
885.274	20594
885.399	20762
885.524	20629
885.65	20571
885.775	20552
885.9	20457
886.025	20640
886.15	20583
886.275	20492
886.4	20454
886.525	20533
886.65	20533
886.775	20423
886.9	20636
887.025	20758
887.149	20533
887.274	20404
887.399	20408
887.523	20381
887.648	20263
887.773	20290
887.897	20454
888.021	20355
888.146	20351
888.27	20393
888.395	20366
888.519	20332
888.643	20301
888.767	20328
888.891	20187
889.015	20248
889.139	20145
889.263	20294
889.387	20324
889.511	20438
889.635	20206
889.759	20202
889.883	19989
890.006	20164
890.13	20221
890.254	20008
890.377	20122
890.501	19852
890.624	19868
890.748	19875
890.871	19833
890.995	19655
891.118	19723
891.241	19746
891.364	19784
891.488	19826
891.611	19772
891.734	19685
891.857	19780
891.98	19765
892.103	19772
892.226	19712
892.349	19567
892.471	19457
892.594	19677
892.717	19715
892.839	19540
892.962	19620
893.085	19635
893.207	19658
893.33	19514
893.452	19480
893.575	19693
893.697	19601
893.819	19738
893.941	19871
894.064	19750
894.186	19495
894.308	19449
894.43	19731
894.552	19769
894.674	19757
894.796	19502
894.918	19628
895.04	19670
895.161	19662
895.283	19624
895.405	19597
895.526	19643
895.648	19647
895.769	19689
895.891	19643
896.012	19712
896.134	19670
896.255	19700
896.376	19704
896.498	19628
896.619	19708
896.74	19620
896.861	19708
896.982	20054
897.103	20126
897.224	19898
897.345	19864
897.466	19769
897.587	19776
897.708	19967
897.828	19807
897.949	19780
898.07	19639
898.19	19845
898.311	19868
898.431	19833
898.552	19932
898.672	20008
898.792	19947
898.913	19967
899.033	19833
899.153	19609
899.273	19521
899.393	19559
899.513	19689
899.633	19689
899.753	19674
899.873	19594
899.993	19582
900.113	19559
900.232	19616
900.352	19499
900.472	19578
900.591	19438
900.711	19441
900.83	19327
900.95	19594
901.069	19537
901.189	19308
901.308	19080
901.427	19027
901.546	18977
901.665	19034
901.784	19050
901.904	18909
902.023	18779
902.141	18627
902.26	18563
902.379	18654
902.498	18578
902.617	18540
902.735	18563
902.854	18433
902.973	18338
903.091	18163
903.21	18190
903.328	18308
903.446	18133
903.565	18060
903.683	18106
903.801	17923
903.919	17908
904.038	17923
904.156	17802
904.274	17889
904.392	17775
904.51	17760
904.627	17680
904.745	17726
904.863	17893
904.981	17642
905.098	17482
905.216	17448
905.334	17505
905.451	17497
905.569	17341
905.686	17486
905.803	17383
905.921	17307
906.038	17326
906.155	17303
906.272	17121
906.389	17105
906.506	17045
906.623	17006
906.74	16946
906.857	16915
906.974	16957
907.091	16984
907.208	17140
907.324	17090
907.441	16820
907.557	16725
907.674	16672
907.79	16675
907.907	16755
908.023	16793
908.139	16683
908.256	16626
908.372	16618
908.488	16512
908.604	16386
908.72	16470
908.836	16413
908.952	16352
909.068	16398
909.184	16573
909.3	16462
909.415	16382
909.531	16344
909.647	16196
909.762	16048
909.878	16185
909.993	16139
910.108	16131
910.224	16021
910.339	16150
910.454	15956
910.57	15991
910.685	15846
910.8	16101
910.915	16078
911.03	15991
911.145	15759
911.259	15778
911.374	15656
911.489	15679
911.604	15656
911.718	15492
911.833	15473
911.947	15348
912.062	15439
912.176	15538
912.291	15584
912.405	15603
912.519	15576
912.633	15720
912.748	15389
912.862	15351
912.976	15397
913.09	15173
913.204	15332
913.318	15298
913.431	15408
913.545	15416
913.659	15389
913.772	15393
913.886	15131
914	15070
914.113	15211
914.226	15279
914.34	15192
914.453	14979
914.566	15081
914.68	15001
914.793	14895
914.906	14902
915.019	14750
915.132	14663
915.245	14773
915.358	14807
915.47	14746
915.583	14758
915.696	14765
915.809	14785
915.921	14891
916.034	14693
916.146	14720
916.259	14621
916.371	14716
916.483	14640
916.595	14587
916.708	14492
916.82	14621
916.932	14598
917.044	14590
917.156	14518
917.268	14442
917.38	14457
917.491	14454
917.603	14423
917.715	14461
917.826	14484
917.938	14339
918.049	14317
918.161	14408
918.272	14537
918.384	14461
918.495	14377
918.606	14278
918.717	14157
918.828	14233
918.939	14183
919.05	14180
919.161	14168
919.272	14008
919.383	14062
919.494	14119
919.604	14328
919.715	14168
919.826	14084
919.936	14123
920.047	14206
920.157	14176
920.267	14294
920.378	14191
920.488	14119
920.598	14294
920.708	14568
920.818	14366
920.928	14336
921.038	14389
921.148	14423
921.258	14130
921.368	14024
921.477	13833
921.587	13906
921.697	13750
921.806	13898
921.916	13651
922.025	13632
922.134	13537
922.244	13556
922.353	13639
922.462	13495
922.571	13331
922.68	13217
922.789	13168
922.898	13217
923.007	13122
923.116	13240
923.224	13236
923.333	13152
923.442	13034
923.55	13050
923.659	12989
923.767	13080
923.876	13061
923.984	13053
924.092	12905
924.201	13031
924.309	12993
924.417	12905
924.525	12859
924.633	12894
924.741	13750
924.849	12665
924.956	12840
925.064	12646
925.172	12589
925.279	12631
925.387	12658
925.494	12688
925.602	12719
925.709	12681
925.816	12490
925.924	12513
926.031	12662
926.138	12639
926.245	12608
926.352	12490
926.459	12597
926.566	12673
926.673	12517
926.779	12433
926.886	12372
926.993	12220
927.099	12235
927.206	12155
927.312	12148
927.419	12144
927.525	12148
927.631	12247
927.737	12133
927.843	12019
927.95	11904
928.056	12022
928.162	12049
928.267	12076
928.373	12669
928.479	12163
928.585	11836
928.69	12045
928.796	12015
928.901	11939
929.007	11802
929.112	11923
929.218	12011
929.323	11748
929.428	11756
929.533	11923
929.638	11676
929.743	11786
929.848	11748
929.953	11703
930.058	11672
930.163	11474
930.267	11516
930.372	11596
930.477	11436
930.581	11589
930.685	11493
930.79	11299
930.894	11425
930.998	11326
931.103	11493
931.207	11117
931.311	10995
931.415	10984
931.519	10748
931.623	10714
