Data from test_V78500241_566.txt Node
Date: Fri Mar 25 15:45:43 CST 2022
User: usil
Spectrometer: V785-0024
Trigger mode: 0
Integration Time (sec): 4.000000E-1
Scans to average: 1
Nonlinearity correction enabled: false
Boxcar width: 0
Storing dark spectrum: false
XAxis mode: Wavelengths
Number of Pixels in Spectrum: 1024
>>>>>Begin Spectral Data<<<<<
801.071	27363
801.214	27173
801.356	27020
801.499	26823
801.641	26765
801.783	26830
801.926	26933
802.068	26845
802.211	26640
802.353	26564
802.496	26473
802.638	26488
802.78	26503
802.923	26168
803.065	26385
803.208	26233
803.35	26438
803.492	26438
803.635	26606
803.777	26427
803.919	26480
804.061	26842
804.204	26556
804.346	26389
804.488	26427
804.63	26461
804.773	26419
804.915	26495
805.057	26568
805.199	26503
805.341	26648
805.483	26598
805.626	26609
805.768	26381
805.91	26587
806.052	26670
806.194	26609
806.336	26838
806.478	26678
806.62	26727
806.762	26785
806.904	26944
807.046	27245
807.188	27047
807.33	27032
807.472	27131
807.614	27032
807.756	26929
807.898	26807
808.04	26845
808.182	26899
808.324	26830
808.465	26975
808.607	27138
808.749	27085
808.891	27298
809.033	27496
809.174	27195
809.316	27264
809.458	27367
809.6	27294
809.741	27279
809.883	27401
810.025	27500
810.166	27523
810.308	27431
810.45	27481
810.591	27389
810.733	27119
810.875	27207
811.016	27081
811.158	27180
811.299	27310
811.441	27370
811.582	27405
811.724	27127
811.865	27245
812.007	27279
812.148	27116
812.29	27298
812.431	27359
812.573	27572
812.714	27717
812.855	27880
812.997	27808
813.138	27975
813.279	27934
813.421	27819
813.562	27793
813.703	27652
813.845	27458
813.986	27154
814.127	26914
814.268	27013
814.41	26842
814.551	26739
814.692	27013
814.833	26910
814.974	26948
815.115	27013
815.256	26925
815.397	26746
815.539	26815
815.68	26785
815.821	26564
815.962	26621
816.103	26640
816.244	26556
816.385	26526
816.526	26511
816.666	26332
816.807	26187
816.948	26248
817.089	26275
817.23	26210
817.371	26218
817.512	26050
817.653	26157
817.793	26164
817.934	26199
818.075	26206
818.216	26088
818.356	26035
818.497	26046
818.638	25864
818.778	25947
818.919	26016
819.06	25997
819.2	26069
819.341	26043
819.481	26039
819.622	26210
819.762	26499
819.903	26434
820.043	26263
820.184	26294
820.324	26259
820.465	26237
820.605	26240
820.746	26339
820.886	26100
821.026	26233
821.167	26172
821.307	26278
821.447	26180
821.588	26054
821.728	25982
821.868	25791
822.008	25685
822.149	25552
822.289	25651
822.429	25335
822.569	25365
822.709	25487
822.849	25023
822.99	25308
823.13	25050
823.27	25088
823.41	24905
823.55	24661
823.69	24985
823.83	25000
823.97	24844
824.11	24776
824.25	24802
824.389	24798
824.529	24741
824.669	24833
824.809	24871
824.949	24859
825.089	24817
825.228	24817
825.368	24703
825.508	24585
825.648	24673
825.787	24817
825.927	24627
826.067	24616
826.206	24521
826.346	24540
826.485	24696
826.625	24509
826.765	24715
826.904	24627
827.044	24308
827.183	24361
827.323	24308
827.462	24380
827.601	24334
827.741	24285
827.88	24456
828.02	24232
828.159	24209
828.298	24445
828.437	24296
828.577	24289
828.716	24323
828.855	24205
828.994	23992
829.134	24110
829.273	24125
829.412	23908
829.551	23904
829.69	23950
829.829	24026
829.968	24053
830.107	24072
830.246	23866
830.385	23965
830.524	23824
830.663	23885
830.802	23672
830.941	23661
831.08	23520
831.219	23638
831.357	23592
831.496	23847
831.635	23649
831.774	23493
831.913	23516
832.051	23497
832.19	23193
832.329	23360
832.467	23174
832.606	23273
832.744	23174
832.883	23227
833.022	23147
833.16	23261
833.299	23307
833.437	23254
833.576	23349
833.714	23387
833.852	23406
833.991	23356
834.129	23448
834.267	23478
834.406	23372
834.544	23417
834.682	23200
834.821	23296
834.959	23486
835.097	23261
835.235	23292
835.373	23349
835.511	23326
835.65	23277
835.788	23113
835.926	23067
836.064	22953
836.202	22991
836.34	23185
836.478	23197
836.615	23178
836.753	23284
836.891	23277
837.029	23212
837.167	23109
837.305	23151
837.443	23121
837.58	23128
837.718	23094
837.856	23067
837.993	23052
838.131	22976
838.269	23029
838.406	22980
838.544	22862
838.681	22588
838.819	22569
838.956	22592
839.094	22455
839.231	22683
839.369	22641
839.506	22885
839.643	22618
839.781	22481
839.918	22474
840.055	22516
840.193	22542
840.33	22459
840.467	22325
840.604	22493
840.742	22797
840.879	22284
841.016	22371
841.153	22322
841.29	22455
841.427	22379
841.564	22470
841.701	22375
841.838	22306
841.975	22234
842.112	22230
842.249	22253
842.385	22268
842.522	22523
842.659	22329
842.796	22131
842.933	22074
843.069	22093
843.206	22166
843.343	22135
843.479	22204
843.616	22120
843.752	21915
843.889	21835
844.025	21998
844.162	21804
844.298	22010
844.435	21941
844.571	21854
844.708	22101
844.844	22070
844.98	22051
845.117	22032
845.253	21865
845.389	21937
845.525	21880
845.661	21827
845.798	21720
845.934	21739
846.07	21614
846.206	21667
846.342	21789
846.478	21694
846.614	21507
846.75	21420
846.886	21306
847.022	21496
847.158	21397
847.294	21473
847.429	21511
847.565	21492
847.701	21603
847.837	21062
847.972	21169
848.108	21226
848.244	21188
848.379	21017
848.515	20982
848.65	21047
848.786	20944
848.921	21017
849.057	21203
849.192	20982
849.328	21028
849.463	21017
849.598	21077
849.734	20910
849.869	20842
850.004	20864
850.14	20872
850.275	20849
850.41	20788
850.545	20697
850.68	20800
850.815	20735
850.95	20830
851.085	20982
851.22	20868
851.355	20800
851.49	20804
851.625	20826
851.76	20777
851.895	20708
852.03	20731
852.165	20785
852.299	20830
852.434	20800
852.569	20902
852.703	20804
852.838	20800
852.973	20906
853.107	20792
853.242	20693
853.376	20731
853.511	20480
853.645	20541
853.78	20720
853.914	20674
854.048	20484
854.183	20587
854.317	20568
854.451	20708
854.585	20537
854.72	20492
854.854	20754
854.988	20560
855.122	20511
855.256	20518
855.39	20465
855.524	20655
855.658	20667
855.792	20629
855.926	20556
856.06	20629
856.194	20644
856.327	20587
856.461	20629
856.595	20587
856.729	20556
856.862	20689
856.996	20651
857.13	20815
857.263	20686
857.397	20682
857.53	20545
857.664	20739
857.797	20724
857.931	20701
858.064	20629
858.197	20594
858.331	20492
858.464	20511
858.597	20423
858.731	20526
858.864	20590
858.997	20473
859.13	20716
859.263	20632
859.396	20781
859.529	20556
859.662	20560
859.795	20419
859.928	20632
860.061	20746
860.194	20788
860.327	20663
860.46	20579
860.592	20765
860.725	20678
860.858	20640
860.99	20522
861.123	20659
861.256	20545
861.388	20552
861.521	21096
861.653	20457
861.786	20336
861.918	20355
862.05	20499
862.183	20461
862.315	20530
862.447	20575
862.58	20480
862.712	20393
862.844	20248
862.976	20328
863.108	20305
863.24	20819
863.372	20202
863.504	20298
863.636	20301
863.768	20309
863.9	20305
864.032	20244
864.164	20305
864.296	20256
864.428	20511
864.559	20328
864.691	20389
864.823	20419
864.954	20252
865.086	20320
865.217	20286
865.349	20065
865.48	20237
865.612	20218
865.743	20381
865.875	20237
866.006	20240
866.137	20313
866.269	20252
866.4	20282
866.531	20233
866.662	20149
866.793	20107
866.924	20138
867.055	20229
867.186	20202
867.317	20092
867.448	20077
867.579	20180
867.71	20088
867.841	20031
867.972	20210
868.103	20077
868.233	20081
868.364	20130
868.495	20157
868.625	20290
868.756	20461
868.886	20183
869.017	20396
869.147	20476
869.278	20518
869.408	20324
869.539	20366
869.669	20476
869.799	20450
869.929	20609
870.06	20606
870.19	20731
870.32	20640
870.45	20705
870.58	20891
870.71	20826
870.84	20925
870.97	20727
871.1	20811
871.23	21009
871.36	20967
871.489	20857
871.619	20937
871.749	20906
871.879	21028
872.008	21154
872.138	21020
872.267	20925
872.397	20826
872.526	20758
872.656	20834
872.785	20807
872.915	21089
873.044	21009
873.173	20952
873.303	21108
873.432	20948
873.561	21100
873.69	20979
873.819	20941
873.948	21150
874.077	20933
874.206	21055
874.335	20975
874.464	21100
874.593	21382
874.722	21237
874.851	21344
874.979	21298
875.108	21363
875.237	21192
875.365	21070
875.494	21218
875.623	21359
875.751	21230
875.88	21252
876.008	21405
876.136	21549
876.265	21663
876.393	21724
876.521	21599
876.65	21751
876.778	21644
876.906	21485
877.034	21511
877.162	21622
877.29	21519
877.418	21660
877.546	21660
877.674	21629
877.802	21519
877.93	21576
878.058	21477
878.185	21523
878.313	21603
878.441	21538
878.568	21477
878.696	21564
878.824	21667
878.951	21633
879.079	21892
879.206	21934
879.333	21812
879.461	21599
879.588	21724
879.715	21812
879.842	21926
879.97	21690
880.097	21329
880.224	21538
880.351	21542
880.478	21530
880.605	21443
880.732	21485
880.859	21713
880.986	21462
881.112	21454
881.239	21214
881.366	21043
881.493	21100
881.619	21043
881.746	21161
881.872	21051
881.999	20887
882.125	20994
882.252	21039
882.378	20941
882.505	21142
882.631	20853
882.757	20830
882.883	20883
883.01	20765
883.136	20632
883.262	20621
883.388	20495
883.514	20815
883.64	20739
883.766	20716
883.892	20598
884.018	20598
884.143	20670
884.269	20674
884.395	20377
884.52	20305
884.646	20396
884.772	20317
884.897	20332
885.023	20301
885.148	20404
885.274	20457
885.399	20412
885.524	20347
885.65	20400
885.775	20469
885.9	20336
886.025	20408
886.15	20507
886.275	20393
886.4	20358
886.525	20343
886.65	20389
886.775	20240
886.9	20454
887.025	20564
887.149	20263
887.274	20164
887.399	20134
887.523	20199
887.648	20161
887.773	20016
887.897	20248
888.021	20275
888.146	20134
888.27	20259
888.395	20229
888.519	20168
888.643	20240
888.767	20206
888.891	20077
889.015	19917
889.139	20058
889.263	19913
889.387	20012
889.511	20126
889.635	19982
889.759	19978
889.883	19868
890.006	19986
890.13	20043
890.254	19913
890.377	19909
890.501	19765
890.624	19689
890.748	19772
890.871	19537
890.995	19445
891.118	19544
891.241	19548
891.364	19464
891.488	19662
891.611	19537
891.734	19521
891.857	19537
891.98	19624
892.103	19556
892.226	19525
892.349	19381
892.471	19453
892.594	19533
892.717	19483
892.839	19453
892.962	19499
893.085	19476
893.207	19438
893.33	19411
893.452	19324
893.575	19460
893.697	19544
893.819	19772
893.941	19731
894.064	19704
894.186	19426
894.308	19339
894.43	19594
894.552	19700
894.674	19575
894.796	19335
894.918	19449
895.04	19506
895.161	19491
895.283	19480
895.405	19377
895.526	19548
895.648	19358
895.769	19495
895.891	19499
896.012	19441
896.134	19578
896.255	19403
896.376	19369
896.498	19487
896.619	19563
896.74	19460
896.861	19601
896.982	19791
897.103	19833
897.224	19795
897.345	19685
897.466	19677
897.587	19719
897.708	19856
897.828	19731
897.949	19670
898.07	19552
898.19	19674
898.311	19715
898.431	19628
898.552	19715
898.672	19856
898.792	19719
898.913	19666
899.033	19731
899.153	19468
899.273	19438
899.393	19449
899.513	19506
899.633	19407
899.753	19422
899.873	19419
899.993	19582
900.113	19365
900.232	19472
900.352	19388
900.472	19358
900.591	19202
900.711	19213
900.83	19114
900.95	19457
901.069	19415
901.189	19126
901.308	18829
901.427	18886
901.546	18840
901.665	18928
901.784	19015
901.904	18719
902.023	18589
902.141	18414
902.26	18445
902.379	18467
902.498	18448
902.617	18433
902.735	18490
902.854	18327
902.973	18209
903.091	18136
903.21	18030
903.328	17999
903.446	17988
903.565	17809
903.683	17847
903.801	17707
903.919	17882
904.038	17824
904.156	17665
904.274	17805
904.392	17676
904.51	17566
904.627	17558
904.745	17665
904.863	17668
904.981	17452
905.098	17387
905.216	17395
905.334	17258
905.451	17334
905.569	17265
905.686	17322
905.803	17258
905.921	17132
906.038	17277
906.155	17045
906.272	16968
906.389	17121
906.506	16919
906.623	16904
906.74	16839
906.857	16672
906.974	16774
907.091	16904
907.208	17025
907.324	16850
907.441	16763
907.557	16599
907.674	16607
907.79	16500
907.907	16561
908.023	16584
908.139	16577
908.256	16519
908.372	16504
908.488	16367
908.604	16249
908.72	16272
908.836	16287
908.952	16303
909.068	16337
909.184	16398
909.3	16303
909.415	16424
909.531	16242
909.647	16044
909.762	16071
909.878	15945
909.993	16059
910.108	16010
910.224	15953
910.339	16010
910.454	15873
910.57	15739
910.685	15679
910.8	16036
910.915	15953
911.03	15850
911.145	15644
911.259	15603
911.374	15660
911.489	15580
911.604	15435
911.718	15287
911.833	15401
911.947	15268
912.062	15237
912.176	15355
912.291	15416
912.405	15504
912.519	15614
912.633	15545
912.748	15393
912.862	15321
912.976	15230
913.09	15062
913.204	15112
913.318	15214
913.431	15161
913.545	15192
913.659	15211
913.772	15017
913.886	15066
914	15028
914.113	15131
914.226	15051
914.34	15051
914.453	14933
914.566	15089
914.68	14781
914.793	14800
914.906	14758
915.019	14556
915.132	14514
915.245	14533
915.358	14644
915.47	14537
915.583	14613
915.696	14636
915.809	14773
915.921	14716
916.034	14480
916.146	14488
916.259	14514
916.371	14602
916.483	14549
916.595	14457
916.708	14454
916.82	14457
916.932	14438
917.044	14488
917.156	14423
917.268	14240
917.38	14320
917.491	14259
917.603	14351
917.715	14290
917.826	14476
917.938	14259
918.049	14149
918.161	14229
918.272	14366
918.384	14358
918.495	14221
918.606	14062
918.717	14084
918.828	14138
918.939	14035
919.05	13955
919.161	14084
919.272	13849
919.383	13871
919.494	14142
919.604	14259
919.715	14077
919.826	13864
919.936	14020
920.047	14176
920.157	14058
920.267	14229
920.378	13993
920.488	14077
920.598	14134
920.708	14389
920.818	14164
920.928	14191
921.038	14377
921.148	14282
921.258	14020
921.368	13963
921.477	13852
921.587	13723
921.697	13597
921.806	13753
921.916	13605
922.025	13449
922.134	13441
922.244	13373
922.353	13476
922.462	13221
922.571	13316
922.68	13160
922.789	13065
922.898	13095
923.007	12951
923.116	13091
923.224	13061
923.333	13171
923.442	13031
923.55	12821
923.659	12947
923.767	13000
923.876	12875
923.984	12905
924.092	12798
924.201	12764
924.309	12802
924.417	12829
924.525	12749
924.633	12741
924.741	13780
924.849	12593
924.956	12627
925.064	12540
925.172	12517
925.279	12563
925.387	12483
925.494	12578
925.602	12608
925.709	12563
925.816	12471
925.924	12513
926.031	12547
926.138	12448
926.245	12555
926.352	12338
926.459	12509
926.566	12536
926.673	12456
926.779	12308
926.886	12266
926.993	12129
927.099	12114
927.206	12087
927.312	12110
927.419	12129
927.525	12133
927.631	12083
927.737	11973
927.843	11996
927.95	11840
928.056	11916
928.162	11977
928.267	11977
928.373	12525
928.479	12003
928.585	11767
928.69	11889
928.796	11969
928.901	11851
929.007	11729
929.112	11790
929.218	11672
929.323	11722
929.428	11619
929.533	11737
929.638	11627
929.743	11615
929.848	11623
929.953	11710
930.058	11509
930.163	11341
930.267	11326
930.372	11520
930.477	11258
930.581	11570
930.685	11379
930.79	11261
930.894	11269
930.998	11242
931.103	11356
931.207	10953
931.311	10938
931.415	10793
931.519	10630
931.623	10706
