Data from test_V78500241_2417.txt Node
Date: Fri Mar 25 15:58:32 CST 2022
User: usil
Spectrometer: V785-0024
Trigger mode: 0
Integration Time (sec): 4.000000E-1
Scans to average: 1
Nonlinearity correction enabled: false
Boxcar width: 0
Storing dark spectrum: false
XAxis mode: Wavelengths
Number of Pixels in Spectrum: 1024
>>>>>Begin Spectral Data<<<<<
801.071	28786
801.214	28698
801.356	28603
801.499	28424
801.641	28325
801.783	28352
801.926	28341
802.068	28310
802.211	28139
802.353	28040
802.496	28185
802.638	28078
802.78	28044
802.923	28070
803.065	27854
803.208	27888
803.35	28078
803.492	28238
803.635	28242
803.777	28082
803.919	28268
804.061	28592
804.204	28287
804.346	28169
804.488	28097
804.63	28177
804.773	28181
804.915	28348
805.057	28466
805.199	28211
805.341	28234
805.483	28485
805.626	28322
805.768	28280
805.91	28329
806.052	28542
806.194	28382
806.336	28538
806.478	28413
806.62	28390
806.762	28577
806.904	28679
807.046	28892
807.188	28824
807.33	28999
807.472	28919
807.614	28824
807.756	28847
807.898	28706
808.04	28801
808.182	28645
808.324	28748
808.465	28824
808.607	28957
808.749	29006
808.891	29231
809.033	29185
809.174	29254
809.316	29200
809.458	29060
809.6	29060
809.741	29113
809.883	29318
810.025	29436
810.166	29501
810.308	29368
810.45	29261
810.591	29311
810.733	29269
810.875	28999
811.016	29132
811.158	29010
811.299	29178
811.441	29216
811.582	29364
811.724	29155
811.865	29200
812.007	28984
812.148	29098
812.29	29170
812.431	29372
812.573	29566
812.714	29551
812.855	29596
812.997	29893
813.138	29916
813.279	29722
813.421	29703
813.562	29589
813.703	29421
813.845	29349
813.986	29136
814.127	28949
814.268	28904
814.41	28862
814.551	28771
814.692	28980
814.833	28828
814.974	28748
815.115	28835
815.256	28664
815.397	28611
815.539	28755
815.68	28565
815.821	28493
815.962	28713
816.103	28607
816.244	28409
816.385	28386
816.526	28295
816.666	28128
816.807	28268
816.948	28215
817.089	28276
817.23	28135
817.371	28074
817.512	28166
817.653	28265
817.793	28055
817.934	28246
818.075	28223
818.216	28303
818.356	28006
818.497	27994
818.638	27819
818.778	27903
818.919	27934
819.06	27998
819.2	28112
819.341	28196
819.481	28082
819.622	28306
819.762	28497
819.903	28428
820.043	28367
820.184	28295
820.324	28295
820.465	28314
820.605	28382
820.746	28158
820.886	28147
821.026	28322
821.167	28268
821.307	28348
821.447	28177
821.588	28074
821.728	27998
821.868	27930
822.008	27770
822.149	27603
822.289	27648
822.429	27344
822.569	27294
822.709	27275
822.849	27176
822.99	27119
823.13	27127
823.27	27135
823.41	27089
823.55	26823
823.69	27058
823.83	27055
823.97	26971
824.11	26758
824.25	26727
824.389	26731
824.529	26773
824.669	26785
824.809	26883
824.949	26880
825.089	26960
825.228	26735
825.368	26625
825.508	26564
825.648	26629
825.787	26598
825.927	26868
826.067	26716
826.206	26640
826.346	26682
826.485	26693
826.625	26708
826.765	26838
826.904	26712
827.044	26370
827.183	26484
827.323	26240
827.462	26347
827.601	26427
827.741	26526
827.88	26259
828.02	26199
828.159	26347
828.298	26347
828.437	26446
828.577	26309
828.716	26530
828.855	26309
828.994	26103
829.134	26221
829.273	26221
829.412	26024
829.551	26027
829.69	26065
829.829	26157
829.968	26153
830.107	26328
830.246	25947
830.385	26050
830.524	26069
830.663	25925
830.802	25921
830.941	25822
831.08	25483
831.219	25883
831.357	25738
831.496	25978
831.635	25803
831.774	25563
831.913	25647
832.051	25582
832.19	25453
832.329	25403
832.467	25419
832.606	25270
832.744	25198
832.883	25384
833.022	25308
833.16	25415
833.299	25304
833.437	25487
833.576	25434
833.714	25487
833.852	25575
833.991	25476
834.129	25533
834.267	25430
834.406	25400
834.544	25400
834.682	25388
834.821	25289
834.959	25445
835.097	25285
835.235	25609
835.373	25354
835.511	25263
835.65	25183
835.788	25278
835.926	25168
836.064	24989
836.202	25061
836.34	25247
836.478	25400
836.615	25103
836.753	25114
836.891	25346
837.029	25126
837.167	25152
837.305	25046
837.443	25072
837.58	25103
837.718	25133
837.856	25213
837.993	24992
838.131	25126
838.269	24878
838.406	24928
838.544	24852
838.681	24684
838.819	24608
838.956	24517
839.094	24426
839.231	24589
839.369	24783
839.506	24764
839.643	24654
839.781	24654
839.918	24486
840.055	24505
840.193	24559
840.33	24483
840.467	24494
840.604	24391
840.742	24757
840.879	24323
841.016	24152
841.153	24391
841.29	24509
841.427	24422
841.564	24357
841.701	24357
841.838	24311
841.975	24171
842.112	24399
842.249	24163
842.385	24140
842.522	24357
842.659	24254
842.796	24205
842.933	24098
843.069	24186
843.206	24060
843.343	24289
843.479	24182
843.616	24281
843.752	23965
843.889	24152
844.025	24057
844.162	23935
844.298	24064
844.435	23843
844.571	23916
844.708	23980
844.844	24133
844.98	24057
845.117	23923
845.253	23961
845.389	23771
845.525	23821
845.661	23771
845.798	23623
845.934	23672
846.07	23638
846.206	23687
846.342	23813
846.478	23604
846.614	23440
846.75	23330
846.886	23417
847.022	23364
847.158	23440
847.294	23410
847.429	23554
847.565	23280
847.701	23570
847.837	23220
847.972	23132
848.108	23231
848.244	23227
848.379	23014
848.515	23018
848.65	22927
848.786	23090
848.921	23022
849.057	23098
849.192	22987
849.328	23025
849.463	22911
849.598	22908
849.734	22763
849.869	22782
850.004	22675
850.14	22793
850.275	22786
850.41	22717
850.545	22801
850.68	22641
850.815	22744
850.95	22778
851.085	22934
851.22	22850
851.355	22809
851.49	22672
851.625	22759
851.76	22698
851.895	22672
852.03	22702
852.165	22660
852.299	22675
852.434	22831
852.569	22782
852.703	22759
852.838	22771
852.973	22892
853.107	22911
853.242	22641
853.376	22603
853.511	22512
853.645	22481
853.78	22664
853.914	22550
854.048	22607
854.183	22565
854.317	22569
854.451	22759
854.585	22584
854.72	22599
854.854	22611
854.988	22516
855.122	22679
855.256	22535
855.39	22554
855.524	22565
855.658	22580
855.792	22527
855.926	22645
856.06	22596
856.194	22740
856.327	22519
856.461	22447
856.595	22497
856.729	22527
856.862	22744
856.996	22538
857.13	22607
857.263	22679
857.397	22691
857.53	22531
857.664	22649
857.797	22554
857.931	22660
858.064	22577
858.197	22641
858.331	22493
858.464	22561
858.597	22478
858.731	22516
858.864	22588
858.997	22497
859.13	22588
859.263	22630
859.396	22611
859.529	22615
859.662	22626
859.795	22580
859.928	22622
860.061	22660
860.194	22858
860.327	22573
860.46	22531
860.592	22634
860.725	22660
860.858	22694
860.99	22542
861.123	22626
861.256	22360
861.388	22672
861.521	23220
861.653	22531
861.786	22344
861.918	22390
862.05	22417
862.183	22382
862.315	22451
862.447	22546
862.58	22538
862.712	22234
862.844	22291
862.976	22310
863.108	22185
863.24	22580
863.372	22188
863.504	22211
863.636	22143
863.768	22265
863.9	22421
864.032	22234
864.164	22238
864.296	22226
864.428	22204
864.559	22352
864.691	22257
864.823	22299
864.954	22173
865.086	22204
865.217	22253
865.349	22036
865.48	22044
865.612	22055
865.743	22322
865.875	22143
866.006	22124
866.137	22055
866.269	22116
866.4	22154
866.531	22135
866.662	22097
866.793	21979
866.924	22021
867.055	22131
867.186	22021
867.317	22036
867.448	22002
867.579	22010
867.71	21975
867.841	22021
867.972	22116
868.103	22025
868.233	22006
868.364	22021
868.495	22211
868.625	22280
868.756	22322
868.886	22272
869.017	22246
869.147	22306
869.278	22363
869.408	22360
869.539	22215
869.669	22436
869.799	22382
869.929	22474
870.06	22329
870.19	22596
870.32	22592
870.45	22672
870.58	22664
870.71	22778
870.84	22786
870.97	22748
871.1	22755
871.23	22904
871.36	22873
871.489	22786
871.619	22953
871.749	22835
871.879	23006
872.008	22972
872.138	22919
872.267	22934
872.397	22824
872.526	22759
872.656	22740
872.785	22801
872.915	22938
873.044	23025
873.173	23048
873.303	22946
873.432	22930
873.561	22961
873.69	22923
873.819	23052
873.948	22862
874.077	22889
874.206	22911
874.335	22869
874.464	22938
874.593	23254
874.722	23151
874.851	23067
874.979	23147
875.108	23140
875.237	23102
875.365	23022
875.494	23151
875.623	23246
875.751	23200
875.88	23098
876.008	23242
876.136	23330
876.265	23611
876.393	23615
876.521	23619
876.65	23630
876.778	23535
876.906	23467
877.034	23478
877.162	23570
877.29	23486
877.418	23531
877.546	23505
877.674	23444
877.802	23471
877.93	23497
878.058	23535
878.185	23353
878.313	23391
878.441	23414
878.568	23326
878.696	23349
878.824	23577
878.951	23638
879.079	23710
879.206	23752
879.333	23646
879.461	23478
879.588	23589
879.715	23642
879.842	23596
879.97	23516
880.097	23364
880.224	23368
880.351	23170
880.478	23311
880.605	23296
880.732	23334
880.859	23611
880.986	23345
881.112	23299
881.239	23159
881.366	22991
881.493	22892
881.619	22828
881.746	22904
881.872	22816
881.999	22797
882.125	22793
882.252	23003
882.378	22759
882.505	22968
882.631	22660
882.757	22679
882.883	22706
883.01	22626
883.136	22455
883.262	22478
883.388	22394
883.514	22660
883.64	22588
883.766	22489
883.892	22219
884.018	22409
884.143	22538
884.269	22554
884.395	22344
884.52	22124
884.646	22124
884.772	22154
884.897	22105
885.023	22185
885.148	22318
885.274	22344
885.399	22322
885.524	22188
885.65	22238
885.775	22234
885.9	22169
886.025	22291
886.15	22207
886.275	22078
886.4	22013
886.525	22223
886.65	22070
886.775	22063
886.9	22379
887.025	22363
887.149	22173
887.274	21926
887.399	22002
887.523	21930
887.648	21945
887.773	21770
887.897	22029
888.021	22013
888.146	21911
888.27	22010
888.395	21945
888.519	21953
888.643	21983
888.767	21880
888.891	21846
889.015	21743
889.139	21743
889.263	21652
889.387	21816
889.511	21945
889.635	21956
889.759	21861
889.883	21652
890.006	21732
890.13	21835
890.254	21587
890.377	21713
890.501	21511
890.624	21397
890.748	21504
890.871	21272
890.995	21294
891.118	21317
891.241	21279
891.364	21218
891.488	21412
891.611	21252
891.734	21245
891.857	21233
891.98	21169
892.103	21389
892.226	21298
892.349	21154
892.471	21024
892.594	21211
892.717	21222
892.839	21207
892.962	21233
893.085	21199
893.207	21081
893.33	21024
893.452	21085
893.575	21138
893.697	21157
893.819	21386
893.941	21279
894.064	21302
894.186	21074
894.308	21058
894.43	21321
894.552	21184
894.674	21291
894.796	20925
894.918	21089
895.04	21036
895.161	21298
895.283	21127
895.405	21081
895.526	21192
895.648	21131
895.769	21222
895.891	21074
896.012	21245
896.134	21070
896.255	21123
896.376	21005
896.498	21119
896.619	21218
896.74	21135
896.861	21294
896.982	21412
897.103	21504
897.224	21374
897.345	21291
897.466	21325
897.587	21389
897.708	21515
897.828	21336
897.949	21298
898.07	21176
898.19	21264
898.311	21348
898.431	21176
898.552	21317
898.672	21363
898.792	21348
898.913	21264
899.033	21184
899.153	21089
899.273	20971
899.393	21100
899.513	21146
899.633	21047
899.753	21142
899.873	20990
899.993	21066
900.113	20998
900.232	21017
900.352	20872
900.472	20948
900.591	20712
900.711	20830
900.83	20754
900.95	20952
901.069	20952
901.189	20705
901.308	20374
901.427	20366
901.546	20309
901.665	20427
901.784	20358
901.904	20282
902.023	20077
902.141	20031
902.26	19902
902.379	19959
902.498	19921
902.617	19860
902.735	19955
902.854	19875
902.973	19875
903.091	19525
903.21	19616
903.328	19578
903.446	19422
903.565	19362
903.683	19483
903.801	19327
903.919	19327
904.038	19331
904.156	19080
904.274	19244
904.392	19110
904.51	19103
904.627	19088
904.745	19129
904.863	19206
904.981	18951
905.098	18791
905.216	18848
905.334	18787
905.451	18806
905.569	18707
905.686	18894
905.803	18779
905.921	18654
906.038	18692
906.155	18566
906.272	18445
906.389	18422
906.506	18273
906.623	18232
906.74	18273
906.857	18102
906.974	18338
907.091	18418
907.208	18391
907.324	18327
907.441	18205
907.557	18117
907.674	18041
907.79	17863
907.907	18038
908.023	18072
908.139	18102
908.256	17935
908.372	17870
908.488	17832
908.604	17699
908.72	17737
908.836	17756
908.952	17608
909.068	17798
909.184	17893
909.3	17615
909.415	17676
909.531	17657
909.647	17528
909.762	17383
909.878	17383
909.993	17402
910.108	17440
910.224	17318
910.339	17330
910.454	17204
910.57	17174
910.685	17056
910.8	17448
910.915	17318
911.03	17250
911.145	17018
911.259	17094
911.374	16961
911.489	16828
911.604	16831
911.718	16816
911.833	16755
911.947	16592
912.062	16558
912.176	16687
912.291	16790
912.405	16713
912.519	16873
912.633	16923
912.748	16862
912.862	16683
912.976	16523
913.09	16375
913.204	16558
913.318	16485
913.431	16618
913.545	16656
913.659	16645
913.772	16497
913.886	16299
914	16356
914.113	16398
914.226	16440
914.34	16402
914.453	16162
914.566	16390
914.68	16230
914.793	16139
914.906	15994
915.019	15899
915.132	15899
915.245	15941
915.358	15854
915.47	15918
915.583	15918
915.696	15949
915.809	15953
915.921	16040
916.034	15812
916.146	15819
916.259	15816
916.371	15975
916.483	15823
916.595	15686
916.708	15713
916.82	15808
916.932	15629
917.044	15762
917.156	15599
917.268	15496
917.38	15485
917.491	15545
917.603	15538
917.715	15568
917.826	15526
917.938	15447
918.049	15351
918.161	15553
918.272	15496
918.384	15618
918.495	15485
918.606	15252
918.717	15157
918.828	15298
918.939	15336
919.05	15127
919.161	15233
919.272	15043
919.383	15123
919.494	15313
919.604	15386
919.715	15218
919.826	15173
919.936	15222
920.047	15306
920.157	15199
920.267	15370
920.378	15272
920.488	15173
920.598	15340
920.708	15462
920.818	15355
920.928	15329
921.038	15462
921.148	15408
921.258	15142
921.368	15081
921.477	14925
921.587	14921
921.697	14819
921.806	14960
921.916	14724
922.025	14655
922.134	14602
922.244	14522
922.353	14579
922.462	14434
922.571	14434
922.68	14248
922.789	14138
922.898	14278
923.007	14145
923.116	14244
923.224	14225
923.333	14123
923.442	14020
923.55	14005
923.659	14077
923.767	13986
923.876	14027
923.984	13967
924.092	13883
924.201	14043
924.309	13898
924.417	13906
924.525	13879
924.633	13887
924.741	14575
924.849	13662
924.956	13856
925.064	13620
925.172	13559
925.279	13586
925.387	13586
925.494	13597
925.602	13811
925.709	13632
925.816	13480
925.924	13491
926.031	13548
926.138	13506
926.245	13571
926.352	13506
926.459	13590
926.566	13590
926.673	13460
926.779	13293
926.886	13297
926.993	13206
927.099	13084
927.206	13046
927.312	13015
927.419	13187
927.525	13133
927.631	13141
927.737	13042
927.843	12993
927.95	12802
928.056	12935
928.162	12939
928.267	13015
928.373	13605
928.479	12947
928.585	12791
928.69	12939
928.796	12973
928.901	12844
929.007	12688
929.112	12772
929.218	12730
929.323	12677
929.428	12684
929.533	12741
929.638	12498
929.743	12570
929.848	12669
929.953	12654
930.058	12490
930.163	12357
930.267	12338
930.372	12429
930.477	12228
930.581	12513
930.685	12456
930.79	12087
930.894	12270
930.998	12262
931.103	12281
931.207	11901
931.311	11939
931.415	11733
931.519	11646
931.623	11596
