Data from test_V78500241_2282.txt Node
Date: Fri Mar 25 15:57:36 CST 2022
User: usil
Spectrometer: V785-0024
Trigger mode: 0
Integration Time (sec): 4.000000E-1
Scans to average: 1
Nonlinearity correction enabled: false
Boxcar width: 0
Storing dark spectrum: false
XAxis mode: Wavelengths
Number of Pixels in Spectrum: 1024
>>>>>Begin Spectral Data<<<<<
801.071	29212
801.214	29227
801.356	28915
801.499	28809
801.641	28672
801.783	28668
801.926	28729
802.068	28694
802.211	28599
802.353	28569
802.496	28516
802.638	28466
802.78	28310
802.923	28234
803.065	28215
803.208	28348
803.35	28390
803.492	28679
803.635	28569
803.777	28523
803.919	28706
804.061	28987
804.204	28774
804.346	28557
804.488	28538
804.63	28717
804.773	28542
804.915	28820
805.057	28812
805.199	28809
805.341	28763
805.483	28858
805.626	28782
805.768	28721
805.91	28755
806.052	28942
806.194	28801
806.336	28957
806.478	28915
806.62	29022
806.762	28961
806.904	29216
807.046	29337
807.188	29216
807.33	29318
807.472	29337
807.614	29379
807.756	29147
807.898	29151
808.04	29037
808.182	29079
808.324	29162
808.465	29181
808.607	29383
808.749	29653
808.891	29646
809.033	29733
809.174	29771
809.316	29493
809.458	29566
809.6	29406
809.741	29729
809.883	29714
810.025	29817
810.166	29885
810.308	29817
810.45	29794
810.591	29828
810.733	29551
810.875	29596
811.016	29531
811.158	29478
811.299	29661
811.441	29783
811.582	29627
811.724	29509
811.865	29493
812.007	29726
812.148	29581
812.29	29646
812.431	29676
812.573	29927
812.714	30106
812.855	30076
812.997	30152
813.138	30281
813.279	30201
813.421	30030
813.562	29946
813.703	29840
813.845	29707
813.986	29573
814.127	29288
814.268	29231
814.41	29299
814.551	29311
814.692	29395
814.833	29212
814.974	29258
815.115	29299
815.256	29181
815.397	29292
815.539	29197
815.68	29102
815.821	29029
815.962	29166
816.103	29128
816.244	28946
816.385	28866
816.526	28888
816.666	28599
816.807	28744
816.948	28702
817.089	28679
817.23	28755
817.371	28580
817.512	28584
817.653	28721
817.793	28550
817.934	28599
818.075	28580
818.216	28664
818.356	28542
818.497	28546
818.638	28440
818.778	28455
818.919	28489
819.06	28504
819.2	28424
819.341	28565
819.481	28660
819.622	28828
819.762	28968
819.903	28942
820.043	28919
820.184	28706
820.324	28755
820.465	28786
820.605	28683
820.746	28847
820.886	28588
821.026	28721
821.167	28744
821.307	28835
821.447	28668
821.588	28557
821.728	28356
821.868	28249
822.008	28169
822.149	28128
822.289	28029
822.429	27789
822.569	27838
822.709	27808
822.849	27625
822.99	27663
823.13	27572
823.27	27694
823.41	27538
823.55	27233
823.69	27496
823.83	27397
823.97	27378
824.11	27291
824.25	27211
824.389	27294
824.529	27317
824.669	27245
824.809	27359
824.949	27500
825.089	27340
825.228	27321
825.368	27173
825.508	27180
825.648	27176
825.787	27203
825.927	27367
826.067	27184
826.206	27214
826.346	27188
826.485	27340
826.625	27241
826.765	27275
826.904	27321
827.044	26834
827.183	26994
827.323	26876
827.462	26902
827.601	27036
827.741	26792
827.88	26914
828.02	26849
828.159	26845
828.298	26792
828.437	26868
828.577	26743
828.716	26918
828.855	26678
828.994	26598
829.134	26682
829.273	26594
829.412	26530
829.551	26473
829.69	26602
829.829	26609
829.968	26541
830.107	26621
830.246	26594
830.385	26488
830.524	26396
830.663	26488
830.802	26355
830.941	26115
831.08	26145
831.219	26176
831.357	26252
831.496	26469
831.635	26267
831.774	26122
831.913	26164
832.051	26043
832.19	26142
832.329	26054
832.467	25936
832.606	25811
832.744	25818
832.883	25769
833.022	25620
833.16	25791
833.299	25868
833.437	25841
833.576	26035
833.714	25921
833.852	26039
833.991	25921
834.129	26077
834.267	25936
834.406	25799
834.544	25944
834.682	25864
834.821	25799
834.959	26024
835.097	25833
835.235	25845
835.373	25940
835.511	25856
835.65	25727
835.788	25803
835.926	25575
836.064	25666
836.202	25548
836.34	25803
836.478	25734
836.615	25788
836.753	25887
836.891	25719
837.029	25868
837.167	25635
837.305	25742
837.443	25635
837.58	25643
837.718	25696
837.856	25567
837.993	25487
838.131	25506
838.269	25403
838.406	25533
838.544	25441
838.681	25282
838.819	25042
838.956	25015
839.094	24935
839.231	25038
839.369	25202
839.506	25445
839.643	25228
839.781	25091
839.918	24897
840.055	25000
840.193	25000
840.33	24848
840.467	24966
840.604	24951
840.742	25141
840.879	24840
841.016	24776
841.153	24681
841.29	24973
841.427	24882
841.564	25088
841.701	24738
841.838	24829
841.975	24696
842.112	24840
842.249	24749
842.385	24665
842.522	24894
842.659	24589
842.796	24635
842.933	24684
843.069	24540
843.206	24635
843.343	24707
843.479	24658
843.616	24681
843.752	24513
843.889	24521
844.025	24574
844.162	24471
844.298	24490
844.435	24467
844.571	24521
844.708	24627
844.844	24483
844.98	24494
845.117	24551
845.253	24399
845.389	24281
845.525	24232
845.661	24197
845.798	24144
845.934	24266
846.07	24117
846.206	24220
846.342	24350
846.478	24148
846.614	23996
846.75	23897
846.886	23954
847.022	24022
847.158	23802
847.294	23897
847.429	23836
847.565	23828
847.701	24018
847.837	23528
847.972	23516
848.108	23596
848.244	23733
848.379	23433
848.515	23452
848.65	23566
848.786	23562
848.921	23478
849.057	23570
849.192	23528
849.328	23444
849.463	23543
849.598	23425
849.734	23337
849.869	23261
850.004	23315
850.14	23402
850.275	23185
850.41	23128
850.545	23147
850.68	23098
850.815	23288
850.95	23208
851.085	23417
851.22	23242
851.355	23322
851.49	23174
851.625	23162
851.76	23284
851.895	23174
852.03	23143
852.165	23197
852.299	23185
852.434	23425
852.569	23132
852.703	23193
852.838	23170
852.973	23379
853.107	23307
853.242	23075
853.376	22965
853.511	22866
853.645	23018
853.78	23185
853.914	23136
854.048	23086
854.183	23018
854.317	23083
854.451	23197
854.585	23006
854.72	23041
854.854	23136
854.988	22987
855.122	23010
855.256	22873
855.39	23083
855.524	23018
855.658	23071
855.792	23105
855.926	23056
856.06	23018
856.194	23155
856.327	23109
856.461	22965
856.595	23022
856.729	23022
856.862	23098
856.996	22953
857.13	23140
857.263	23090
857.397	23132
857.53	22976
857.664	23216
857.797	23105
857.931	23067
858.064	23075
858.197	23193
858.331	22927
858.464	22991
858.597	22915
858.731	23147
858.864	23143
858.997	23010
859.13	23029
859.263	22957
859.396	23022
859.529	23022
859.662	23094
859.795	23094
859.928	23010
860.061	23220
860.194	23200
860.327	23136
860.46	23086
860.592	23109
860.725	23235
860.858	23254
860.99	23022
861.123	22965
861.256	23075
861.388	23064
861.521	23668
861.653	22919
861.786	22744
861.918	22919
862.05	22835
862.183	22885
862.315	22919
862.447	23079
862.58	23025
862.712	22725
862.844	22668
862.976	22896
863.108	22854
863.24	23048
863.372	22725
863.504	22778
863.636	22835
863.768	22713
863.9	22759
864.032	22733
864.164	22706
864.296	22755
864.428	22866
864.559	22752
864.691	22831
864.823	22672
864.954	22744
865.086	22721
865.217	22721
865.349	22599
865.48	22478
865.612	22603
865.743	22729
865.875	22565
866.006	22706
866.137	22615
866.269	22611
866.4	22546
866.531	22485
866.662	22390
866.793	22485
866.924	22443
867.055	22538
867.186	22603
867.317	22512
867.448	22413
867.579	22470
867.71	22363
867.841	22390
867.972	22523
868.103	22565
868.233	22500
868.364	22584
868.495	22554
868.625	22729
868.756	22877
868.886	22596
869.017	22713
869.147	22866
869.278	22908
869.408	22831
869.539	22767
869.669	22835
869.799	22793
869.929	22885
870.06	22843
870.19	23033
870.32	23018
870.45	23075
870.58	23181
870.71	23231
870.84	23307
870.97	23067
871.1	23162
871.23	23299
871.36	23277
871.489	23185
871.619	23337
871.749	23254
871.879	23471
872.008	23421
872.138	23364
872.267	23341
872.397	23208
872.526	23212
872.656	23204
872.785	23197
872.915	23417
873.044	23360
873.173	23356
873.303	23406
873.432	23459
873.561	23501
873.69	23440
873.819	23345
873.948	23452
874.077	23429
874.206	23360
874.335	23258
874.464	23368
874.593	23649
874.722	23543
874.851	23596
874.979	23653
875.108	23524
875.237	23596
875.365	23486
875.494	23543
875.623	23687
875.751	23661
875.88	23520
876.008	23741
876.136	23824
876.265	23920
876.393	24106
876.521	24087
876.65	24034
876.778	23927
876.906	23996
877.034	23939
877.162	23973
877.29	23840
877.418	23935
877.546	23840
877.674	24011
877.802	23935
877.93	23870
878.058	23870
878.185	23794
878.313	23882
878.441	23954
878.568	23764
878.696	23745
878.824	23942
878.951	23992
879.079	24102
879.206	24228
879.333	24129
879.461	23931
879.588	24011
879.715	24171
879.842	24117
879.97	23942
880.097	23783
880.224	23882
880.351	23775
880.478	23752
880.605	23668
880.732	23691
880.859	23904
880.986	23668
881.112	23969
881.239	23573
881.366	23543
881.493	23356
881.619	23318
881.746	23372
881.872	23254
881.999	23261
882.125	23181
882.252	23341
882.378	23227
882.505	23265
882.631	23189
882.757	22923
882.883	22957
883.01	22961
883.136	22858
883.262	22843
883.388	22778
883.514	22915
883.64	23025
883.766	22854
883.892	22679
884.018	22755
884.143	22805
884.269	22957
884.395	22588
884.52	22489
884.646	22519
884.772	22474
884.897	22615
885.023	22478
885.148	22573
885.274	22816
885.399	22645
885.524	22694
885.65	22592
885.775	22710
885.9	22542
886.025	22603
886.15	22694
886.275	22447
886.4	22527
886.525	22382
886.65	22580
886.775	22512
886.9	22599
887.025	22782
887.149	22531
887.274	22348
887.399	22268
887.523	22310
887.648	22276
887.773	22234
887.897	22386
888.021	22348
888.146	22265
888.27	22398
888.395	22337
888.519	22295
888.643	22344
888.767	22436
888.891	22249
889.015	22101
889.139	22124
889.263	22128
889.387	22166
889.511	22314
889.635	22173
889.759	22090
889.883	22181
890.006	22097
890.13	22287
890.254	21991
890.377	22086
890.501	21739
890.624	21835
890.748	21934
890.871	21785
890.995	21641
891.118	21629
891.241	21709
891.364	21618
891.488	21713
891.611	21580
891.734	21625
891.857	21667
891.98	21701
892.103	21671
892.226	21663
892.349	21557
892.471	21466
892.594	21538
892.717	21515
892.839	21496
892.962	21485
893.085	21469
893.207	21603
893.33	21454
893.452	21420
893.575	21530
893.697	21469
893.819	21625
893.941	21713
894.064	21819
894.186	21412
894.308	21492
894.43	21625
894.552	21656
894.674	21648
894.796	21523
894.918	21530
895.04	21450
895.161	21549
895.283	21439
895.405	21424
895.526	21595
895.648	21492
895.769	21515
895.891	21656
896.012	21633
896.134	21458
896.255	21488
896.376	21538
896.498	21488
896.619	21576
896.74	21553
896.861	21576
896.982	21610
897.103	21835
897.224	21899
897.345	21652
897.466	21591
897.587	21717
897.708	21838
897.828	21759
897.949	21561
898.07	21614
898.19	21625
898.311	21736
898.431	21736
898.552	21694
898.672	21599
898.792	21732
898.913	21747
899.033	21641
899.153	21435
899.273	21416
899.393	21363
899.513	21549
899.633	21549
899.753	21458
899.873	21370
899.993	21298
900.113	21256
900.232	21488
900.352	21325
900.472	21298
900.591	21093
900.711	21237
900.83	21123
900.95	21291
901.069	21173
901.189	21047
901.308	20876
901.427	20819
901.546	20762
901.665	20788
901.784	20697
901.904	20587
902.023	20533
902.141	20317
902.26	20199
902.379	20419
902.498	20225
902.617	20370
902.735	20248
902.854	20267
902.973	20172
903.091	19906
903.21	19925
903.328	19993
903.446	19841
903.565	19693
903.683	19643
903.801	19533
903.919	19597
904.038	19514
904.156	19464
904.274	19605
904.392	19502
904.51	19464
904.627	19476
904.745	19400
904.863	19590
904.981	19206
905.098	19145
905.216	19152
905.334	19141
905.451	19164
905.569	19099
905.686	19095
905.803	19126
905.921	19004
906.038	18943
906.155	18947
906.272	18814
906.389	18852
906.506	18498
906.623	18612
906.74	18650
906.857	18407
906.974	18525
907.091	18673
907.208	18719
907.324	18654
907.441	18452
907.557	18471
907.674	18399
907.79	18266
907.907	18209
908.023	18403
908.139	18338
908.256	18254
908.372	18133
908.488	18361
908.604	18068
908.72	17973
908.836	18068
908.952	17916
909.068	18098
909.184	18251
909.3	18102
909.415	18201
909.531	18022
909.647	17729
909.762	17752
909.878	17668
909.993	17710
910.108	17676
910.224	17714
910.339	17729
910.454	17627
910.57	17573
910.685	17429
910.8	17676
910.915	17714
911.03	17490
911.145	17406
911.259	17273
911.374	17349
911.489	17292
911.604	17174
911.718	17067
911.833	17121
911.947	17048
912.062	16915
912.176	17075
912.291	17083
912.405	17064
912.519	17258
912.633	17162
912.748	17079
912.862	17006
912.976	16816
913.09	16755
913.204	16755
913.318	16934
913.431	17025
913.545	16957
913.659	16904
913.772	16786
913.886	16599
914	16710
914.113	16752
914.226	16736
914.34	16641
914.453	16561
914.566	16687
914.68	16432
914.793	16508
914.906	16322
915.019	16261
915.132	16188
915.245	16124
915.358	16223
915.47	16238
915.583	16120
915.696	16143
915.809	16272
915.921	16382
916.034	16188
916.146	16044
916.259	16090
916.371	16219
916.483	16158
916.595	15972
916.708	15979
916.82	15994
916.932	15949
917.044	15899
917.156	15884
917.268	15854
917.38	15857
917.491	15770
917.603	15797
917.715	15797
917.826	15888
917.938	15759
918.049	15686
918.161	15663
918.272	15937
918.384	15922
918.495	15736
918.606	15629
918.717	15526
918.828	15667
918.939	15500
919.05	15382
919.161	15538
919.272	15412
919.383	15359
919.494	15584
919.604	15732
919.715	15538
919.826	15412
919.936	15428
920.047	15629
920.157	15447
920.267	15545
920.378	15488
920.488	15507
920.598	15637
920.708	15812
920.818	15564
920.928	15530
921.038	15850
921.148	15690
921.258	15492
921.368	15332
921.477	15192
921.587	15207
921.697	14994
921.806	15313
921.916	15024
922.025	14921
922.134	14868
922.244	14895
922.353	14838
922.462	14693
922.571	14773
922.68	14469
922.789	14484
922.898	14507
923.007	14374
923.116	14503
923.224	14400
923.333	14431
923.442	14381
923.55	14259
923.659	14366
923.767	14355
923.876	14218
923.984	14290
924.092	14142
924.201	14210
924.309	14256
924.417	14164
924.525	14134
924.633	14050
924.741	15028
924.849	13974
924.956	14001
925.064	13906
925.172	13879
925.279	13868
925.387	13852
925.494	13883
925.602	14005
925.709	13807
925.816	13712
925.924	13750
926.031	13959
926.138	13753
926.245	13822
926.352	13658
926.459	13845
926.566	13871
926.673	13696
926.779	13666
926.886	13518
926.993	13491
927.099	13358
927.206	13266
927.312	13324
927.419	13426
927.525	13263
927.631	13335
927.737	13316
927.843	13293
927.95	13065
928.056	13270
928.162	13255
928.267	13187
928.373	13913
928.479	13206
928.585	12970
928.69	13145
928.796	13156
928.901	13027
929.007	12856
929.112	13000
929.218	12966
929.323	12894
929.428	12871
929.533	12981
929.638	12734
929.743	12871
929.848	12840
929.953	12810
930.058	12654
930.163	12517
930.267	12483
930.372	12719
930.477	12422
930.581	12715
930.685	12551
930.79	12433
930.894	12422
930.998	12342
931.103	12551
931.207	12110
931.311	12106
931.415	11904
931.519	11855
931.623	11863
