Data from test_V78500241_1782.txt Node
Date: Fri Mar 25 15:54:08 CST 2022
User: usil
Spectrometer: V785-0024
Trigger mode: 0
Integration Time (sec): 4.000000E-1
Scans to average: 1
Nonlinearity correction enabled: false
Boxcar width: 0
Storing dark spectrum: false
XAxis mode: Wavelengths
Number of Pixels in Spectrum: 1024
>>>>>Begin Spectral Data<<<<<
801.071	28622
801.214	28485
801.356	28417
801.499	28230
801.641	28257
801.783	28044
801.926	28333
802.068	28192
802.211	28200
802.353	28097
802.496	27903
802.638	27949
802.78	27903
802.923	27785
803.065	27759
803.208	27819
803.35	27835
803.492	27968
803.635	28093
803.777	28025
803.919	28173
804.061	28382
804.204	28200
804.346	28063
804.488	28090
804.63	28078
804.773	28223
804.915	28219
805.057	28230
805.199	28158
805.341	28291
805.483	28379
805.626	28306
805.768	28253
805.91	28295
806.052	28409
806.194	28135
806.336	28466
806.478	28295
806.62	28375
806.762	28382
806.904	28637
807.046	28896
807.188	28626
807.33	28725
807.472	28790
807.614	28656
807.756	28717
807.898	28687
808.04	28588
808.182	28656
808.324	28504
808.465	28466
808.607	28759
808.749	28938
808.891	29014
809.033	29162
809.174	29083
809.316	28953
809.458	29124
809.6	29014
809.741	29231
809.883	29189
810.025	29318
810.166	29288
810.308	29193
810.45	29136
810.591	29204
810.733	28961
810.875	28850
811.016	28809
811.158	28881
811.299	29174
811.441	29223
811.582	29166
811.724	29064
811.865	28858
812.007	28915
812.148	28961
812.29	29056
812.431	29204
812.573	29387
812.714	29528
812.855	29619
812.997	29600
813.138	29832
813.279	29653
813.421	29501
813.562	29452
813.703	29345
813.845	29208
813.986	28888
814.127	28816
814.268	28736
814.41	28786
814.551	28615
814.692	28721
814.833	28740
814.974	28687
815.115	28668
815.256	28675
815.397	28626
815.539	28573
815.68	28512
815.821	28398
815.962	28516
816.103	28363
816.244	28337
816.385	28417
816.526	28246
816.666	28051
816.807	28002
816.948	28135
817.089	28223
817.23	28036
817.371	27941
817.512	27983
817.653	27998
817.793	27903
817.934	27956
818.075	28090
818.216	27926
818.356	27964
818.497	27983
818.638	27633
818.778	27728
818.919	27873
819.06	27899
819.2	27937
819.341	28044
819.481	28021
819.622	28238
819.762	28325
819.903	28417
820.043	28192
820.184	28082
820.324	28219
820.465	28299
820.605	28188
820.746	28131
820.886	28017
821.026	28074
821.167	28044
821.307	28101
821.447	28017
821.588	27884
821.728	27865
821.868	27523
822.008	27644
822.149	27564
822.289	27591
822.429	27180
822.569	27218
822.709	27272
822.849	27074
822.99	27066
823.13	27005
823.27	27017
823.41	26815
823.55	26735
823.69	26868
823.83	26815
823.97	26819
824.11	26815
824.25	26602
824.389	26594
824.529	26830
824.669	26716
824.809	26731
824.949	26788
825.089	26765
825.228	26777
825.368	26545
825.508	26609
825.648	26552
825.787	26590
825.927	26655
826.067	26545
826.206	26541
826.346	26625
826.485	26644
826.625	26488
826.765	26530
826.904	26537
827.044	26206
827.183	26332
827.323	26202
827.462	26237
827.601	26263
827.741	26259
827.88	26309
828.02	26187
828.159	26122
828.298	26301
828.437	26286
828.577	26142
828.716	26301
828.855	26077
828.994	26027
829.134	26012
829.273	26027
829.412	25890
829.551	25776
829.69	25913
829.829	26043
829.968	26024
830.107	26062
830.246	26050
830.385	25795
830.524	25871
830.663	25609
830.802	25651
830.941	25548
831.08	25426
831.219	25609
831.357	25510
831.496	25811
831.635	25578
831.774	25479
831.913	25476
832.051	25460
832.19	25468
832.329	25392
832.467	25335
832.606	25137
832.744	25061
832.883	25228
833.022	25255
833.16	25202
833.299	25411
833.437	25331
833.576	25362
833.714	25339
833.852	25259
833.991	25240
834.129	25240
834.267	25354
834.406	25263
834.544	25255
834.682	25297
834.821	25175
834.959	25358
835.097	25194
835.235	25381
835.373	25255
835.511	25228
835.65	25236
835.788	25069
835.926	25034
836.064	24814
836.202	24814
836.34	25190
836.478	25088
836.615	25141
836.753	25145
836.891	25209
837.029	25099
837.167	24962
837.305	24947
837.443	24928
837.58	24996
837.718	24970
837.856	25008
837.993	24875
838.131	24958
838.269	24802
838.406	24817
838.544	24719
838.681	24669
838.819	24597
838.956	24460
839.094	24391
839.231	24407
839.369	24574
839.506	24867
839.643	24677
839.781	24403
839.918	24311
840.055	24319
840.193	24334
840.33	24369
840.467	24399
840.604	24327
840.742	24502
840.879	24304
841.016	24167
841.153	24171
841.29	24445
841.427	24346
841.564	24235
841.701	24338
841.838	24277
841.975	24186
842.112	24190
842.249	24106
842.385	24072
842.522	24205
842.659	24152
842.796	23939
842.933	24064
843.069	24091
843.206	24022
843.343	24091
843.479	24030
843.616	23988
843.752	23729
843.889	23775
844.025	23954
844.162	23737
844.298	24007
844.435	23817
844.571	23794
844.708	23790
844.844	23855
844.98	23992
845.117	23927
845.253	23672
845.389	23764
845.525	23676
845.661	23722
845.798	23611
845.934	23570
846.07	23455
846.206	23486
846.342	23634
846.478	23600
846.614	23292
846.75	23147
846.886	23277
847.022	23372
847.158	23296
847.294	23181
847.429	23345
847.565	23128
847.701	23421
847.837	23003
847.972	22995
848.108	23079
848.244	23113
848.379	22828
848.515	22881
848.65	22767
848.786	22835
848.921	22877
849.057	22961
849.192	22991
849.328	22904
849.463	22774
849.598	22831
849.734	22786
849.869	22687
850.004	22744
850.14	22668
850.275	22668
850.41	22645
850.545	22630
850.68	22618
850.815	22603
850.95	22634
851.085	22858
851.22	22816
851.355	22588
851.49	22481
851.625	22580
851.76	22580
851.895	22493
852.03	22470
852.165	22698
852.299	22740
852.434	22702
852.569	22668
852.703	22580
852.838	22790
852.973	22755
853.107	22687
853.242	22493
853.376	22573
853.511	22390
853.645	22424
853.78	22577
853.914	22508
854.048	22424
854.183	22474
854.317	22546
854.451	22683
854.585	22512
854.72	22508
854.854	22497
854.988	22310
855.122	22493
855.256	22409
855.39	22405
855.524	22455
855.658	22455
855.792	22386
855.926	22276
856.06	22516
856.194	22443
856.327	22348
856.461	22436
856.595	22268
856.729	22356
856.862	22478
856.996	22462
857.13	22538
857.263	22542
857.397	22481
857.53	22379
857.664	22519
857.797	22561
857.931	22535
858.064	22542
858.197	22504
858.331	22402
858.464	22432
858.597	22276
858.731	22497
858.864	22405
858.997	22409
859.13	22405
859.263	22409
859.396	22527
859.529	22386
859.662	22424
859.795	22436
859.928	22478
860.061	22637
860.194	22668
860.327	22432
860.46	22379
860.592	22607
860.725	22664
860.858	22637
860.99	22417
861.123	22356
861.256	22443
861.388	22584
861.521	23014
861.653	22310
861.786	22428
861.918	22367
862.05	22405
862.183	22382
862.315	22402
862.447	22554
862.58	22265
862.712	22242
862.844	22143
862.976	22215
863.108	22249
863.24	22611
863.372	22093
863.504	22097
863.636	22169
863.768	22143
863.9	22078
864.032	22048
864.164	22017
864.296	22131
864.428	22200
864.559	22223
864.691	22166
864.823	22188
864.954	22086
865.086	22090
865.217	21994
865.349	21979
865.48	22025
865.612	22021
865.743	22196
865.875	22120
866.006	22006
866.137	22040
866.269	22090
866.4	22006
866.531	21968
866.662	21972
866.793	21998
866.924	21968
867.055	21998
867.186	21819
867.317	21842
867.448	21979
867.579	21918
867.71	21819
867.841	21778
867.972	21880
868.103	22051
868.233	21869
868.364	21968
868.495	22051
868.625	22204
868.756	22306
868.886	22147
869.017	22135
869.147	22188
869.278	22344
869.408	22086
869.539	22246
869.669	22295
869.799	22192
869.929	22291
870.06	22246
870.19	22390
870.32	22432
870.45	22527
870.58	22664
870.71	22698
870.84	22771
870.97	22573
871.1	22565
871.23	22740
871.36	22767
871.489	22679
871.619	22824
871.749	22835
871.879	22771
872.008	22946
872.138	22805
872.267	22729
872.397	22774
872.526	22573
872.656	22622
872.785	22664
872.915	22626
873.044	22915
873.173	22873
873.303	22828
873.432	22763
873.561	22858
873.69	22923
873.819	22881
873.948	22854
874.077	22820
874.206	22733
874.335	22858
874.464	22801
874.593	23056
874.722	22987
874.851	23113
874.979	23090
875.108	23064
875.237	22999
875.365	22938
875.494	23006
875.623	23140
875.751	23003
875.88	23064
876.008	23102
876.136	23121
876.265	23379
876.393	23581
876.521	23535
876.65	23585
876.778	23440
876.906	23353
877.034	23337
877.162	23239
877.29	23216
877.418	23398
877.546	23395
877.674	23341
877.802	23311
877.93	23330
878.058	23353
878.185	23227
878.313	23273
878.441	23463
878.568	23181
878.696	23349
878.824	23383
878.951	23387
879.079	23562
879.206	23699
879.333	23459
879.461	23258
879.588	23551
879.715	23600
879.842	23608
879.97	23372
880.097	23117
880.224	23231
880.351	23185
880.478	23067
880.605	23067
880.732	23345
880.859	23379
880.986	23117
881.112	23220
881.239	22995
881.366	22820
881.493	22881
881.619	22793
881.746	22702
881.872	22774
881.999	22771
882.125	22736
882.252	22721
882.378	22706
882.505	22866
882.631	22588
882.757	22531
882.883	22478
883.01	22360
883.136	22466
883.262	22166
883.388	22303
883.514	22367
883.64	22386
883.766	22333
883.892	22116
884.018	22249
884.143	22257
884.269	22466
884.395	22143
884.52	21994
884.646	22090
884.772	21895
884.897	21876
885.023	22032
885.148	22070
885.274	22131
885.399	22131
885.524	22135
885.65	21972
885.775	21964
885.9	22032
886.025	22223
886.15	22131
886.275	22025
886.4	21869
886.525	22078
886.65	21953
886.775	21964
886.9	22124
887.025	22219
887.149	21850
887.274	21774
887.399	21835
887.523	21789
887.648	21751
887.773	21713
887.897	21865
888.021	21838
888.146	21717
888.27	21983
888.395	21918
888.519	21736
888.643	21800
888.767	21838
888.891	21766
889.015	21492
889.139	21576
889.263	21542
889.387	21701
889.511	21854
889.635	21705
889.759	21519
889.883	21504
890.006	21511
890.13	21682
890.254	21564
890.377	21504
890.501	21420
890.624	21340
890.748	21397
890.871	21279
890.995	21047
891.118	21096
891.241	21112
891.364	21195
891.488	21291
891.611	21195
891.734	21138
891.857	21108
891.98	21188
892.103	21203
892.226	21070
892.349	21089
892.471	20910
892.594	21024
892.717	21161
892.839	20910
892.962	21070
893.085	21119
893.207	21058
893.33	20842
893.452	20982
893.575	21108
893.697	20986
893.819	21127
893.941	21218
894.064	21089
894.186	20842
894.308	21001
894.43	21096
894.552	21116
894.674	21173
894.796	20937
894.918	20937
895.04	20952
895.161	21150
895.283	21024
895.405	21013
895.526	21051
895.648	21108
895.769	20960
895.891	20990
896.012	21077
896.134	21009
896.255	21017
896.376	20853
896.498	21127
896.619	21077
896.74	20895
896.861	21119
896.982	21302
897.103	21542
897.224	21298
897.345	21275
897.466	21154
897.587	21256
897.708	21283
897.828	21237
897.949	21146
898.07	21154
898.19	21176
898.311	21226
898.431	21127
898.552	21138
898.672	21188
898.792	21218
898.913	21321
899.033	21058
899.153	21066
899.273	20883
899.393	20982
899.513	21009
899.633	20929
899.753	20902
899.873	20883
899.993	20899
900.113	20792
900.232	20963
900.352	20800
900.472	20811
900.591	20674
900.711	20807
900.83	20632
900.95	20769
901.069	20830
901.189	20571
901.308	20271
901.427	20286
901.546	20294
901.665	20229
901.784	20259
901.904	20119
902.023	20191
902.141	19894
902.26	19856
902.379	19959
902.498	19765
902.617	19746
902.735	19818
902.854	19769
902.973	19704
903.091	19438
903.21	19464
903.328	19396
903.446	19438
903.565	19247
903.683	19335
903.801	19190
903.919	19148
904.038	19209
904.156	19008
904.274	19110
904.392	18947
904.51	19015
904.627	18875
904.745	18985
904.863	19042
904.981	18779
905.098	18661
905.216	18665
905.334	18673
905.451	18681
905.569	18597
905.686	18688
905.803	18665
905.921	18528
906.038	18593
906.155	18475
906.272	18365
906.389	18418
906.506	18133
906.623	18155
906.74	18205
906.857	18171
906.974	18159
907.091	18258
907.208	18281
907.324	18194
907.441	18057
907.557	18030
907.674	17843
907.79	17904
907.907	17752
908.023	17851
908.139	18019
908.256	17855
908.372	17775
908.488	17741
908.604	17771
908.72	17657
908.836	17611
908.952	17592
909.068	17566
909.184	17786
909.3	17589
909.415	17676
909.531	17661
909.647	17360
909.762	17273
909.878	17261
909.993	17216
910.108	17307
910.224	17273
910.339	17337
910.454	17258
910.57	17174
910.685	16991
910.8	17337
910.915	17284
911.03	17094
911.145	16995
911.259	16930
911.374	16835
911.489	16873
911.604	16767
911.718	16611
911.833	16702
911.947	16558
912.062	16466
912.176	16618
912.291	16687
912.405	16748
912.519	16854
912.633	16831
912.748	16675
912.862	16664
912.976	16497
913.09	16322
913.204	16417
913.318	16462
913.431	16527
913.545	16436
913.659	16596
913.772	16405
913.886	16375
914	16200
914.113	16280
914.226	16348
914.34	16265
914.453	16147
914.566	16299
914.68	16109
914.793	15987
914.906	15903
915.019	15915
915.132	15747
915.245	15766
915.358	15831
915.47	15850
915.583	15789
915.696	15918
915.809	15865
915.921	15880
916.034	15720
916.146	15743
916.259	15648
916.371	15781
916.483	15736
916.595	15576
916.708	15587
916.82	15694
916.932	15641
917.044	15584
917.156	15492
917.268	15458
917.38	15344
917.491	15462
917.603	15458
917.715	15450
917.826	15447
917.938	15321
918.049	15313
918.161	15458
918.272	15526
918.384	15496
918.495	15424
918.606	15294
918.717	15180
918.828	15230
918.939	15192
919.05	15138
919.161	15157
919.272	15058
919.383	15131
919.494	15306
919.604	15302
919.715	15127
919.826	15119
919.936	15081
920.047	15306
920.157	15055
920.267	15310
920.378	15142
920.488	15097
920.598	15412
920.708	15511
920.818	15325
920.928	15272
921.038	15408
921.148	15367
921.258	15047
921.368	15093
921.477	14823
921.587	14933
921.697	14659
921.806	14872
921.916	14674
922.025	14564
922.134	14526
922.244	14442
922.353	14488
922.462	14419
922.571	14275
922.68	14176
922.789	14107
922.898	14225
923.007	14157
923.116	14191
923.224	14168
923.333	14176
923.442	13955
923.55	13970
923.659	13955
923.767	14058
923.876	13993
923.984	13951
924.092	13849
924.201	13879
924.309	13871
924.417	13917
924.525	13852
924.633	13826
924.741	14587
924.849	13616
924.956	13826
925.064	13734
925.172	13537
925.279	13499
925.387	13518
925.494	13605
925.602	13776
925.709	13533
925.816	13381
925.924	13491
926.031	13582
926.138	13472
926.245	13563
926.352	13476
926.459	13540
926.566	13571
926.673	13422
926.779	13255
926.886	13225
926.993	13244
927.099	13046
927.206	13034
927.312	13099
927.419	13129
927.525	13061
927.631	13149
927.737	12993
927.843	12852
927.95	12817
928.056	12859
928.162	12962
928.267	12920
928.373	13552
928.479	12951
928.585	12741
928.69	12871
928.796	12875
928.901	12764
929.007	12593
929.112	12696
929.218	12688
929.323	12738
929.428	12612
929.533	12726
929.638	12620
929.743	12631
929.848	12631
929.953	12616
930.058	12460
930.163	12304
930.267	12266
930.372	12517
930.477	12289
930.581	12429
930.685	12319
930.79	12171
930.894	12235
930.998	12152
931.103	12308
931.207	11927
931.311	11885
931.415	11824
931.519	11653
931.623	11539
