Data from test_V78500241_3613.txt Node
Date: Fri Mar 25 16:06:49 CST 2022
User: usil
Spectrometer: V785-0024
Trigger mode: 0
Integration Time (sec): 4.000000E-1
Scans to average: 1
Nonlinearity correction enabled: false
Boxcar width: 0
Storing dark spectrum: false
XAxis mode: Wavelengths
Number of Pixels in Spectrum: 1024
>>>>>Begin Spectral Data<<<<<
801.071	28683
801.214	28611
801.356	28577
801.499	28466
801.641	28447
801.783	28303
801.926	28352
802.068	28268
802.211	28318
802.353	28280
802.496	28120
802.638	28139
802.78	28006
802.923	27888
803.065	28032
803.208	28112
803.35	28010
803.492	28200
803.635	28238
803.777	28166
803.919	28303
804.061	28577
804.204	28341
804.346	28272
804.488	28188
804.63	28185
804.773	28238
804.915	28341
805.057	28253
805.199	28291
805.341	28440
805.483	28599
805.626	28474
805.768	28394
805.91	28375
806.052	28485
806.194	28451
806.336	28478
806.478	28493
806.62	28607
806.762	28599
806.904	28706
807.046	28873
807.188	28915
807.33	28968
807.472	29003
807.614	28850
807.756	28858
807.898	28725
808.04	28729
808.182	28622
808.324	28744
808.465	28790
808.607	28904
808.749	29064
808.891	29128
809.033	29231
809.174	29155
809.316	29102
809.458	29098
809.6	29136
809.741	29193
809.883	29250
810.025	29417
810.166	29490
810.308	29360
810.45	29406
810.591	29444
810.733	29200
810.875	29086
811.016	29079
811.158	29067
811.299	29239
811.441	29395
811.582	29261
811.724	29227
811.865	29075
812.007	29265
812.148	29170
812.29	29273
812.431	29280
812.573	29417
812.714	29714
812.855	29600
812.997	29646
813.138	29771
813.279	29767
813.421	29649
813.562	29642
813.703	29547
813.845	29341
813.986	29181
814.127	29113
814.268	28740
814.41	28862
814.551	28809
814.692	28831
814.833	28668
814.974	28854
815.115	28805
815.256	28748
815.397	28694
815.539	28554
815.68	28618
815.821	28565
815.962	28710
816.103	28702
816.244	28649
816.385	28565
816.526	28500
816.666	28230
816.807	28215
816.948	28272
817.089	28352
817.23	28158
817.371	28284
817.512	28249
817.653	28097
817.793	27998
817.934	28181
818.075	28223
818.216	28101
818.356	28147
818.497	28093
818.638	27926
818.778	27941
818.919	27876
819.06	28097
819.2	27949
819.341	28097
819.481	28329
819.622	28329
819.762	28554
819.903	28519
820.043	28284
820.184	28421
820.324	28116
820.465	28485
820.605	28280
820.746	28230
820.886	28181
821.026	28188
821.167	28200
821.307	28371
821.447	28188
821.588	28204
821.728	27892
821.868	27770
822.008	27720
822.149	27671
822.289	27606
822.429	27321
822.569	27424
822.709	27378
822.849	27233
822.99	27272
823.13	27218
823.27	27146
823.41	26979
823.55	26811
823.69	27081
823.83	27089
823.97	27066
824.11	26804
824.25	26811
824.389	26796
824.529	26868
824.669	26819
824.809	27005
824.949	26899
825.089	26857
825.228	26906
825.368	26678
825.508	26735
825.648	26796
825.787	26845
825.927	26804
826.067	26712
826.206	26800
826.346	26708
826.485	26773
826.625	26750
826.765	26887
826.904	26800
827.044	26697
827.183	26598
827.323	26385
827.462	26606
827.601	26453
827.741	26545
827.88	26469
828.02	26358
828.159	26396
828.298	26571
828.437	26541
828.577	26495
828.716	26530
828.855	26442
828.994	26206
829.134	25997
829.273	26180
829.412	26107
829.551	26001
829.69	26043
829.829	26218
829.968	26206
830.107	26119
830.246	26153
830.385	26031
830.524	25978
830.663	26073
830.802	25887
830.941	25761
831.08	25651
831.219	25944
831.357	25693
831.496	25887
831.635	25723
831.774	25662
831.913	25460
832.051	25468
832.19	25567
832.329	25685
832.467	25445
832.606	25343
832.744	25449
832.883	25362
833.022	25586
833.16	25358
833.299	25419
833.437	25441
833.576	25457
833.714	25582
833.852	25502
833.991	25578
834.129	25582
834.267	25632
834.406	25411
834.544	25582
834.682	25510
834.821	25479
834.959	25670
835.097	25609
835.235	25590
835.373	25415
835.511	25483
835.65	25403
835.788	25335
835.926	25217
836.064	25110
836.202	25122
836.34	25270
836.478	25293
836.615	25225
836.753	25217
836.891	25354
837.029	25339
837.167	25194
837.305	25244
837.443	25126
837.58	25133
837.718	25232
837.856	25103
837.993	24996
838.131	24958
838.269	24973
838.406	25000
838.544	24859
838.681	24814
838.819	24703
838.956	24608
839.094	24631
839.231	24707
839.369	24726
839.506	25057
839.643	24806
839.781	24608
839.918	24483
840.055	24551
840.193	24578
840.33	24422
840.467	24467
840.604	24566
840.742	24734
840.879	24418
841.016	24391
841.153	24384
841.29	24460
841.427	24456
841.564	24578
841.701	24585
841.838	24422
841.975	24311
842.112	24357
842.249	24445
842.385	24152
842.522	24479
842.659	24300
842.796	24209
842.933	24235
843.069	24224
843.206	24247
843.343	24281
843.479	24129
843.616	24281
843.752	23958
843.889	24049
844.025	24140
844.162	23939
844.298	23977
844.435	23992
844.571	23950
844.708	24076
844.844	24117
844.98	24201
845.117	24015
845.253	24007
845.389	23805
845.525	23969
845.661	23897
845.798	23855
845.934	23760
846.07	23805
846.206	23798
846.342	23870
846.478	23775
846.614	23634
846.75	23425
846.886	23452
847.022	23600
847.158	23707
847.294	23520
847.429	23531
847.565	23531
847.701	23630
847.837	23166
847.972	23235
848.108	23311
848.244	23345
848.379	23227
848.515	23041
848.65	22976
848.786	22965
848.921	23083
849.057	23250
849.192	23181
849.328	23113
849.463	23041
849.598	23025
849.734	22991
849.869	22965
850.004	22976
850.14	22889
850.275	22748
850.41	22816
850.545	22710
850.68	22889
850.815	22949
850.95	22972
851.085	22976
851.22	22942
851.355	22934
851.49	22793
851.625	22850
851.76	22866
851.895	22740
852.03	22694
852.165	22740
852.299	22820
852.434	22892
852.569	22790
852.703	22797
852.838	22820
852.973	22980
853.107	23018
853.242	22622
853.376	22744
853.511	22470
853.645	22554
853.78	22660
853.914	22713
854.048	22561
854.183	22618
854.317	22793
854.451	22733
854.585	22630
854.72	22713
854.854	22717
854.988	22580
855.122	22816
855.256	22546
855.39	22782
855.524	22698
855.658	22729
855.792	22675
855.926	22645
856.06	22805
856.194	22778
856.327	22580
856.461	22538
856.595	22634
856.729	22588
856.862	22763
856.996	22649
857.13	22755
857.263	22710
857.397	22820
857.53	22675
857.664	22744
857.797	22653
857.931	22816
858.064	22634
858.197	22809
858.331	22550
858.464	22504
858.597	22538
858.731	22611
858.864	22580
858.997	22599
859.13	22588
859.263	22683
859.396	22824
859.529	22660
859.662	22561
859.795	22569
859.928	22603
860.061	22774
860.194	22835
860.327	22729
860.46	22565
860.592	22767
860.725	22725
860.858	22645
860.99	22615
861.123	22519
861.256	22565
861.388	22584
861.521	23353
861.653	22466
861.786	22432
861.918	22573
862.05	22333
862.183	22451
862.315	22599
862.447	22664
862.58	22603
862.712	22348
862.844	22253
862.976	22462
863.108	22348
863.24	22778
863.372	22436
863.504	22299
863.636	22303
863.768	22318
863.9	22299
864.032	22185
864.164	22253
864.296	22382
864.428	22470
864.559	22322
864.691	22390
864.823	22394
864.954	22253
865.086	22223
865.217	22192
865.349	22120
865.48	22219
865.612	22295
865.743	22284
865.875	22223
866.006	22265
866.137	22185
866.269	22223
866.4	22215
866.531	22185
866.662	22246
866.793	22101
866.924	22154
867.055	22257
867.186	22120
867.317	22112
867.448	22036
867.579	22188
867.71	22120
867.841	22147
867.972	22105
868.103	22055
868.233	22147
868.364	22124
868.495	22268
868.625	22417
868.756	22462
868.886	22367
869.017	22333
869.147	22409
869.278	22508
869.408	22443
869.539	22382
869.669	22432
869.799	22489
869.929	22421
870.06	22489
870.19	22626
870.32	22725
870.45	22702
870.58	22828
870.71	22885
870.84	22771
870.97	22892
871.1	22812
871.23	22904
871.36	22991
871.489	22850
871.619	23025
871.749	22873
871.879	23064
872.008	23071
872.138	22862
872.267	22968
872.397	22816
872.526	22778
872.656	22755
872.785	22809
872.915	22961
873.044	23140
873.173	22968
873.303	22976
873.432	23128
873.561	23079
873.69	23090
873.819	22968
873.948	22980
874.077	22915
874.206	22824
874.335	23029
874.464	22961
874.593	23174
874.722	23071
874.851	23197
874.979	23166
875.108	23296
875.237	23098
875.365	23242
875.494	23208
875.623	23284
875.751	23128
875.88	23208
876.008	23398
876.136	23410
876.265	23699
876.393	23634
876.521	23596
876.65	23699
876.778	23440
876.906	23482
877.034	23471
877.162	23566
877.29	23573
877.418	23657
877.546	23486
877.674	23600
877.802	23444
877.93	23547
878.058	23493
878.185	23471
878.313	23585
878.441	23592
878.568	23372
878.696	23379
878.824	23623
878.951	23707
879.079	23699
879.206	23908
879.333	23889
879.461	23646
879.588	23573
879.715	23661
879.842	23889
879.97	23623
880.097	23478
880.224	23315
880.351	23372
880.478	23322
880.605	23402
880.732	23379
880.859	23676
880.986	23311
881.112	23425
881.239	23277
881.366	23121
881.493	23029
881.619	22953
881.746	23033
881.872	22942
881.999	23010
882.125	22839
882.252	22934
882.378	22824
882.505	22991
882.631	22729
882.757	22660
882.883	22725
883.01	22584
883.136	22626
883.262	22500
883.388	22394
883.514	22527
883.64	22596
883.766	22512
883.892	22398
884.018	22497
884.143	22630
884.269	22538
884.395	22386
884.52	22124
884.646	22265
884.772	22143
884.897	22158
885.023	22147
885.148	22379
885.274	22253
885.399	22299
885.524	22226
885.65	22295
885.775	22238
885.9	22181
886.025	22409
886.15	22284
886.275	22242
886.4	22185
886.525	22265
886.65	22299
886.775	22204
886.9	22295
887.025	22398
887.149	22348
887.274	22078
887.399	21934
887.523	22013
887.648	21926
887.773	21869
887.897	21998
888.021	21987
888.146	21930
888.27	21949
888.395	22074
888.519	21991
888.643	22002
888.767	21953
888.891	21956
889.015	21785
889.139	21808
889.263	21842
889.387	21915
889.511	21991
889.635	21972
889.759	21660
889.883	21736
890.006	21785
890.13	21869
890.254	21751
890.377	21823
890.501	21485
890.624	21485
890.748	21576
890.871	21526
890.995	21420
891.118	21447
891.241	21424
891.364	21294
891.488	21469
891.611	21283
891.734	21332
891.857	21348
891.98	21469
892.103	21397
892.226	21351
892.349	21325
892.471	21127
892.594	21279
892.717	21218
892.839	21233
892.962	21199
893.085	21348
893.207	21313
893.33	21119
893.452	21283
893.575	21226
893.697	21207
893.819	21313
893.941	21252
894.064	21359
894.186	21264
894.308	20982
894.43	21245
894.552	21401
894.674	21233
894.796	21135
894.918	21214
895.04	21096
895.161	21207
895.283	21321
895.405	21127
895.526	21256
895.648	21138
895.769	21161
895.891	21192
896.012	21249
896.134	21332
896.255	21226
896.376	21161
896.498	20986
896.619	21256
896.74	21119
896.861	21176
896.982	21526
897.103	21580
897.224	21530
897.345	21439
897.466	21408
897.587	21386
897.708	21405
897.828	21523
897.949	21355
898.07	21127
898.19	21424
898.311	21405
898.431	21374
898.552	21294
898.672	21336
898.792	21466
898.913	21374
899.033	21397
899.153	21192
899.273	20975
899.393	21028
899.513	21226
899.633	21161
899.753	21192
899.873	21070
899.993	21127
900.113	21089
900.232	21085
900.352	20994
900.472	20849
900.591	20872
900.711	20826
900.83	20941
900.95	20971
901.069	21017
901.189	20864
901.308	20511
901.427	20484
901.546	20495
901.665	20415
901.784	20385
901.904	20389
902.023	20221
902.141	20092
902.26	19932
902.379	20115
902.498	19970
902.617	19963
902.735	20027
902.854	20012
902.973	19898
903.091	19753
903.21	19594
903.328	19723
903.446	19525
903.565	19502
903.683	19502
903.801	19369
903.919	19362
904.038	19354
904.156	19137
904.274	19255
904.392	19137
904.51	19175
904.627	19110
904.745	19217
904.863	19225
904.981	18875
905.098	18932
905.216	18833
905.334	18890
905.451	18825
905.569	18814
905.686	18878
905.803	18977
905.921	18608
906.038	18738
906.155	18601
906.272	18475
906.389	18494
906.506	18414
906.623	18494
906.74	18365
906.857	18205
906.974	18266
907.091	18353
907.208	18551
907.324	18327
907.441	18201
907.557	18152
907.674	18064
907.79	17813
907.907	18015
908.023	17999
908.139	18019
908.256	17961
908.372	18003
908.488	17901
908.604	17817
908.72	17790
908.836	17760
908.952	17760
909.068	17783
909.184	17885
909.3	17707
909.415	17916
909.531	17786
909.647	17520
909.762	17490
909.878	17406
909.993	17436
910.108	17395
910.224	17467
910.339	17433
910.454	17277
910.57	17330
910.685	17143
910.8	17417
910.915	17486
911.03	17197
911.145	17094
911.259	17143
911.374	17018
911.489	17102
911.604	16930
911.718	16869
911.833	16847
911.947	16721
912.062	16733
912.176	16748
912.291	16839
912.405	16683
912.519	16946
912.633	16911
912.748	16740
912.862	16771
912.976	16626
913.09	16500
913.204	16645
913.318	16668
913.431	16645
913.545	16618
913.659	16656
913.772	16554
913.886	16382
914	16493
914.113	16508
914.226	16432
914.34	16493
914.453	16276
914.566	16462
914.68	16268
914.793	16223
914.906	16013
915.019	15998
915.132	16002
915.245	15892
915.358	16017
915.47	15991
915.583	15983
915.696	15987
915.809	16101
915.921	15915
916.034	15812
916.146	15854
916.259	15880
916.371	15941
916.483	15930
916.595	15838
916.708	15724
916.82	15804
916.932	15728
917.044	15717
917.156	15701
917.268	15580
917.38	15591
917.491	15557
917.603	15561
917.715	15690
917.826	15698
917.938	15481
918.049	15439
918.161	15549
918.272	15728
918.384	15660
918.495	15485
918.606	15363
918.717	15268
918.828	15393
918.939	15351
919.05	15321
919.161	15336
919.272	15154
919.383	15237
919.494	15233
919.604	15542
919.715	15329
919.826	15180
919.936	15294
920.047	15272
920.157	15252
920.267	15466
920.378	15264
920.488	15275
920.598	15416
920.708	15469
920.818	15374
920.928	15416
921.038	15515
921.148	15454
921.258	15241
921.368	15135
921.477	14910
921.587	15013
921.697	14933
921.806	15020
921.916	14800
922.025	14792
922.134	14686
922.244	14552
922.353	14724
922.462	14465
922.571	14454
922.68	14290
922.789	14237
922.898	14324
923.007	14195
923.116	14294
923.224	14168
923.333	14271
923.442	14130
923.55	14081
923.659	14050
923.767	14187
923.876	13974
923.984	14084
924.092	14012
924.201	14046
924.309	14012
924.417	13921
924.525	13906
924.633	13898
924.741	14842
924.849	13689
924.956	13845
925.064	13639
925.172	13586
925.279	13609
925.387	13689
925.494	13571
925.602	13769
925.709	13582
925.816	13480
925.924	13533
926.031	13651
926.138	13499
926.245	13651
926.352	13601
926.459	13590
926.566	13674
926.673	13460
926.779	13483
926.886	13297
926.993	13255
927.099	13217
927.206	13095
927.312	13080
927.419	13236
927.525	13156
927.631	13236
927.737	13080
927.843	13084
927.95	12913
928.056	13038
928.162	13065
928.267	13015
928.373	13563
928.479	12970
928.585	12764
928.69	12882
928.796	12977
928.901	12894
929.007	12787
929.112	12863
929.218	12779
929.323	12616
929.428	12669
929.533	12783
929.638	12627
929.743	12593
929.848	12665
929.953	12677
930.058	12418
930.163	12426
930.267	12403
930.372	12547
930.477	12369
930.581	12494
930.685	12399
930.79	12304
930.894	12262
930.998	12296
931.103	12353
931.207	12098
931.311	11961
931.415	11794
931.519	11722
931.623	11630
