Data from test_V78500241_2660.txt Node
Date: Fri Mar 25 16:00:13 CST 2022
User: usil
Spectrometer: V785-0024
Trigger mode: 0
Integration Time (sec): 4.000000E-1
Scans to average: 1
Nonlinearity correction enabled: false
Boxcar width: 0
Storing dark spectrum: false
XAxis mode: Wavelengths
Number of Pixels in Spectrum: 1024
>>>>>Begin Spectral Data<<<<<
801.071	28854
801.214	28664
801.356	28413
801.499	28394
801.641	28276
801.783	28310
801.926	28409
802.068	28329
802.211	28291
802.353	28093
802.496	28051
802.638	28032
802.78	28059
802.923	28002
803.065	27895
803.208	28013
803.35	28025
803.492	28116
803.635	28211
803.777	28086
803.919	28318
804.061	28497
804.204	28306
804.346	28219
804.488	28070
804.63	28082
804.773	28185
804.915	28352
805.057	28405
805.199	28112
805.341	28436
805.483	28470
805.626	28413
805.768	28322
805.91	28299
806.052	28504
806.194	28291
806.336	28538
806.478	28474
806.62	28523
806.762	28500
806.904	28755
807.046	28934
807.188	28717
807.33	28915
807.472	28843
807.614	28831
807.756	28725
807.898	28740
808.04	28748
808.182	28634
808.324	28706
808.465	28847
808.607	28877
808.749	29113
808.891	29223
809.033	29318
809.174	29223
809.316	29037
809.458	29128
809.6	29098
809.741	29140
809.883	29109
810.025	29349
810.166	29204
810.308	29482
810.45	29334
810.591	29318
810.733	29052
810.875	29041
811.016	29075
811.158	29010
811.299	29128
811.441	29258
811.582	29284
811.724	29193
811.865	28946
812.007	29094
812.148	29124
812.29	29128
812.431	29334
812.573	29398
812.714	29661
812.855	29562
812.997	29707
813.138	29832
813.279	29794
813.421	29668
813.562	29596
813.703	29520
813.845	29227
813.986	28965
814.127	28847
814.268	28809
814.41	28866
814.551	28850
814.692	28797
814.833	28778
814.974	28672
815.115	28877
815.256	28694
815.397	28607
815.539	28660
815.68	28565
815.821	28462
815.962	28527
816.103	28588
816.244	28485
816.385	28428
816.526	28413
816.666	28261
816.807	28192
816.948	28158
817.089	28257
817.23	28192
817.371	28128
817.512	28093
817.653	28116
817.793	27972
817.934	28025
818.075	28154
818.216	28147
818.356	28051
818.497	27994
818.638	27789
818.778	27747
818.919	27979
819.06	27972
819.2	28097
819.341	28185
819.481	28158
819.622	28322
819.762	28443
819.903	28215
820.043	28299
820.184	28238
820.324	28173
820.465	28280
820.605	28147
820.746	28272
820.886	28078
821.026	28246
821.167	28215
821.307	28188
821.447	28207
821.588	27987
821.728	27937
821.868	27876
822.008	27656
822.149	27629
822.289	27618
822.429	27431
822.569	27321
822.709	27203
822.849	27180
822.99	27131
823.13	27077
823.27	26914
823.41	27017
823.55	26902
823.69	27039
823.83	26872
823.97	26998
824.11	26906
824.25	26758
824.389	26845
824.529	26914
824.669	26648
824.809	26906
824.949	26758
825.089	26792
825.228	26845
825.368	26720
825.508	26606
825.648	26606
825.787	26598
825.927	26644
826.067	26568
826.206	26651
826.346	26720
826.485	26583
826.625	26651
826.765	26762
826.904	26758
827.044	26400
827.183	26492
827.323	26324
827.462	26404
827.601	26298
827.741	26507
827.88	26438
828.02	26126
828.159	26282
828.298	26290
828.437	26339
828.577	26381
828.716	26461
828.855	26286
828.994	26119
829.134	26062
829.273	26065
829.412	26065
829.551	26050
829.69	26001
829.829	26145
829.968	26081
830.107	26199
830.246	26100
830.385	25913
830.524	25947
830.663	25940
830.802	25731
830.941	25784
831.08	25635
831.219	25670
831.357	25605
831.496	25750
831.635	25658
831.774	25597
831.913	25434
832.051	25499
832.19	25487
832.329	25388
832.467	25453
832.606	25285
832.744	25217
832.883	25350
833.022	25316
833.16	25388
833.299	25293
833.437	25270
833.576	25449
833.714	25327
833.852	25346
833.991	25358
834.129	25548
834.267	25491
834.406	25434
834.544	25373
834.682	25301
834.821	25343
834.959	25559
835.097	25282
835.235	25392
835.373	25331
835.511	25198
835.65	25400
835.788	25301
835.926	25046
836.064	25050
836.202	25069
836.34	25209
836.478	25244
836.615	25213
836.753	25175
836.891	25266
837.029	25320
837.167	25129
837.305	25129
837.443	25164
837.58	25031
837.718	25072
837.856	25095
837.993	24913
838.131	24996
838.269	24966
838.406	24943
838.544	24859
838.681	24722
838.819	24741
838.956	24407
839.094	24521
839.231	24597
839.369	24665
839.506	24833
839.643	24741
839.781	24525
839.918	24509
840.055	24513
840.193	24502
840.33	24448
840.467	24353
840.604	24486
840.742	24768
840.879	24357
841.016	24437
841.153	24155
841.29	24467
841.427	24407
841.564	24467
841.701	24281
841.838	24429
841.975	24182
842.112	24357
842.249	24167
842.385	24129
842.522	24247
842.659	24235
842.796	24205
842.933	24114
843.069	24197
843.206	24155
843.343	24281
843.479	24095
843.616	24224
843.752	23904
843.889	23836
844.025	24133
844.162	23874
844.298	23920
844.435	24003
844.571	23908
844.708	24007
844.844	23980
844.98	23973
845.117	24125
845.253	23965
845.389	23733
845.525	23836
845.661	23767
845.798	23805
845.934	23722
846.07	23661
846.206	23657
846.342	23824
846.478	23585
846.614	23429
846.75	23433
846.886	23372
847.022	23543
847.158	23482
847.294	23444
847.429	23406
847.565	23303
847.701	23649
847.837	23166
847.972	23121
848.108	23181
848.244	23117
848.379	23033
848.515	23006
848.65	22923
848.786	22953
848.921	22930
849.057	23094
849.192	23117
849.328	23079
849.463	23006
849.598	22877
849.734	22900
849.869	22877
850.004	22858
850.14	22759
850.275	22820
850.41	22653
850.545	22698
850.68	22675
850.815	22752
850.95	22793
851.085	22946
851.22	22885
851.355	22835
851.49	22771
851.625	22584
851.76	22679
851.895	22672
852.03	22660
852.165	22748
852.299	22668
852.434	22782
852.569	22744
852.703	22797
852.838	22748
852.973	22854
853.107	22999
853.242	22683
853.376	22519
853.511	22466
853.645	22592
853.78	22675
853.914	22557
854.048	22440
854.183	22386
854.317	22607
854.451	22801
854.585	22641
854.72	22577
854.854	22687
854.988	22527
855.122	22531
855.256	22455
855.39	22577
855.524	22733
855.658	22611
855.792	22569
855.926	22656
856.06	22569
856.194	22580
856.327	22443
856.461	22508
856.595	22546
856.729	22550
856.862	22653
856.996	22535
857.13	22569
857.263	22634
857.397	22664
857.53	22390
857.664	22653
857.797	22637
857.931	22664
858.064	22588
858.197	22702
858.331	22466
858.464	22440
858.597	22523
858.731	22478
858.864	22523
858.997	22561
859.13	22584
859.263	22542
859.396	22592
859.529	22527
859.662	22493
859.795	22580
859.928	22592
860.061	22717
860.194	22809
860.327	22622
860.46	22634
860.592	22649
860.725	22618
860.858	22793
860.99	22596
861.123	22481
861.256	22455
861.388	22550
861.521	23368
861.653	22485
861.786	22394
861.918	22386
862.05	22405
862.183	22527
862.315	22596
862.447	22519
862.58	22500
862.712	22322
862.844	22310
862.976	22314
863.108	22405
863.24	22694
863.372	22253
863.504	22367
863.636	22211
863.768	22272
863.9	22238
864.032	22261
864.164	22234
864.296	22356
864.428	22310
864.559	22386
864.691	22284
864.823	22318
864.954	22268
865.086	22181
865.217	22211
865.349	22116
865.48	22158
865.612	22223
865.743	22280
865.875	22154
866.006	22048
866.137	22143
866.269	22215
866.4	22162
866.531	22120
866.662	22010
866.793	22150
866.924	22086
867.055	22078
867.186	22067
867.317	21987
867.448	21964
867.579	22040
867.71	22051
867.841	21998
867.972	22013
868.103	22139
868.233	22204
868.364	22112
868.495	21979
868.625	22337
868.756	22371
868.886	22265
869.017	22363
869.147	22379
869.278	22402
869.408	22295
869.539	22322
869.669	22341
869.799	22299
869.929	22386
870.06	22352
870.19	22645
870.32	22485
870.45	22729
870.58	22729
870.71	22847
870.84	22782
870.97	22672
871.1	22816
871.23	22881
871.36	22877
871.489	22755
871.619	22934
871.749	22892
871.879	22885
872.008	23044
872.138	23044
872.267	22900
872.397	22809
872.526	22759
872.656	22828
872.785	22778
872.915	22911
873.044	23060
873.173	22889
873.303	22991
873.432	22968
873.561	23006
873.69	22949
873.819	22938
873.948	23064
874.077	22873
874.206	22862
874.335	22850
874.464	22946
874.593	23155
874.722	23060
874.851	23041
874.979	23083
875.108	23155
875.237	23124
875.365	23018
875.494	23128
875.623	23151
875.751	23010
875.88	23174
876.008	23326
876.136	23322
876.265	23551
876.393	23653
876.521	23547
876.65	23729
876.778	23547
876.906	23467
877.034	23482
877.162	23497
877.29	23429
877.418	23440
877.546	23436
877.674	23414
877.802	23406
877.93	23516
878.058	23543
878.185	23391
878.313	23368
878.441	23539
878.568	23395
878.696	23379
878.824	23455
878.951	23509
879.079	23600
879.206	23779
879.333	23608
879.461	23417
879.588	23528
879.715	23726
879.842	23714
879.97	23509
880.097	23299
880.224	23353
880.351	23402
880.478	23288
880.605	23299
880.732	23296
880.859	23463
880.986	23421
881.112	23364
881.239	23185
881.366	23117
881.493	22934
881.619	22809
881.746	22942
881.872	22892
881.999	22881
882.125	22778
882.252	22885
882.378	22801
882.505	22938
882.631	22698
882.757	22580
882.883	22630
883.01	22565
883.136	22535
883.262	22352
883.388	22371
883.514	22596
883.64	22580
883.766	22554
883.892	22234
884.018	22253
884.143	22447
884.269	22588
884.395	22367
884.52	21994
884.646	22261
884.772	22124
884.897	22128
885.023	22341
885.148	22230
885.274	22341
885.399	22230
885.524	22188
885.65	22310
885.775	22173
885.9	22044
886.025	22265
886.15	22200
886.275	22158
886.4	22169
886.525	22105
886.65	22101
886.775	22006
886.9	22188
887.025	22367
887.149	22120
887.274	22025
887.399	21934
887.523	21918
887.648	21846
887.773	21797
887.897	21926
888.021	21937
888.146	21857
888.27	21926
888.395	22040
888.519	21907
888.643	22074
888.767	21880
888.891	21781
889.015	21785
889.139	21793
889.263	21717
889.387	21781
889.511	21873
889.635	21660
889.759	21641
889.883	21728
890.006	21755
890.13	21785
890.254	21652
890.377	21679
890.501	21458
890.624	21454
890.748	21545
890.871	21348
890.995	21180
891.118	21180
891.241	21329
891.364	21325
891.488	21359
891.611	21283
891.734	21291
891.857	21344
891.98	21302
892.103	21386
892.226	21207
892.349	21226
892.471	20986
892.594	21203
892.717	21230
892.839	21176
892.962	21154
893.085	21298
893.207	21131
893.33	21093
893.452	21169
893.575	21218
893.697	21108
893.819	21321
893.941	21416
894.064	21279
894.186	21013
894.308	21047
894.43	21211
894.552	21313
894.674	21260
894.796	20963
894.918	21146
895.04	21138
895.161	21207
895.283	21093
895.405	21108
895.526	21081
895.648	21161
895.769	21150
895.891	21245
896.012	21135
896.134	21074
896.255	21165
896.376	21066
896.498	21032
896.619	21081
896.74	21195
896.861	21230
896.982	21389
897.103	21625
897.224	21439
897.345	21302
897.466	21401
897.587	21321
897.708	21458
897.828	21344
897.949	21264
898.07	21226
898.19	21249
898.311	21382
898.431	21173
898.552	21214
898.672	21439
898.792	21447
898.913	21317
899.033	21138
899.153	21093
899.273	20998
899.393	21074
899.513	21085
899.633	20982
899.753	20990
899.873	20990
899.993	21131
900.113	21001
900.232	21096
900.352	20998
900.472	20868
900.591	20849
900.711	20826
900.83	20788
900.95	20937
901.069	20933
901.189	20781
901.308	20457
901.427	20324
901.546	20362
901.665	20317
901.784	20385
901.904	20286
902.023	20096
902.141	20084
902.26	19879
902.379	19913
902.498	19841
902.617	19833
902.735	19921
902.854	19826
902.973	19731
903.091	19632
903.21	19529
903.328	19635
903.446	19464
903.565	19358
903.683	19506
903.801	19327
903.919	19209
904.038	19358
904.156	19190
904.274	19080
904.392	18943
904.51	19053
904.627	19114
904.745	19129
904.863	19137
904.981	18814
905.098	18810
905.216	18814
905.334	18882
905.451	18700
905.569	18776
905.686	18726
905.803	18738
905.921	18509
906.038	18677
906.155	18650
906.272	18407
906.389	18502
906.506	18197
906.623	18410
906.74	18342
906.857	18190
906.974	18163
907.091	18422
907.208	18429
907.324	18361
907.441	18197
907.557	17950
907.674	18057
907.79	17840
907.907	18076
908.023	17988
908.139	18034
908.256	18026
908.372	17897
908.488	17904
908.604	17771
908.72	17558
908.836	17786
908.952	17710
909.068	17779
909.184	17821
909.3	17687
909.415	17752
909.531	17615
909.647	17524
909.762	17463
909.878	17341
909.993	17364
910.108	17364
910.224	17391
910.339	17410
910.454	17254
910.57	17258
910.685	17170
910.8	17452
910.915	17387
911.03	17159
911.145	17052
911.259	17022
911.374	17071
911.489	16930
911.604	16908
911.718	16668
911.833	16786
911.947	16668
912.062	16565
912.176	16702
912.291	16729
912.405	16736
912.519	16858
912.633	16816
912.748	16706
912.862	16763
912.976	16584
913.09	16428
913.204	16500
913.318	16519
913.431	16523
913.545	16626
913.659	16649
913.772	16428
913.886	16363
914	16337
914.113	16375
914.226	16489
914.34	16402
914.453	16147
914.566	16413
914.68	16242
914.793	16166
914.906	15873
915.019	15857
915.132	15808
915.245	15972
915.358	15945
915.47	15827
915.583	15888
915.696	15922
915.809	16006
915.921	16036
916.034	15884
916.146	15819
916.259	15732
916.371	15880
916.483	15869
916.595	15747
916.708	15701
916.82	15709
916.932	15720
917.044	15705
917.156	15705
917.268	15545
917.38	15519
917.491	15515
917.603	15652
917.715	15644
917.826	15595
917.938	15431
918.049	15401
918.161	15504
918.272	15622
918.384	15564
918.495	15485
918.606	15275
918.717	15306
918.828	15195
918.939	15378
919.05	15161
919.161	15230
919.272	15032
919.383	15119
919.494	15214
919.604	15405
919.715	15260
919.826	15176
919.936	15222
920.047	15287
920.157	15245
920.267	15332
920.378	15230
920.488	15233
920.598	15412
920.708	15515
920.818	15344
920.928	15389
921.038	15542
921.148	15454
921.258	15146
921.368	14960
921.477	14918
921.587	15039
921.697	14845
921.806	14906
921.916	14819
922.025	14693
922.134	14518
922.244	14503
922.353	14667
922.462	14526
922.571	14381
922.68	14191
922.789	14195
922.898	14286
923.007	14218
923.116	14256
923.224	14195
923.333	14187
923.442	14153
923.55	13932
923.659	14016
923.767	14069
923.876	14058
923.984	13986
924.092	13898
924.201	13963
924.309	13947
924.417	13909
924.525	13959
924.633	13845
924.741	14804
924.849	13677
924.956	13811
925.064	13636
925.172	13518
925.279	13529
925.387	13655
925.494	13628
925.602	13666
925.709	13582
925.816	13438
925.924	13537
926.031	13605
926.138	13537
926.245	13502
926.352	13415
926.459	13533
926.566	13575
926.673	13441
926.779	13308
926.886	13312
926.993	13152
927.099	13137
927.206	13031
927.312	13084
927.419	13232
927.525	13129
927.631	13133
927.737	13015
927.843	13050
927.95	12859
928.056	12943
928.162	12939
928.267	12901
928.373	13441
928.479	13027
928.585	12768
928.69	12821
928.796	12943
928.901	12840
929.007	12650
929.112	12806
929.218	12840
929.323	12604
929.428	12700
929.533	12722
929.638	12544
929.743	12589
929.848	12597
929.953	12589
930.058	12475
930.163	12277
930.267	12369
930.372	12525
930.477	12296
930.581	12604
930.685	12388
930.79	12175
930.894	12182
930.998	12129
931.103	12304
931.207	11954
931.311	11798
931.415	11889
931.519	11490
931.623	11562
