Data from test_V78500241_1533.txt Node
Date: Fri Mar 25 15:52:25 CST 2022
User: usil
Spectrometer: V785-0024
Trigger mode: 0
Integration Time (sec): 4.000000E-1
Scans to average: 1
Nonlinearity correction enabled: false
Boxcar width: 0
Storing dark spectrum: false
XAxis mode: Wavelengths
Number of Pixels in Spectrum: 1024
>>>>>Begin Spectral Data<<<<<
801.071	28413
801.214	28196
801.356	28063
801.499	28200
801.641	28112
801.783	28010
801.926	27987
802.068	27930
802.211	27774
802.353	27778
802.496	27682
802.638	27633
802.78	27637
802.923	27625
803.065	27485
803.208	27519
803.35	27812
803.492	27663
803.635	27937
803.777	27732
803.919	27892
804.061	28109
804.204	27937
804.346	27869
804.488	27690
804.63	27926
804.773	27842
804.915	27892
805.057	28044
805.199	27941
805.341	27934
805.483	28261
805.626	28017
805.768	27846
805.91	28025
806.052	28116
806.194	27941
806.336	28173
806.478	28093
806.62	28086
806.762	28341
806.904	28436
807.046	28573
807.188	28561
807.33	28516
807.472	28493
807.614	28261
807.756	28516
807.898	28314
808.04	28310
808.182	28432
808.324	28421
808.465	28401
808.607	28550
808.749	28759
808.891	28660
809.033	28862
809.174	28755
809.316	28786
809.458	28850
809.6	28634
809.741	28729
809.883	28736
810.025	29105
810.166	29052
810.308	28946
810.45	28991
810.591	28881
810.733	28953
810.875	28679
811.016	28596
811.158	28698
811.299	28805
811.441	28869
811.582	28888
811.724	28653
811.865	28744
812.007	28687
812.148	28694
812.29	28881
812.431	28824
812.573	29033
812.714	29136
812.855	29193
812.997	29459
813.138	29349
813.279	29356
813.421	29261
813.562	29132
813.703	29086
813.845	28930
813.986	28672
814.127	28390
814.268	28451
814.41	28325
814.551	28527
814.692	28401
814.833	28367
814.974	28382
815.115	28401
815.256	28257
815.397	28246
815.539	28261
815.68	28147
815.821	28063
815.962	28181
816.103	28261
816.244	28006
816.385	28040
816.526	27865
816.666	27808
816.807	27618
816.948	27865
817.089	27979
817.23	27850
817.371	27656
817.512	27682
817.653	27629
817.793	27854
817.934	27625
818.075	27762
818.216	27812
818.356	27633
818.497	27378
818.638	27317
818.778	27542
818.919	27427
819.06	27603
819.2	27526
819.341	27698
819.481	27717
819.622	27819
819.762	28010
819.903	28040
820.043	27880
820.184	27876
820.324	27755
820.465	27876
820.605	27865
820.746	27800
820.886	27770
821.026	27930
821.167	27911
821.307	27914
821.447	27736
821.588	27633
821.728	27610
821.868	27454
822.008	27268
822.149	27245
822.289	27241
822.429	26906
822.569	26952
822.709	26864
822.849	26796
822.99	26693
823.13	26689
823.27	26716
823.41	26423
823.55	26415
823.69	26476
823.83	26518
823.97	26434
824.11	26343
824.25	26385
824.389	26415
824.529	26503
824.669	26328
824.809	26434
824.949	26434
825.089	26476
825.228	26511
825.368	26320
825.508	26286
825.648	26172
825.787	26256
825.927	26267
826.067	26183
826.206	26210
826.346	26161
826.485	26256
826.625	26153
826.765	26275
826.904	26286
827.044	25932
827.183	26081
827.323	25890
827.462	26005
827.601	25818
827.741	25986
827.88	25944
828.02	25822
828.159	25852
828.298	25986
828.437	26065
828.577	25811
828.716	25909
828.855	25845
828.994	25597
829.134	25681
829.273	25742
829.412	25590
829.551	25510
829.69	25666
829.829	25609
829.968	25601
830.107	25734
830.246	25704
830.385	25601
830.524	25620
830.663	25411
830.802	25362
830.941	25346
831.08	25076
831.219	25358
831.357	25213
831.496	25613
831.635	25278
831.774	25114
831.913	25118
832.051	25080
832.19	24951
832.329	25095
832.467	25004
832.606	24787
832.744	24932
832.883	24878
833.022	24821
833.16	24913
833.299	24970
833.437	24962
833.576	24958
833.714	24935
833.852	25008
833.991	24962
834.129	25000
834.267	24977
834.406	24859
834.544	24966
834.682	24924
834.821	25042
834.959	25110
835.097	24909
835.235	25012
835.373	24924
835.511	24905
835.65	24734
835.788	24916
835.926	24703
836.064	24700
836.202	24711
836.34	24821
836.478	24833
836.615	24757
836.753	24871
836.891	24989
837.029	24821
837.167	24757
837.305	24700
837.443	24734
837.58	24612
837.718	24673
837.856	24654
837.993	24589
838.131	24688
838.269	24616
838.406	24525
838.544	24460
838.681	24167
838.819	24277
838.956	24144
839.094	23977
839.231	24076
839.369	24201
839.506	24418
839.643	24330
839.781	24064
839.918	24060
840.055	24167
840.193	23969
840.33	23977
840.467	24102
840.604	24102
840.742	24262
840.879	23832
841.016	24015
841.153	23935
841.29	24076
841.427	23954
841.564	24064
841.701	24011
841.838	23912
841.975	23923
842.112	23984
842.249	23870
842.385	23767
842.522	23958
842.659	23908
842.796	23798
842.933	23904
843.069	23741
843.206	23611
843.343	23790
843.479	23687
843.616	23756
843.752	23425
843.889	23604
844.025	23630
844.162	23459
844.298	23672
844.435	23524
844.571	23455
844.708	23562
844.844	23524
844.98	23672
845.117	23509
845.253	23429
845.389	23265
845.525	23497
845.661	23368
845.798	23208
845.934	23341
846.07	23216
846.206	23258
846.342	23395
846.478	23258
846.614	23075
846.75	23029
846.886	23075
847.022	23048
847.158	22949
847.294	22991
847.429	23033
847.565	23025
847.701	23155
847.837	22729
847.972	22668
848.108	22820
848.244	22759
848.379	22668
848.515	22538
848.65	22447
848.786	22500
848.921	22538
849.057	22694
849.192	22653
849.328	22679
849.463	22561
849.598	22550
849.734	22371
849.869	22424
850.004	22356
850.14	22352
850.275	22371
850.41	22246
850.545	22287
850.68	22318
850.815	22280
850.95	22356
851.085	22489
851.22	22447
851.355	22382
851.49	22310
851.625	22333
851.76	22265
851.895	22257
852.03	22242
852.165	22314
852.299	22246
852.434	22421
852.569	22325
852.703	22226
852.838	22325
852.973	22443
853.107	22542
853.242	22261
853.376	22131
853.511	22105
853.645	22097
853.78	22268
853.914	22242
854.048	22139
854.183	22090
854.317	22333
854.451	22402
854.585	22097
854.72	22147
854.854	22200
854.988	22040
855.122	22086
855.256	22010
855.39	22128
855.524	22314
855.658	22116
855.792	22196
855.926	22333
856.06	22211
856.194	22306
856.327	22162
856.461	22048
856.595	22078
856.729	22139
856.862	22215
856.996	22112
857.13	22143
857.263	22287
857.397	22249
857.53	22109
857.664	22131
857.797	22257
857.931	22276
858.064	22272
858.197	22249
858.331	22128
858.464	22185
858.597	22063
858.731	22211
858.864	22086
858.997	22143
859.13	22124
859.263	22166
859.396	22363
859.529	22181
859.662	22139
859.795	21960
859.928	22131
860.061	22337
860.194	22337
860.327	22215
860.46	22215
860.592	22344
860.725	22272
860.858	22322
860.99	22188
861.123	22082
861.256	22223
861.388	22230
861.521	22653
861.653	22025
861.786	21945
861.918	22036
862.05	22025
862.183	22051
862.315	22078
862.447	22230
862.58	22010
862.712	21956
862.844	21892
862.976	21861
863.108	21975
863.24	22337
863.372	21888
863.504	21895
863.636	21876
863.768	21842
863.9	21911
864.032	21755
864.164	21842
864.296	21766
864.428	22029
864.559	21941
864.691	21915
864.823	21861
864.954	21850
865.086	21918
865.217	21823
865.349	21606
865.48	21846
865.612	21751
865.743	21835
865.875	21838
866.006	21778
866.137	21835
866.269	21816
866.4	21675
866.531	21781
866.662	21663
866.793	21709
866.924	21686
867.055	21781
867.186	21698
867.317	21648
867.448	21576
867.579	21580
867.71	21637
867.841	21549
867.972	21648
868.103	21690
868.233	21701
868.364	21747
868.495	21633
868.625	21823
868.756	21964
868.886	21808
869.017	21907
869.147	21941
869.278	22059
869.408	21949
869.539	22029
869.669	21968
869.799	22032
869.929	22067
870.06	22147
870.19	22204
870.32	22162
870.45	22169
870.58	22215
870.71	22451
870.84	22402
870.97	22253
871.1	22322
871.23	22382
871.36	22459
871.489	22466
871.619	22466
871.749	22436
871.879	22535
872.008	22493
872.138	22565
872.267	22451
872.397	22436
872.526	22352
872.656	22348
872.785	22432
872.915	22603
873.044	22691
873.173	22519
873.303	22641
873.432	22512
873.561	22687
873.69	22531
873.819	22462
873.948	22523
874.077	22596
874.206	22462
874.335	22493
874.464	22561
874.593	22782
874.722	22702
874.851	22755
874.979	22790
875.108	22828
875.237	22645
875.365	22744
875.494	22809
875.623	22790
875.751	22721
875.88	22774
876.008	22869
876.136	22828
876.265	23121
876.393	23121
876.521	23292
876.65	23170
876.778	23147
876.906	23090
877.034	23048
877.162	23041
877.29	23006
877.418	23147
877.546	23277
877.674	23041
877.802	23064
877.93	22972
878.058	23037
878.185	23094
878.313	23003
878.441	23064
878.568	22949
878.696	23048
878.824	23140
878.951	23208
879.079	23239
879.206	23421
879.333	23242
879.461	22995
879.588	23235
879.715	23147
879.842	23463
879.97	23159
880.097	22885
880.224	22892
880.351	23006
880.478	22904
880.605	22869
880.732	22919
880.859	23387
880.986	22919
881.112	22999
881.239	22664
881.366	22634
881.493	22573
881.619	22462
881.746	22455
881.872	22542
881.999	22398
882.125	22474
882.252	22554
882.378	22459
882.505	22599
882.631	22284
882.757	22185
882.883	22192
883.01	22280
883.136	22036
883.262	22143
883.388	22006
883.514	22230
883.64	22112
883.766	22101
883.892	21941
884.018	22025
884.143	22200
884.269	22242
884.395	21960
884.52	21918
884.646	21724
884.772	21625
884.897	21618
885.023	21838
885.148	21888
885.274	21956
885.399	21930
885.524	21846
885.65	21838
885.775	21739
885.9	21709
886.025	21861
886.15	21857
886.275	21690
886.4	21633
886.525	21854
886.65	21637
886.775	21789
886.9	21835
887.025	21922
887.149	21713
887.274	21629
887.399	21462
887.523	21625
887.648	21572
887.773	21443
887.897	21641
888.021	21694
888.146	21553
888.27	21496
888.395	21633
888.519	21641
888.643	21530
888.767	21618
888.891	21420
889.015	21439
889.139	21530
889.263	21332
889.387	21351
889.511	21538
889.635	21500
889.759	21386
889.883	21382
890.006	21416
890.13	21447
890.254	21230
890.377	21249
890.501	21100
890.624	21180
890.748	21157
890.871	21005
890.995	20834
891.118	20906
891.241	21020
891.364	20956
891.488	21074
891.611	20925
891.734	20941
891.857	20960
891.98	20807
892.103	21066
892.226	20830
892.349	20796
892.471	20731
892.594	20765
892.717	20941
892.839	20899
892.962	20792
893.085	20830
893.207	20758
893.33	20651
893.452	20686
893.575	20785
893.697	20689
893.819	21036
893.941	20880
894.064	20979
894.186	20785
894.308	20640
894.43	20826
894.552	20956
894.674	20899
894.796	20667
894.918	20716
895.04	20590
895.161	20872
895.283	20834
895.405	20689
895.526	20712
895.648	20686
895.769	20838
895.891	20785
896.012	20826
896.134	20849
896.255	20838
896.376	20720
896.498	20853
896.619	20830
896.74	20883
896.861	20727
896.982	21230
897.103	21203
897.224	21017
897.345	20986
897.466	20887
897.587	21047
897.708	21135
897.828	21001
897.949	20853
898.07	20830
898.19	20804
898.311	20971
898.431	20998
898.552	20937
898.672	21192
898.792	20971
898.913	20990
899.033	20811
899.153	20724
899.273	20746
899.393	20670
899.513	20727
899.633	20670
899.753	20640
899.873	20609
899.993	20712
900.113	20701
900.232	20651
900.352	20503
900.472	20526
900.591	20358
900.711	20427
900.83	20408
900.95	20575
901.069	20621
901.189	20351
901.308	20191
901.427	20149
901.546	20168
901.665	20035
901.784	20142
901.904	19940
902.023	19841
902.141	19715
902.26	19616
902.379	19708
902.498	19563
902.617	19381
902.735	19533
902.854	19632
902.973	19499
903.091	19316
903.21	19232
903.328	19259
903.446	19095
903.565	19171
903.683	19091
903.801	18943
903.919	18977
904.038	18985
904.156	18802
904.274	18916
904.392	18810
904.51	18760
904.627	18825
904.745	18859
904.863	18848
904.981	18528
905.098	18528
905.216	18422
905.334	18422
905.451	18513
905.569	18502
905.686	18437
905.803	18475
905.921	18174
906.038	18414
906.155	18323
906.272	18178
906.389	18247
906.506	18087
906.623	17923
906.74	18041
906.857	17809
906.974	17878
907.091	18022
907.208	18148
907.324	17958
907.441	17809
907.557	17676
907.674	17710
907.79	17668
907.907	17661
908.023	17703
908.139	17775
908.256	17741
908.372	17634
908.488	17627
908.604	17402
908.72	17337
908.836	17425
908.952	17395
909.068	17349
909.184	17505
909.3	17463
909.415	17486
909.531	17471
909.647	17235
909.762	17185
909.878	17090
909.993	17102
910.108	17045
910.224	17018
910.339	17006
910.454	16953
910.57	17037
910.685	16805
910.8	17113
910.915	17098
911.03	16976
911.145	16767
911.259	16656
911.374	16672
911.489	16596
911.604	16573
911.718	16413
911.833	16443
911.947	16333
912.062	16238
912.176	16306
912.291	16436
912.405	16443
912.519	16656
912.633	16630
912.748	16516
912.862	16394
912.976	16249
913.09	16207
913.204	16257
913.318	16356
913.431	16295
913.545	16367
913.659	16303
913.772	16188
913.886	16048
914	16078
914.113	16162
914.226	16169
914.34	16128
914.453	15937
914.566	16044
914.68	15994
914.793	15842
914.906	15713
915.019	15679
915.132	15591
915.245	15641
915.358	15816
915.47	15663
915.583	15663
915.696	15580
915.809	15800
915.921	15759
916.034	15549
916.146	15610
916.259	15473
916.371	15671
916.483	15629
916.595	15504
916.708	15351
916.82	15515
916.932	15378
917.044	15492
917.156	15317
917.268	15226
917.38	15332
917.491	15329
917.603	15275
917.715	15260
917.826	15359
917.938	15188
918.049	15051
918.161	15161
918.272	15245
918.384	15344
918.495	15211
918.606	15089
918.717	14933
918.828	15032
918.939	15009
919.05	14868
919.161	14876
919.272	14838
919.383	14918
919.494	15074
919.604	15119
919.715	14994
919.826	14880
919.936	14891
920.047	14960
920.157	14994
920.267	15184
920.378	14941
920.488	14883
920.598	15192
920.708	15218
920.818	15116
920.928	15058
921.038	15249
921.148	15169
921.258	14925
921.368	14804
921.477	14693
921.587	14644
921.697	14495
921.806	14659
921.916	14594
922.025	14442
922.134	14366
922.244	14259
922.353	14259
922.462	14225
922.571	14153
922.68	13951
922.789	13944
922.898	13978
923.007	13860
923.116	14081
923.224	13982
923.333	13826
923.442	13837
923.55	13757
923.659	13875
923.767	13837
923.876	13685
923.984	13860
924.092	13674
924.201	13791
924.309	13704
924.417	13715
924.525	13681
924.633	13594
924.741	14526
924.849	13464
924.956	13655
925.064	13411
925.172	13285
925.279	13373
925.387	13403
925.494	13392
925.602	13567
925.709	13445
925.816	13304
925.924	13266
926.031	13487
926.138	13289
926.245	13354
926.352	13179
926.459	13274
926.566	13430
926.673	13225
926.779	13145
926.886	13080
926.993	13050
927.099	12916
927.206	12901
927.312	12894
927.419	12928
927.525	12916
927.631	12932
927.737	12696
927.843	12806
927.95	12669
928.056	12696
928.162	12692
928.267	12741
928.373	13438
928.479	12764
928.585	12589
928.69	12741
928.796	12757
928.901	12627
929.007	12380
929.112	12589
929.218	12479
929.323	12410
929.428	12399
929.533	12585
929.638	12380
929.743	12433
929.848	12502
929.953	12372
930.058	12361
930.163	12133
930.267	12148
930.372	12292
930.477	12155
930.581	12334
930.685	12144
930.79	12007
930.894	11977
930.998	12019
931.103	12041
931.207	11798
931.311	11703
931.415	11615
931.519	11360
931.623	11459
