Data from test_V78500241_254.txt Node
Date: Fri Mar 25 15:43:33 CST 2022
User: usil
Spectrometer: V785-0024
Trigger mode: 0
Integration Time (sec): 4.000000E-1
Scans to average: 1
Nonlinearity correction enabled: false
Boxcar width: 0
Storing dark spectrum: false
XAxis mode: Wavelengths
Number of Pixels in Spectrum: 1024
>>>>>Begin Spectral Data<<<<<
801.071	29931
801.214	29878
801.356	29687
801.499	29695
801.641	29589
801.783	29535
801.926	29687
802.068	29490
802.211	29448
802.353	29341
802.496	29136
802.638	29178
802.78	29212
802.923	29003
803.065	29056
803.208	29204
803.35	29174
803.492	29372
803.635	29406
803.777	29242
803.919	29360
804.061	29695
804.204	29543
804.346	29174
804.488	29303
804.63	29398
804.773	29155
804.915	29239
805.057	29433
805.199	29501
805.341	29440
805.483	29623
805.626	29539
805.768	29292
805.91	29353
806.052	29425
806.194	29391
806.336	29729
806.478	29326
806.62	29425
806.762	29509
806.904	29832
807.046	29969
807.188	30018
807.33	29889
807.472	29821
807.614	29874
807.756	29851
807.898	29634
808.04	29623
808.182	29554
808.324	29707
808.465	29729
808.607	29870
808.749	30098
808.891	30342
809.033	30235
809.174	30174
809.316	29977
809.458	29942
809.6	29874
809.741	30034
809.883	30125
810.025	30254
810.166	30270
810.308	30380
810.45	30372
810.591	30342
810.733	30140
810.875	30060
811.016	29923
811.158	30057
811.299	30300
811.441	30270
811.582	30311
811.724	30133
811.865	30038
812.007	29908
812.148	30072
812.29	29992
812.431	30216
812.573	30426
812.714	30570
812.855	30642
812.997	30798
813.138	30658
813.279	30806
813.421	30544
813.562	30608
813.703	30319
813.845	30292
813.986	29973
814.127	29657
814.268	29939
814.41	29714
814.551	29672
814.692	29710
814.833	29646
814.974	29573
815.115	29691
815.256	29551
815.397	29551
815.539	29596
815.68	29482
815.821	29512
815.962	29490
816.103	29398
816.244	29269
816.385	29151
816.526	29227
816.666	28869
816.807	28854
816.948	29086
817.089	29052
817.23	28991
817.371	28991
817.512	29041
817.653	28987
817.793	28942
817.934	29128
818.075	28927
818.216	28995
818.356	28729
818.497	28828
818.638	28603
818.778	28645
818.919	28660
819.06	28824
819.2	28801
819.341	28847
819.481	28793
819.622	29071
819.762	29140
819.903	29216
820.043	29044
820.184	28869
820.324	28816
820.465	29071
820.605	28824
820.746	28980
820.886	28904
821.026	29117
821.167	29075
821.307	28968
821.447	28797
821.588	28854
821.728	28455
821.868	28489
822.008	28295
822.149	28322
822.289	28382
822.429	27987
822.569	27972
822.709	27914
822.849	27759
822.99	27842
823.13	27690
823.27	27682
823.41	27675
823.55	27485
823.69	27705
823.83	27576
823.97	27603
824.11	27370
824.25	27351
824.389	27363
824.529	27473
824.669	27435
824.809	27447
824.949	27507
825.089	27378
825.228	27374
825.368	27188
825.508	27386
825.648	27157
825.787	27123
825.927	27329
826.067	27192
826.206	27298
826.346	27302
826.485	27317
826.625	27207
826.765	27386
826.904	27416
827.044	26861
827.183	27013
827.323	27032
827.462	27017
827.601	26929
827.741	26933
827.88	26914
828.02	26807
828.159	26853
828.298	26914
828.437	26933
828.577	26857
828.716	27039
828.855	26781
828.994	26724
829.134	26701
829.273	26602
829.412	26511
829.551	26533
829.69	26678
829.829	26609
829.968	26617
830.107	26556
830.246	26336
830.385	26476
830.524	26469
830.663	26267
830.802	26252
830.941	26191
831.08	26035
831.219	26145
831.357	26206
831.496	26267
831.635	26191
831.774	25993
831.913	26103
832.051	25959
832.19	25993
832.329	25940
832.467	25723
832.606	25723
832.744	25708
832.883	25845
833.022	25746
833.16	25765
833.299	25856
833.437	25765
833.576	25734
833.714	25799
833.852	25887
833.991	25818
834.129	25860
834.267	25791
834.406	25807
834.544	25822
834.682	25769
834.821	25841
834.959	25928
835.097	25799
835.235	25799
835.373	25567
835.511	25791
835.65	25613
835.788	25556
835.926	25457
836.064	25453
836.202	25377
836.34	25639
836.478	25750
836.615	25525
836.753	25712
836.891	25685
837.029	25696
837.167	25529
837.305	25479
837.443	25476
837.58	25434
837.718	25464
837.856	25384
837.993	25415
838.131	25445
838.269	25293
838.406	25289
838.544	25213
838.681	25122
838.819	25122
838.956	24814
839.094	24859
839.231	24863
839.369	25019
839.506	25266
839.643	25050
839.781	24825
839.918	24806
840.055	24768
840.193	24814
840.33	24749
840.467	24795
840.604	24863
840.742	24954
840.879	24620
841.016	24715
841.153	24559
841.29	24795
841.427	24692
841.564	24768
841.701	24703
841.838	24623
841.975	24566
842.112	24734
842.249	24528
842.385	24357
842.522	24688
842.659	24525
842.796	24388
842.933	24566
843.069	24304
843.206	24395
843.343	24509
843.479	24388
843.616	24372
843.752	24114
843.889	24232
844.025	24346
844.162	24102
844.298	24292
844.435	24140
844.571	23988
844.708	24254
844.844	24300
844.98	24289
845.117	24194
845.253	24136
845.389	23927
845.525	24045
845.661	24072
845.798	23843
845.934	23703
846.07	23859
846.206	23878
846.342	23946
846.478	23817
846.614	23828
846.75	23600
846.886	23596
847.022	23676
847.158	23680
847.294	23528
847.429	23539
847.565	23471
847.701	23843
847.837	23303
847.972	23223
848.108	23250
848.244	23410
848.379	23166
848.515	23189
848.65	23071
848.786	23124
848.921	23296
849.057	23292
849.192	23132
849.328	23322
849.463	23006
849.598	23113
849.734	23079
849.869	23014
850.004	22915
850.14	23006
850.275	22919
850.41	22698
850.545	22820
850.68	22831
850.815	22965
850.95	22911
851.085	23037
851.22	23003
851.355	22908
851.49	22835
851.625	22790
851.76	22889
851.895	22862
852.03	22759
852.165	22980
852.299	22869
852.434	22972
852.569	22892
852.703	22968
852.838	22991
852.973	22889
853.107	22900
853.242	22744
853.376	22801
853.511	22508
853.645	22569
853.78	22862
853.914	22713
854.048	22649
854.183	22557
854.317	22812
854.451	22900
854.585	22626
854.72	22752
854.854	22752
854.988	22599
855.122	22634
855.256	22637
855.39	22637
855.524	22691
855.658	22653
855.792	22599
855.926	22744
856.06	22771
856.194	22561
856.327	22679
856.461	22679
856.595	22664
856.729	22546
856.862	22748
856.996	22679
857.13	22778
857.263	22611
857.397	22786
857.53	22637
857.664	22653
857.797	22672
857.931	22748
858.064	22752
858.197	22744
858.331	22660
858.464	22626
858.597	22554
858.731	22527
858.864	22500
858.997	22531
859.13	22649
859.263	22466
859.396	22706
859.529	22546
859.662	22497
859.795	22474
859.928	22687
860.061	22721
860.194	22755
860.327	22611
860.46	22603
860.592	22736
860.725	22641
860.858	22675
860.99	22596
861.123	22656
861.256	22519
861.388	22603
861.521	23269
861.653	22417
861.786	22382
861.918	22341
862.05	22622
862.183	22622
862.315	22668
862.447	22588
862.58	22550
862.712	22322
862.844	22314
862.976	22276
863.108	22409
863.24	22835
863.372	22284
863.504	22382
863.636	22322
863.768	22310
863.9	22284
864.032	22226
864.164	22230
864.296	22394
864.428	22390
864.559	22390
864.691	22489
864.823	22268
864.954	22223
865.086	22249
865.217	22204
865.349	22162
865.48	22215
865.612	22124
865.743	22337
865.875	22173
866.006	22055
866.137	22158
866.269	22188
866.4	22185
866.531	22135
866.662	22215
866.793	22090
866.924	22051
867.055	22086
867.186	22135
867.317	22093
867.448	21918
867.579	22032
867.71	21945
867.841	22078
867.972	22128
868.103	22029
868.233	22040
868.364	21964
868.495	22128
868.625	22226
868.756	22379
868.886	22295
869.017	22219
869.147	22367
869.278	22398
869.408	22287
869.539	22154
869.669	22284
869.799	22318
869.929	22405
870.06	22398
870.19	22672
870.32	22637
870.45	22710
870.58	22672
870.71	22774
870.84	22771
870.97	22706
871.1	22577
871.23	22820
871.36	22790
871.489	22790
871.619	22892
871.749	22774
871.879	22885
872.008	23022
872.138	22908
872.267	22854
872.397	22748
872.526	22809
872.656	22649
872.785	22641
872.915	22900
873.044	22919
873.173	22942
873.303	23044
873.432	22946
873.561	23121
873.69	22972
873.819	22892
873.948	23037
874.077	23010
874.206	22820
874.335	23064
874.464	23033
874.593	23094
874.722	22999
874.851	23178
874.979	23166
875.108	23128
875.237	23090
875.365	22984
875.494	23159
875.623	23083
875.751	23060
875.88	23159
876.008	23204
876.136	23303
876.265	23543
876.393	23657
876.521	23543
876.65	23756
876.778	23551
876.906	23391
877.034	23334
877.162	23539
877.29	23505
877.418	23486
877.546	23490
877.674	23558
877.802	23471
877.93	23459
878.058	23379
878.185	23356
878.313	23379
878.441	23463
878.568	23277
878.696	23452
878.824	23611
878.951	23516
879.079	23657
879.206	23836
879.333	23577
879.461	23520
879.588	23585
879.715	23573
879.842	23733
879.97	23558
880.097	23433
880.224	23197
880.351	23330
880.478	23307
880.605	23220
880.732	23311
880.859	23509
880.986	23299
881.112	23322
881.239	23124
881.366	23006
881.493	22900
881.619	22873
881.746	22987
881.872	22847
881.999	22816
882.125	22740
882.252	22866
882.378	22889
882.505	22930
882.631	22588
882.757	22615
882.883	22698
883.01	22546
883.136	22367
883.262	22360
883.388	22474
883.514	22611
883.64	22599
883.766	22470
883.892	22398
884.018	22421
884.143	22481
884.269	22554
884.395	22287
884.52	22128
884.646	22177
884.772	22177
884.897	22105
885.023	22253
885.148	22295
885.274	22249
885.399	22284
885.524	22124
885.65	22158
885.775	22299
885.9	22200
886.025	22185
886.15	22173
886.275	22112
886.4	22036
886.525	22169
886.65	22078
886.775	22029
886.9	22303
887.025	22291
887.149	22074
887.274	21926
887.399	21854
887.523	21915
887.648	21770
887.773	21800
887.897	22025
888.021	21884
888.146	21804
888.27	22029
888.395	22040
888.519	21915
888.643	21968
888.767	21846
888.891	21823
889.015	21698
889.139	21720
889.263	21751
889.387	21835
889.511	21930
889.635	21797
889.759	21549
889.883	21603
890.006	21679
890.13	21682
890.254	21583
890.377	21679
890.501	21447
890.624	21416
890.748	21336
890.871	21275
890.995	21176
891.118	21264
891.241	21264
891.364	21180
891.488	21420
891.611	21199
891.734	21268
891.857	21325
891.98	21195
892.103	21336
892.226	21264
892.349	21192
892.471	21119
892.594	21112
892.717	21199
892.839	21169
892.962	21211
893.085	21203
893.207	21203
893.33	21096
893.452	21039
893.575	21096
893.697	21047
893.819	21233
893.941	21374
894.064	21241
894.186	21089
894.308	21058
894.43	21249
894.552	21241
894.674	21112
894.796	21058
894.918	21020
895.04	21036
895.161	21135
895.283	21256
895.405	21043
895.526	21089
895.648	21077
895.769	21108
895.891	21039
896.012	21233
896.134	21108
896.255	21123
896.376	21051
896.498	21131
896.619	21165
896.74	21154
896.861	21116
896.982	21534
897.103	21564
897.224	21420
897.345	21504
897.466	21146
897.587	21272
897.708	21534
897.828	21264
897.949	21199
898.07	21127
898.19	21207
898.311	21401
898.431	21214
898.552	21272
898.672	21397
898.792	21306
898.913	21291
899.033	21173
899.153	21081
899.273	20925
899.393	20986
899.513	20994
899.633	20990
899.753	20960
899.873	20880
899.993	20944
900.113	20929
900.232	20906
900.352	20998
900.472	20815
900.591	20758
900.711	20883
900.83	20735
900.95	20952
901.069	20872
901.189	20727
901.308	20446
901.427	20370
901.546	20339
901.665	20317
901.784	20355
901.904	20088
902.023	20122
902.141	19967
902.26	19830
902.379	19898
902.498	19791
902.617	19696
902.735	19753
902.854	19677
902.973	19658
903.091	19426
903.21	19430
903.328	19468
903.446	19415
903.565	19213
903.683	19209
903.801	19141
903.919	19107
904.038	19160
904.156	19000
904.274	19126
904.392	19076
904.51	18970
904.627	19042
904.745	19114
904.863	19103
904.981	18787
905.098	18783
905.216	18585
905.334	18684
905.451	18707
905.569	18654
905.686	18787
905.803	18639
905.921	18467
906.038	18589
906.155	18513
906.272	18456
906.389	18338
906.506	18224
906.623	18140
906.74	18251
906.857	18209
906.974	18186
907.091	18251
907.208	18228
907.324	18220
907.441	18064
907.557	17973
907.674	17840
907.79	17874
907.907	17824
908.023	17817
908.139	17855
908.256	17863
908.372	17786
908.488	17733
908.604	17623
908.72	17543
908.836	17589
908.952	17581
909.068	17589
909.184	17653
909.3	17585
909.415	17619
909.531	17528
909.647	17372
909.762	17227
909.878	17220
909.993	17296
910.108	17269
910.224	17223
910.339	17197
910.454	17098
910.57	17090
910.685	17022
910.8	17200
910.915	17250
911.03	17018
911.145	16809
911.259	16771
911.374	16820
911.489	16809
911.604	16687
911.718	16527
911.833	16691
911.947	16561
912.062	16417
912.176	16615
912.291	16584
912.405	16470
912.519	16740
912.633	16668
912.748	16580
912.862	16451
912.976	16306
913.09	16287
913.204	16234
913.318	16409
913.431	16363
913.545	16394
913.659	16440
913.772	16249
913.886	16276
914	16109
914.113	16177
914.226	16291
914.34	16200
914.453	16071
914.566	16185
914.68	15998
914.793	16006
914.906	15778
915.019	15812
915.132	15736
915.245	15808
915.358	15823
915.47	15774
915.583	15686
915.696	15797
915.809	15732
915.921	15880
916.034	15762
916.146	15595
916.259	15690
916.371	15709
916.483	15675
916.595	15667
916.708	15492
916.82	15511
916.932	15469
917.044	15500
917.156	15355
917.268	15367
917.38	15374
917.491	15348
917.603	15424
917.715	15477
917.826	15363
917.938	15291
918.049	15230
918.161	15363
918.272	15473
918.384	15431
918.495	15397
918.606	15230
918.717	14967
918.828	15097
918.939	15131
919.05	15047
919.161	15100
919.272	14899
919.383	14921
919.494	15142
919.604	15264
919.715	15058
919.826	14982
919.936	14998
920.047	14979
920.157	15028
920.267	15233
920.378	15066
920.488	14998
920.598	15317
920.708	15389
920.818	15188
920.928	15123
921.038	15302
921.148	15245
921.258	15089
921.368	14872
921.477	14845
921.587	14773
921.697	14670
921.806	14811
921.916	14606
922.025	14560
922.134	14461
922.244	14381
922.353	14305
922.462	14301
922.571	14317
922.68	14134
922.789	14001
922.898	14058
923.007	13917
923.116	14020
923.224	14050
923.333	14027
923.442	13883
923.55	13944
923.659	13852
923.767	13993
923.876	13753
923.984	13917
924.092	13639
924.201	13776
924.309	13734
924.417	13791
924.525	13727
924.633	13670
924.741	14381
924.849	13525
924.956	13605
925.064	13521
925.172	13327
925.279	13441
925.387	13571
925.494	13460
925.602	13636
925.709	13464
925.816	13327
925.924	13335
926.031	13499
926.138	13422
926.245	13369
926.352	13293
926.459	13449
926.566	13297
926.673	13255
926.779	13194
926.886	13118
926.993	13053
927.099	13015
927.206	12852
927.312	12981
927.419	13084
927.525	12886
927.631	13015
927.737	12871
927.843	12825
927.95	12779
928.056	12791
928.162	12791
928.267	12844
928.373	13460
928.479	12859
928.585	12593
928.69	12669
928.796	12726
928.901	12616
929.007	12612
929.112	12559
929.218	12555
929.323	12551
929.428	12486
929.533	12593
929.638	12338
929.743	12483
929.848	12498
929.953	12350
930.058	12433
930.163	12190
930.267	12262
930.372	12395
930.477	12129
930.581	12285
930.685	12235
930.79	12060
930.894	12026
930.998	11980
931.103	12148
931.207	11745
931.311	11668
931.415	11589
931.519	11406
931.623	11303
