Data from test_V78500241_3601.txt Node
Date: Fri Mar 25 16:06:44 CST 2022
User: usil
Spectrometer: V785-0024
Trigger mode: 0
Integration Time (sec): 4.000000E-1
Scans to average: 1
Nonlinearity correction enabled: false
Boxcar width: 0
Storing dark spectrum: false
XAxis mode: Wavelengths
Number of Pixels in Spectrum: 1024
>>>>>Begin Spectral Data<<<<<
801.071	28531
801.214	28478
801.356	28276
801.499	28169
801.641	28082
801.783	28154
801.926	28021
802.068	28086
802.211	27972
802.353	27880
802.496	27854
802.638	27694
802.78	27724
802.923	27690
803.065	27743
803.208	27705
803.35	27603
803.492	27953
803.635	28010
803.777	27926
803.919	27892
804.061	28314
804.204	28120
804.346	27865
804.488	27937
804.63	27949
804.773	28036
804.915	28002
805.057	28162
805.199	27953
805.341	28093
805.483	28200
805.626	28040
805.768	28036
805.91	28207
806.052	28131
806.194	28101
806.336	28386
806.478	28188
806.62	28116
806.762	28409
806.904	28394
807.046	28687
807.188	28592
807.33	28542
807.472	28748
807.614	28603
807.756	28592
807.898	28394
808.04	28303
808.182	28310
808.324	28428
808.465	28508
808.607	28675
808.749	28839
808.891	28938
809.033	28839
809.174	28835
809.316	28850
809.458	28797
809.6	28816
809.741	28923
809.883	28980
810.025	29132
810.166	29231
810.308	29010
810.45	29014
810.591	29075
810.733	28976
810.875	28801
811.016	28881
811.158	28615
811.299	28927
811.441	29003
811.582	28850
811.724	28797
811.865	28957
812.007	28786
812.148	28858
812.29	28850
812.431	29033
812.573	29330
812.714	29166
812.855	29379
812.997	29372
813.138	29699
813.279	29459
813.421	29539
813.562	29269
813.703	29197
813.845	29044
813.986	28847
814.127	28717
814.268	28493
814.41	28538
814.551	28599
814.692	28554
814.833	28603
814.974	28386
815.115	28470
815.256	28466
815.397	28466
815.539	28318
815.68	28276
815.821	28268
815.962	28291
816.103	28356
816.244	28139
816.385	28219
816.526	28120
816.666	27956
816.807	27827
816.948	27857
817.089	27876
817.23	27972
817.371	27884
817.512	27842
817.653	27827
817.793	27762
817.934	27964
818.075	27937
818.216	27831
818.356	27831
818.497	27785
818.638	27485
818.778	27538
818.919	27682
819.06	27797
819.2	27743
819.341	27918
819.481	27884
819.622	28002
819.762	28265
819.903	28040
820.043	28109
820.184	27964
820.324	28070
820.465	27941
820.605	28006
820.746	27979
820.886	27842
821.026	27892
821.167	27911
821.307	27975
821.447	27831
821.588	27789
821.728	27648
821.868	27568
822.008	27378
822.149	27329
822.289	27386
822.429	27100
822.569	27043
822.709	26990
822.849	26952
822.99	26956
823.13	26845
823.27	26853
823.41	26670
823.55	26545
823.69	26594
823.83	26602
823.97	26602
824.11	26389
824.25	26511
824.389	26526
824.529	26571
824.669	26473
824.809	26613
824.949	26617
825.089	26351
825.228	26309
825.368	26404
825.508	26271
825.648	26377
825.787	26389
825.927	26438
826.067	26415
826.206	26427
826.346	26434
826.485	26347
826.625	26309
826.765	26419
826.904	26374
827.044	26088
827.183	26161
827.323	26012
827.462	26172
827.601	26164
827.741	26035
827.88	26130
828.02	25989
828.159	26005
828.298	26039
828.437	26088
828.577	26039
828.716	26077
828.855	25864
828.994	25833
829.134	25689
829.273	25772
829.412	25689
829.551	25632
829.69	25856
829.829	25822
829.968	25871
830.107	25864
830.246	25898
830.385	25609
830.524	25746
830.663	25533
830.802	25358
830.941	25384
831.08	25441
831.219	25358
831.357	25449
831.496	25552
831.635	25407
831.774	25259
831.913	25373
832.051	25088
832.19	25274
832.329	25160
832.467	25053
832.606	24981
832.744	24951
832.883	24905
833.022	25012
833.16	25088
833.299	24996
833.437	25114
833.576	25168
833.714	25031
833.852	25114
833.991	25133
834.129	25107
834.267	25137
834.406	25152
834.544	25148
834.682	24970
834.821	25019
834.959	25175
835.097	25008
835.235	25209
835.373	25046
835.511	25145
835.65	24973
835.788	24939
835.926	24962
836.064	24787
836.202	24684
836.34	25053
836.478	24939
836.615	24859
836.753	24977
836.891	25015
837.029	24939
837.167	24890
837.305	24749
837.443	24951
837.58	24719
837.718	24920
837.856	24741
837.993	24681
838.131	24639
838.269	24665
838.406	24734
838.544	24582
838.681	24353
838.819	24384
838.956	24266
839.094	24178
839.231	24235
839.369	24403
839.506	24688
839.643	24467
839.781	24228
839.918	24247
840.055	24323
840.193	24235
840.33	24098
840.467	24228
840.604	24190
840.742	24308
840.879	23984
841.016	24041
841.153	24106
841.29	24194
841.427	24026
841.564	24235
841.701	24091
841.838	24049
841.975	24140
842.112	24083
842.249	23988
842.385	23843
842.522	24064
842.659	24038
842.796	23832
842.933	23965
843.069	23904
843.206	23859
843.343	23939
843.479	23855
843.616	23859
843.752	23600
843.889	23710
844.025	23775
844.162	23615
844.298	23752
844.435	23619
844.571	23691
844.708	23794
844.844	23863
844.98	23866
845.117	23927
845.253	23592
845.389	23471
845.525	23509
845.661	23543
845.798	23417
845.934	23376
846.07	23326
846.206	23493
846.342	23406
846.478	23497
846.614	23216
846.75	23113
846.886	23109
847.022	23090
847.158	23029
847.294	23117
847.429	23151
847.565	23117
847.701	23353
847.837	22820
847.972	22801
848.108	22984
848.244	22968
848.379	22577
848.515	22706
848.65	22656
848.786	22656
848.921	22767
849.057	22816
849.192	22850
849.328	22748
849.463	22702
849.598	22717
849.734	22622
849.869	22573
850.004	22474
850.14	22565
850.275	22497
850.41	22398
850.545	22402
850.68	22398
850.815	22489
850.95	22481
851.085	22519
851.22	22500
851.355	22557
851.49	22535
851.625	22443
851.76	22447
851.895	22478
852.03	22379
852.165	22455
852.299	22417
852.434	22538
852.569	22462
852.703	22493
852.838	22611
852.973	22519
853.107	22615
853.242	22417
853.376	22413
853.511	22177
853.645	22219
853.78	22428
853.914	22322
854.048	22196
854.183	22196
854.317	22398
854.451	22489
854.585	22318
854.72	22234
854.854	22356
854.988	22333
855.122	22295
855.256	22192
855.39	22265
855.524	22371
855.658	22314
855.792	22268
855.926	22287
856.06	22371
856.194	22265
856.327	22249
856.461	22276
856.595	22284
856.729	22299
856.862	22337
856.996	22272
857.13	22379
857.263	22337
857.397	22398
857.53	22204
857.664	22386
857.797	22356
857.931	22447
858.064	22158
858.197	22348
858.331	22253
858.464	22322
858.597	22188
858.731	22306
858.864	22226
858.997	22188
859.13	22428
859.263	22428
859.396	22348
859.529	22265
859.662	22291
859.795	22204
859.928	22402
860.061	22462
860.194	22485
860.327	22375
860.46	22398
860.592	22436
860.725	22497
860.858	22409
860.99	22246
861.123	22219
861.256	22230
861.388	22325
861.521	22934
861.653	22158
861.786	22082
861.918	22188
862.05	22204
862.183	22284
862.315	22295
862.447	22238
862.58	22223
862.712	21968
862.844	21972
862.976	22090
863.108	22051
863.24	22508
863.372	22002
863.504	21983
863.636	22067
863.768	22109
863.9	21964
864.032	21972
864.164	21979
864.296	21979
864.428	22116
864.559	21926
864.691	22097
864.823	22131
864.954	22013
865.086	22013
865.217	21956
865.349	21869
865.48	21861
865.612	21918
865.743	21991
865.875	21808
866.006	21846
866.137	21895
866.269	21945
866.4	21911
866.531	21728
866.662	21789
866.793	21785
866.924	21804
867.055	21838
867.186	21747
867.317	21827
867.448	21709
867.579	21903
867.71	21709
867.841	21690
867.972	21800
868.103	21816
868.233	21819
868.364	21732
868.495	21827
868.625	21964
868.756	22158
868.886	21945
869.017	22017
869.147	22105
869.278	22086
869.408	22082
869.539	22063
869.669	22101
869.799	21998
869.929	22002
870.06	22230
870.19	22405
870.32	22375
870.45	22413
870.58	22386
870.71	22577
870.84	22546
870.97	22417
871.1	22371
871.23	22596
871.36	22607
871.489	22573
871.619	22542
871.749	22645
871.879	22618
872.008	22782
872.138	22675
872.267	22664
872.397	22634
872.526	22592
872.656	22470
872.785	22500
872.915	22656
873.044	22698
873.173	22664
873.303	22767
873.432	22691
873.561	22759
873.69	22675
873.819	22752
873.948	22717
874.077	22771
874.206	22569
874.335	22634
874.464	22801
874.593	22915
874.722	22831
874.851	22908
874.979	22923
875.108	22881
875.237	22828
875.365	22801
875.494	22847
875.623	23086
875.751	22774
875.88	22900
876.008	23041
876.136	23162
876.265	23277
876.393	23444
876.521	23330
876.65	23349
876.778	23277
876.906	23311
877.034	23231
877.162	23170
877.29	23178
877.418	23246
877.546	23223
877.674	23334
877.802	23151
877.93	23136
878.058	23151
878.185	23124
878.313	23265
878.441	23212
878.568	23128
878.696	23086
878.824	23299
878.951	23410
879.079	23459
879.206	23600
879.333	23402
879.461	23387
879.588	23299
879.715	23337
879.842	23471
879.97	23368
880.097	23124
880.224	23090
880.351	23197
880.478	23079
880.605	23170
880.732	22980
880.859	23356
880.986	23090
881.112	23128
881.239	22976
881.366	22839
881.493	22687
881.619	22740
881.746	22721
881.872	22664
881.999	22546
882.125	22577
882.252	22577
882.378	22618
882.505	22618
882.631	22592
882.757	22200
882.883	22322
883.01	22310
883.136	22322
883.262	22173
883.388	22169
883.514	22341
883.64	22314
883.766	22173
883.892	22135
884.018	22112
884.143	22261
884.269	22219
884.395	22021
884.52	21865
884.646	21918
884.772	21937
884.897	21934
885.023	22086
885.148	21956
885.274	22067
885.399	22040
885.524	21934
885.65	21994
885.775	21899
885.9	21994
886.025	21926
886.15	22082
886.275	21991
886.4	21941
886.525	21865
886.65	21861
886.775	21880
886.9	21987
887.025	22059
887.149	21861
887.274	21762
887.399	21682
887.523	21644
887.648	21686
887.773	21587
887.897	21686
888.021	21717
888.146	21595
888.27	21812
888.395	21766
888.519	21838
888.643	21644
888.767	21656
888.891	21614
889.015	21606
889.139	21515
889.263	21557
889.387	21580
889.511	21515
889.635	21519
889.759	21401
889.883	21458
890.006	21599
890.13	21519
890.254	21367
890.377	21466
890.501	21222
890.624	21192
890.748	21249
890.871	21017
890.995	20990
891.118	20986
891.241	21062
891.364	21146
891.488	21096
891.611	21009
891.734	20925
891.857	21077
891.98	21017
892.103	21074
892.226	20982
892.349	20921
892.471	20853
892.594	20929
892.717	21047
892.839	20921
892.962	20925
893.085	21013
893.207	20971
893.33	20838
893.452	20807
893.575	20826
893.697	20872
893.819	21142
893.941	21009
894.064	21184
894.186	20838
894.308	20876
894.43	20986
894.552	21146
894.674	20887
894.796	20826
894.918	20880
895.04	20975
895.161	20998
895.283	20941
895.405	20906
895.526	20956
895.648	21005
895.769	21039
895.891	20960
896.012	21051
896.134	20982
896.255	20925
896.376	20796
896.498	20845
896.619	20891
896.74	20830
896.861	20944
896.982	21169
897.103	21317
897.224	21256
897.345	21157
897.466	21127
897.587	20944
897.708	21264
897.828	21108
897.949	21058
898.07	21017
898.19	21085
898.311	21188
898.431	21009
898.552	21146
898.672	21119
898.792	21051
898.913	21138
899.033	21051
899.153	21070
899.273	20868
899.393	20758
899.513	20948
899.633	20838
899.753	20880
899.873	20792
899.993	20796
900.113	20678
900.232	20849
900.352	20868
900.472	20712
900.591	20743
900.711	20689
900.83	20625
900.95	20758
901.069	20625
901.189	20556
901.308	20218
901.427	20195
901.546	20218
901.665	20195
901.784	20298
901.904	20119
902.023	20050
902.141	19811
902.26	19761
902.379	19833
902.498	19643
902.617	19826
902.735	19715
902.854	19685
902.973	19407
903.091	19422
903.21	19335
903.328	19468
903.446	19129
903.565	19141
903.683	19057
903.801	19053
903.919	19137
904.038	19088
904.156	18863
904.274	18954
904.392	18745
904.51	18871
904.627	18882
904.745	18859
904.863	18932
904.981	18692
905.098	18604
905.216	18589
905.334	18540
905.451	18604
905.569	18483
905.686	18631
905.803	18635
905.921	18300
906.038	18426
906.155	18399
906.272	18388
906.389	18281
906.506	18091
906.623	18064
906.74	18209
906.857	17939
906.974	17969
907.091	18155
907.208	18304
907.324	18129
907.441	17866
907.557	17916
907.674	17748
907.79	17699
907.907	17745
908.023	17798
908.139	17771
908.256	17752
908.372	17737
908.488	17680
908.604	17562
908.72	17589
908.836	17501
908.952	17539
909.068	17459
909.184	17646
909.3	17562
909.415	17604
909.531	17463
909.647	17220
909.762	17128
909.878	17105
909.993	17128
910.108	17178
910.224	17185
910.339	17083
910.454	17113
910.57	17045
910.685	16980
910.8	17239
910.915	17227
911.03	17014
911.145	16866
911.259	16752
911.374	16740
911.489	16843
911.604	16565
911.718	16516
911.833	16558
911.947	16504
912.062	16402
912.176	16466
912.291	16584
912.405	16592
912.519	16771
912.633	16626
912.748	16577
912.862	16474
912.976	16363
913.09	16295
913.204	16265
913.318	16360
913.431	16519
913.545	16428
913.659	16478
913.772	16379
913.886	16177
914	16109
914.113	16291
914.226	16318
914.34	16242
914.453	16017
914.566	16177
914.68	16063
914.793	15899
914.906	15823
915.019	15812
915.132	15751
915.245	15755
915.358	15892
915.47	15812
915.583	15705
915.696	15850
915.809	15869
915.921	15861
916.034	15785
916.146	15648
916.259	15671
916.371	15747
916.483	15713
916.595	15610
916.708	15534
916.82	15648
916.932	15519
917.044	15530
917.156	15538
917.268	15420
917.38	15492
917.491	15439
917.603	15389
917.715	15481
917.826	15424
917.938	15397
918.049	15237
918.161	15386
918.272	15454
918.384	15473
918.495	15336
918.606	15150
918.717	15199
918.828	15192
918.939	15161
919.05	15020
919.161	15146
919.272	14842
919.383	15009
919.494	15146
919.604	15332
919.715	15161
919.826	15032
919.936	15112
920.047	15161
920.157	15135
920.267	15306
920.378	15104
920.488	15123
920.598	15344
920.708	15393
920.818	15237
920.928	15241
921.038	15370
921.148	15275
921.258	14998
921.368	14982
921.477	14883
921.587	14857
921.697	14648
921.806	14800
921.916	14754
922.025	14511
922.134	14560
922.244	14377
922.353	14514
922.462	14317
922.571	14263
922.68	14134
922.789	14039
922.898	14031
923.007	13959
923.116	14134
923.224	14077
923.333	14081
923.442	13871
923.55	13982
923.659	13959
923.767	13997
923.876	13898
923.984	13784
924.092	13769
924.201	13868
924.309	13776
924.417	13822
924.525	13723
924.633	13700
924.741	14727
924.849	13533
924.956	13746
925.064	13559
925.172	13460
925.279	13460
925.387	13445
925.494	13552
925.602	13662
925.709	13521
925.816	13407
925.924	13354
926.031	13457
926.138	13415
926.245	13430
926.352	13304
926.459	13483
926.566	13472
926.673	13289
926.779	13221
926.886	13206
926.993	13084
927.099	13027
927.206	13057
927.312	12981
927.419	13042
927.525	13019
927.631	13004
927.737	12939
927.843	12920
927.95	12726
928.056	12798
928.162	12802
928.267	12901
928.373	13594
928.479	12943
928.585	12711
928.69	12856
928.796	12825
928.901	12726
929.007	12528
929.112	12700
929.218	12665
929.323	12620
929.428	12498
929.533	12684
929.638	12441
929.743	12532
929.848	12570
929.953	12426
930.058	12407
930.163	12270
930.267	12266
930.372	12323
930.477	12243
930.581	12475
930.685	12209
930.79	12083
930.894	12110
930.998	12125
931.103	12254
931.207	11855
931.311	11771
931.415	11688
931.519	11482
931.623	11474
