Data from test_V78500241_3623.txt Node
Date: Fri Mar 25 16:06:53 CST 2022
User: usil
Spectrometer: V785-0024
Trigger mode: 0
Integration Time (sec): 4.000000E-1
Scans to average: 1
Nonlinearity correction enabled: false
Boxcar width: 0
Storing dark spectrum: false
XAxis mode: Wavelengths
Number of Pixels in Spectrum: 1024
>>>>>Begin Spectral Data<<<<<
801.071	28923
801.214	28698
801.356	28622
801.499	28519
801.641	28497
801.783	28538
801.926	28508
802.068	28352
802.211	28348
802.353	28375
802.496	28162
802.638	28185
802.78	28070
802.923	28105
803.065	28017
803.208	28021
803.35	28185
803.492	28295
803.635	28352
803.777	28192
803.919	28417
804.061	28679
804.204	28443
804.346	28291
804.488	28219
804.63	28333
804.773	28257
804.915	28394
805.057	28401
805.199	28272
805.341	28436
805.483	28569
805.626	28500
805.768	28367
805.91	28542
806.052	28462
806.194	28287
806.336	28649
806.478	28500
806.62	28603
806.762	28713
806.904	28873
807.046	29006
807.188	28949
807.33	28995
807.472	29041
807.614	28991
807.756	29083
807.898	28820
808.04	28672
808.182	28752
808.324	28911
808.465	29018
808.607	29189
808.749	29265
808.891	29239
809.033	29398
809.174	29280
809.316	29277
809.458	29170
809.6	29254
809.741	29337
809.883	29440
810.025	29611
810.166	29509
810.308	29566
810.45	29478
810.591	29452
810.733	29102
810.875	29208
811.016	29200
811.158	29189
811.299	29383
811.441	29535
811.582	29421
811.724	29334
811.865	29303
812.007	29261
812.148	29356
812.29	29299
812.431	29360
812.573	29448
812.714	29615
812.855	29748
812.997	29882
813.138	30018
813.279	29988
813.421	29878
813.562	29558
813.703	29687
813.845	29497
813.986	29178
814.127	29064
814.268	29014
814.41	29079
814.551	28976
814.692	29006
814.833	28896
814.974	28968
815.115	29014
815.256	28850
815.397	28919
815.539	28828
815.68	28801
815.821	28421
815.962	28672
816.103	28866
816.244	28748
816.385	28516
816.526	28504
816.666	28386
816.807	28246
816.948	28428
817.089	28417
817.23	28287
817.371	28238
817.512	28253
817.653	28200
817.793	28120
817.934	28280
818.075	28291
818.216	28272
818.356	28158
818.497	28204
818.638	27903
818.778	27922
818.919	28109
819.06	28055
819.2	28147
819.341	28265
819.481	28409
819.622	28523
819.762	28561
819.903	28634
820.043	28443
820.184	28428
820.324	28356
820.465	28481
820.605	28375
820.746	28367
820.886	28341
821.026	28375
821.167	28470
821.307	28428
821.447	28318
821.588	28246
821.728	28169
821.868	27991
822.008	27793
822.149	27793
822.289	27739
822.429	27587
822.569	27450
822.709	27340
822.849	27279
822.99	27237
823.13	27169
823.27	27142
823.41	26960
823.55	27066
823.69	27100
823.83	27195
823.97	27024
824.11	26785
824.25	26819
824.389	26967
824.529	26960
824.669	26918
824.809	26998
824.949	27169
825.089	27043
825.228	26956
825.368	26678
825.508	26743
825.648	26823
825.787	26834
825.927	26910
826.067	26800
826.206	26826
826.346	26868
826.485	26823
826.625	26708
826.765	26925
826.904	26815
827.044	26564
827.183	26545
827.323	26526
827.462	26560
827.601	26587
827.741	26613
827.88	26571
828.02	26328
828.159	26549
828.298	26571
828.437	26503
828.577	26374
828.716	26621
828.855	26339
828.994	26294
829.134	26233
829.273	26290
829.412	26157
829.551	26180
829.69	26199
829.829	26263
829.968	26324
830.107	26263
830.246	26195
830.385	26134
830.524	26153
830.663	26130
830.802	25947
830.941	25909
831.08	25651
831.219	25978
831.357	25849
831.496	26088
831.635	25868
831.774	25753
831.913	25658
832.051	25559
832.19	25620
832.329	25628
832.467	25388
832.606	25571
832.744	25365
832.883	25628
833.022	25521
833.16	25556
833.299	25537
833.437	25419
833.576	25540
833.714	25681
833.852	25635
833.991	25643
834.129	25563
834.267	25582
834.406	25742
834.544	25677
834.682	25499
834.821	25624
834.959	25712
835.097	25472
835.235	25586
835.373	25681
835.511	25499
835.65	25350
835.788	25384
835.926	25285
836.064	25289
836.202	25228
836.34	25392
836.478	25411
836.615	25346
836.753	25453
836.891	25396
837.029	25441
837.167	25240
837.305	25209
837.443	25308
837.58	25126
837.718	25247
837.856	25084
837.993	25202
838.131	25232
838.269	25057
838.406	25065
838.544	24894
838.681	24821
838.819	24814
838.956	24696
839.094	24646
839.231	24688
839.369	24821
839.506	25141
839.643	24856
839.781	24703
839.918	24741
840.055	24570
840.193	24505
840.33	24574
840.467	24540
840.604	24612
840.742	24795
840.879	24422
841.016	24445
841.153	24426
841.29	24715
841.427	24525
841.564	24646
841.701	24486
841.838	24448
841.975	24410
842.112	24460
842.249	24418
842.385	24403
842.522	24479
842.659	24365
842.796	24384
842.933	24247
843.069	24281
843.206	24365
843.343	24353
843.479	24292
843.616	24323
843.752	24087
843.889	24106
844.025	24254
844.162	24053
844.298	24194
844.435	23992
844.571	24076
844.708	24060
844.844	24281
844.98	24152
845.117	24174
845.253	24022
845.389	24007
845.525	23969
845.661	23996
845.798	23836
845.934	23786
846.07	23794
846.206	23748
846.342	23969
846.478	23786
846.614	23604
846.75	23531
846.886	23398
847.022	23459
847.158	23543
847.294	23455
847.429	23611
847.565	23417
847.701	23775
847.837	23284
847.972	23189
848.108	23311
848.244	23364
848.379	23151
848.515	23060
848.65	23197
848.786	23136
848.921	23155
849.057	23261
849.192	23235
849.328	23155
849.463	23128
849.598	23102
849.734	22908
849.869	22946
850.004	22839
850.14	22908
850.275	22946
850.41	22793
850.545	22908
850.68	22892
850.815	22908
850.95	22965
851.085	23060
851.22	23025
851.355	22995
851.49	22881
851.625	22942
851.76	22911
851.895	22847
852.03	22866
852.165	22812
852.299	22919
852.434	22987
852.569	22957
852.703	22896
852.838	22987
852.973	22987
853.107	23064
853.242	22828
853.376	22710
853.511	22599
853.645	22672
853.78	22797
853.914	22733
854.048	22702
854.183	22706
854.317	22759
854.451	22809
854.585	22607
854.72	22706
854.854	22790
854.988	22698
855.122	22653
855.256	22668
855.39	22596
855.524	22752
855.658	22702
855.792	22809
855.926	22805
856.06	22706
856.194	22896
856.327	22820
856.461	22687
856.595	22596
856.729	22725
856.862	22733
856.996	22786
857.13	22812
857.263	22915
857.397	22812
857.53	22596
857.664	22790
857.797	22729
857.931	22850
858.064	22744
858.197	22812
858.331	22755
858.464	22725
858.597	22599
858.731	22592
858.864	22645
858.997	22618
859.13	22733
859.263	22713
859.396	22816
859.529	22721
859.662	22660
859.795	22622
859.928	22729
860.061	22835
860.194	22930
860.327	22691
860.46	22793
860.592	22869
860.725	22793
860.858	22873
860.99	22790
861.123	22687
861.256	22489
861.388	22725
861.521	23539
861.653	22599
861.786	22504
861.918	22516
862.05	22531
862.183	22713
862.315	22630
862.447	22561
862.58	22497
862.712	22375
862.844	22569
862.976	22557
863.108	22478
863.24	22942
863.372	22360
863.504	22580
863.636	22550
863.768	22500
863.9	22318
864.032	22470
864.164	22352
864.296	22413
864.428	22550
864.559	22535
864.691	22402
864.823	22363
864.954	22348
865.086	22223
865.217	22268
865.349	22257
865.48	22413
865.612	22299
865.743	22455
865.875	22246
866.006	22173
866.137	22291
866.269	22272
866.4	22325
866.531	22253
866.662	22196
866.793	22067
866.924	22196
867.055	22124
867.186	22318
867.317	22124
867.448	22154
867.579	22173
867.71	22139
867.841	22109
867.972	22188
868.103	22325
868.233	22211
868.364	22135
868.495	22409
868.625	22451
868.756	22527
868.886	22356
869.017	22462
869.147	22504
869.278	22573
869.408	22462
869.539	22478
869.669	22398
869.799	22527
869.929	22580
870.06	22527
870.19	22706
870.32	22679
870.45	22946
870.58	22828
870.71	22934
870.84	22896
870.97	22858
871.1	22805
871.23	23086
871.36	23071
871.489	23041
871.619	22980
871.749	22930
871.879	23166
872.008	23208
872.138	23044
872.267	22984
872.397	22854
872.526	22782
872.656	22839
872.785	22987
872.915	23113
873.044	23143
873.173	23075
873.303	23235
873.432	23151
873.561	23185
873.69	23010
873.819	23071
873.948	23170
874.077	23090
874.206	23025
874.335	23018
874.464	23189
874.593	23372
874.722	23193
874.851	23189
874.979	23231
875.108	23299
875.237	23212
875.365	23178
875.494	23254
875.623	23299
875.751	23193
875.88	23410
876.008	23444
876.136	23349
876.265	23589
876.393	23684
876.521	23718
876.65	23752
876.778	23615
876.906	23604
877.034	23653
877.162	23684
877.29	23482
877.418	23805
877.546	23619
877.674	23611
877.802	23661
877.93	23672
878.058	23608
878.185	23509
878.313	23520
878.441	23554
878.568	23528
878.696	23474
878.824	23596
878.951	23786
879.079	23821
879.206	23836
879.333	23805
879.461	23573
879.588	23684
879.715	23855
879.842	23912
879.97	23623
880.097	23452
880.224	23493
880.351	23611
880.478	23482
880.605	23429
880.732	23410
880.859	23695
880.986	23448
881.112	23570
881.239	23250
881.366	23223
881.493	23109
881.619	23090
881.746	23060
881.872	22995
881.999	23064
882.125	22976
882.252	22873
882.378	22980
882.505	22999
882.631	22946
882.757	22729
882.883	22805
883.01	22771
883.136	22626
883.262	22493
883.388	22474
883.514	22740
883.64	22683
883.766	22603
883.892	22424
884.018	22382
884.143	22664
884.269	22736
884.395	22382
884.52	22314
884.646	22299
884.772	22226
884.897	22249
885.023	22325
885.148	22322
885.274	22489
885.399	22379
885.524	22325
885.65	22398
885.775	22219
885.9	22261
886.025	22485
886.15	22360
886.275	22196
886.4	22268
886.525	22333
886.65	22223
886.775	22139
886.9	22371
887.025	22398
887.149	22360
887.274	22036
887.399	22082
887.523	22105
887.648	22044
887.773	21937
887.897	22143
888.021	22048
888.146	22010
888.27	22158
888.395	22181
888.519	21998
888.643	22078
888.767	22105
888.891	21880
889.015	21854
889.139	21953
889.263	21781
889.387	21968
889.511	22051
889.635	21880
889.759	21857
889.883	21759
890.006	21842
890.13	21926
890.254	21743
890.377	21766
890.501	21709
890.624	21515
890.748	21660
890.871	21477
890.995	21291
891.118	21370
891.241	21363
891.364	21397
891.488	21447
891.611	21378
891.734	21370
891.857	21386
891.98	21393
892.103	21386
892.226	21439
892.349	21382
892.471	21245
892.594	21405
892.717	21344
892.839	21233
892.962	21283
893.085	21344
893.207	21279
893.33	21222
893.452	21268
893.575	21329
893.697	21161
893.819	21462
893.941	21511
894.064	21462
894.186	21218
894.308	21085
894.43	21370
894.552	21294
894.674	21291
894.796	21070
894.918	21237
895.04	21169
895.161	21405
895.283	21245
895.405	21233
895.526	21249
895.648	21252
895.769	21203
895.891	21279
896.012	21283
896.134	21264
896.255	21165
896.376	21192
896.498	21226
896.619	21138
896.74	21283
896.861	21359
896.982	21625
897.103	21698
897.224	21458
897.345	21393
897.466	21359
897.587	21420
897.708	21595
897.828	21336
897.949	21321
898.07	21325
898.19	21382
898.311	21542
898.431	21412
898.552	21340
898.672	21477
898.792	21523
898.913	21576
899.033	21291
899.153	21268
899.273	21256
899.393	21283
899.513	21268
899.633	21252
899.753	21192
899.873	21165
899.993	21104
900.113	21093
900.232	21119
900.352	21100
900.472	20994
900.591	20979
900.711	21005
900.83	20944
900.95	21036
901.069	20990
901.189	20880
901.308	20579
901.427	20511
901.546	20617
901.665	20564
901.784	20427
901.904	20377
902.023	20282
902.141	20206
902.26	19978
902.379	20081
902.498	20103
902.617	19997
902.735	20183
902.854	20073
902.973	19890
903.091	19734
903.21	19506
903.328	19677
903.446	19552
903.565	19464
903.683	19487
903.801	19343
903.919	19445
904.038	19308
904.156	19400
904.274	19285
904.392	19270
904.51	19244
904.627	19179
904.745	19225
904.863	19221
904.981	18985
905.098	18935
905.216	18859
905.334	18890
905.451	18909
905.569	18875
905.686	18958
905.803	18859
905.921	18639
906.038	18779
906.155	18669
906.272	18566
906.389	18559
906.506	18399
906.623	18479
906.74	18410
906.857	18266
906.974	18247
907.091	18445
907.208	18521
907.324	18483
907.441	18239
907.557	18213
907.674	18155
907.79	18079
907.907	18041
908.023	18102
908.139	18133
908.256	18026
908.372	18019
908.488	17836
908.604	17805
908.72	17798
908.836	17767
908.952	17790
909.068	17836
909.184	17908
909.3	17786
909.415	17901
909.531	17798
909.647	17573
909.762	17509
909.878	17512
909.993	17406
910.108	17528
910.224	17520
910.339	17425
910.454	17417
910.57	17360
910.685	17189
910.8	17493
910.915	17509
911.03	17280
911.145	17109
911.259	17048
911.374	17113
911.489	17121
911.604	16965
911.718	16809
911.833	16911
911.947	16797
912.062	16664
912.176	16854
912.291	16927
912.405	16881
912.519	17094
912.633	17010
912.748	16919
912.862	16843
912.976	16569
913.09	16645
913.204	16645
913.318	16592
913.431	16793
913.545	16702
913.659	16672
913.772	16641
913.886	16462
914	16424
914.113	16470
914.226	16519
914.34	16527
914.453	16219
914.566	16432
914.68	16344
914.793	16238
914.906	16074
915.019	16071
915.132	16055
915.245	16112
915.358	16029
915.47	15899
915.583	15945
915.696	15987
915.809	16147
915.921	16105
916.034	16013
916.146	15888
916.259	15812
916.371	15972
916.483	15960
916.595	15865
916.708	15781
916.82	15812
916.932	15774
917.044	15823
917.156	15793
917.268	15614
917.38	15648
917.491	15633
917.603	15591
917.715	15686
917.826	15629
917.938	15511
918.049	15507
918.161	15538
918.272	15667
918.384	15682
918.495	15481
918.606	15412
918.717	15230
918.828	15302
918.939	15412
919.05	15302
919.161	15355
919.272	15062
919.383	15203
919.494	15332
919.604	15458
919.715	15340
919.826	15142
919.936	15317
920.047	15367
920.157	15332
920.267	15454
920.378	15332
920.488	15329
920.598	15462
920.708	15663
920.818	15450
920.928	15397
921.038	15618
921.148	15542
921.258	15363
921.368	15150
921.477	15020
921.587	15074
921.697	14914
921.806	15017
921.916	14910
922.025	14720
922.134	14651
922.244	14495
922.353	14720
922.462	14594
922.571	14518
922.68	14370
922.789	14282
922.898	14309
923.007	14218
923.116	14298
923.224	14298
923.333	14225
923.442	14050
923.55	14073
923.659	14176
923.767	14172
923.876	14130
923.984	14149
924.092	13959
924.201	14069
924.309	14005
924.417	13947
924.525	13883
924.633	13947
924.741	14834
924.849	13750
924.956	13921
925.064	13738
925.172	13624
925.279	13628
925.387	13753
925.494	13609
925.602	13765
925.709	13677
925.816	13578
925.924	13689
926.031	13655
926.138	13582
926.245	13620
926.352	13502
926.459	13662
926.566	13632
926.673	13567
926.779	13441
926.886	13354
926.993	13297
927.099	13285
927.206	13198
927.312	13164
927.419	13244
927.525	13107
927.631	13293
927.737	13095
927.843	13050
927.95	12890
928.056	13034
928.162	13099
928.267	13084
928.373	13624
928.479	13042
928.585	12848
928.69	12886
928.796	12947
928.901	12913
929.007	12779
929.112	12878
929.218	12795
929.323	12791
929.428	12726
929.533	12821
929.638	12601
929.743	12749
929.848	12703
929.953	12650
930.058	12544
930.163	12433
930.267	12433
930.372	12502
930.477	12357
930.581	12574
930.685	12464
930.79	12251
930.894	12323
930.998	12190
931.103	12422
931.207	12015
931.311	11958
931.415	11748
931.519	11653
931.623	11615
