Data from test_V78500241_222.txt Node
Date: Fri Mar 25 15:43:20 CST 2022
User: usil
Spectrometer: V785-0024
Trigger mode: 0
Integration Time (sec): 4.000000E-1
Scans to average: 1
Nonlinearity correction enabled: false
Boxcar width: 0
Storing dark spectrum: false
XAxis mode: Wavelengths
Number of Pixels in Spectrum: 1024
>>>>>Begin Spectral Data<<<<<
801.071	28774
801.214	28637
801.356	28462
801.499	28344
801.641	28352
801.783	28360
801.926	28451
802.068	28443
802.211	28162
802.353	28074
802.496	27819
802.638	27975
802.78	27968
802.923	27934
803.065	27827
803.208	27793
803.35	27857
803.492	27892
803.635	28097
803.777	27892
803.919	28082
804.061	28268
804.204	28082
804.346	27956
804.488	27835
804.63	27854
804.773	27812
804.915	27911
805.057	28017
805.199	27964
805.341	27922
805.483	28070
805.626	28013
805.768	27922
805.91	28025
806.052	28154
806.194	27956
806.336	28196
806.478	28223
806.62	28048
806.762	28032
806.904	28257
807.046	28618
807.188	28432
807.33	28310
807.472	28371
807.614	28318
807.756	28284
807.898	28238
808.04	28147
808.182	28143
808.324	28188
808.465	28223
808.607	28348
808.749	28470
808.891	28672
809.033	28831
809.174	28744
809.316	28622
809.458	28618
809.6	28588
809.741	28569
809.883	28706
810.025	28820
810.166	28888
810.308	28774
810.45	28782
810.591	28668
810.733	28717
810.875	28485
811.016	28466
811.158	28527
811.299	28771
811.441	28721
811.582	28641
811.724	28455
811.865	28421
812.007	28508
812.148	28615
812.29	28626
812.431	28557
812.573	28759
812.714	28759
812.855	29113
812.997	29128
813.138	29307
813.279	29132
813.421	29235
813.562	28957
813.703	28828
813.845	28729
813.986	28462
814.127	28375
814.268	28169
814.41	28112
814.551	28200
814.692	28207
814.833	28059
814.974	28032
815.115	28112
815.256	28059
815.397	27808
815.539	27934
815.68	27903
815.821	27994
815.962	28036
816.103	27831
816.244	27724
816.385	27523
816.526	27755
816.666	27492
816.807	27252
816.948	27351
817.089	27450
817.23	27336
817.371	27256
817.512	27374
817.653	27294
817.793	27256
817.934	27192
818.075	27317
818.216	27302
818.356	27093
818.497	27154
818.638	26914
818.778	27009
818.919	27047
819.06	27055
819.2	27146
819.341	27199
819.481	27123
819.622	27450
819.762	27614
819.903	27462
820.043	27500
820.184	27264
820.324	27275
820.465	27515
820.605	27427
820.746	27340
820.886	27058
821.026	27176
821.167	27188
821.307	27359
821.447	27070
821.588	27104
821.728	26956
821.868	26781
822.008	26644
822.149	26545
822.289	26712
822.429	26370
822.569	26366
822.709	26313
822.849	26218
822.99	26168
823.13	26115
823.27	25986
823.41	25868
823.55	25784
823.69	25776
823.83	25830
823.97	25734
824.11	25734
824.25	25495
824.389	25750
824.529	25811
824.669	25556
824.809	25845
824.949	25753
825.089	25803
825.228	25788
825.368	25575
825.508	25479
825.648	25601
825.787	25491
825.927	25685
826.067	25514
826.206	25521
826.346	25559
826.485	25502
826.625	25506
826.765	25670
826.904	25434
827.044	25263
827.183	25251
827.323	25213
827.462	25312
827.601	25198
827.741	25122
827.88	25126
828.02	25061
828.159	25129
828.298	25228
828.437	25221
828.577	25126
828.716	25384
828.855	25069
828.994	24894
829.134	24859
829.273	24920
829.412	24726
829.551	24802
829.69	24882
829.829	24871
829.968	24814
830.107	24970
830.246	24821
830.385	24776
830.524	24730
830.663	24665
830.802	24464
830.941	24604
831.08	24353
831.219	24361
831.357	24551
831.496	24631
831.635	24410
831.774	24384
831.913	24315
832.051	24239
832.19	24144
832.329	24186
832.467	24110
832.606	23927
832.744	24072
832.883	24201
833.022	24003
833.16	23980
833.299	24140
833.437	24102
833.576	24152
833.714	24057
833.852	24121
833.991	24125
834.129	24178
834.267	24087
834.406	24072
834.544	24076
834.682	24121
834.821	23984
834.959	24232
835.097	24022
835.235	24129
835.373	24026
835.511	23965
835.65	23874
835.788	23889
835.926	23722
836.064	23760
836.202	23775
836.34	23824
836.478	24041
836.615	23847
836.753	24011
836.891	24057
837.029	23973
837.167	23786
837.305	23794
837.443	23741
837.58	23638
837.718	23866
837.856	23790
837.993	23611
838.131	23840
838.269	23512
838.406	23615
838.544	23482
838.681	23474
838.819	23433
838.956	23166
839.094	23220
839.231	23318
839.369	23322
839.506	23535
839.643	23379
839.781	23143
839.918	23075
840.055	23124
840.193	23113
840.33	23083
840.467	22980
840.604	23052
840.742	23345
840.879	23056
841.016	23006
841.153	22877
841.29	23197
841.427	22987
841.564	22972
841.701	22919
841.838	22957
841.975	22885
842.112	22927
842.249	22790
842.385	22885
842.522	23048
842.659	22778
842.796	22748
842.933	22736
843.069	22698
843.206	22649
843.343	22801
843.479	22736
843.616	22683
843.752	22565
843.889	22440
844.025	22683
844.162	22519
844.298	22584
844.435	22459
844.571	22466
844.708	22538
844.844	22611
844.98	22656
845.117	22630
845.253	22455
845.389	22363
845.525	22299
845.661	22432
845.798	22181
845.934	22188
846.07	22013
846.206	22192
846.342	22204
846.478	22105
846.614	22010
846.75	21869
846.886	21865
847.022	21991
847.158	21918
847.294	21911
847.429	21983
847.565	21949
847.701	22169
847.837	21583
847.972	21633
848.108	21675
848.244	21644
848.379	21595
848.515	21526
848.65	21420
848.786	21469
848.921	21519
849.057	21603
849.192	21679
849.328	21519
849.463	21431
849.598	21420
849.734	21443
849.869	21443
850.004	21256
850.14	21321
850.275	21161
850.41	21188
850.545	21096
850.68	21203
850.815	21211
850.95	21161
851.085	21367
851.22	21317
851.355	21222
851.49	21169
851.625	21127
851.76	21142
851.895	21161
852.03	21165
852.165	21199
852.299	21169
852.434	21351
852.569	21154
852.703	21192
852.838	21230
852.973	21226
853.107	21298
853.242	21176
853.376	21043
853.511	20956
853.645	21032
853.78	21173
853.914	21036
854.048	20960
854.183	20982
854.317	21017
854.451	21165
854.585	21032
854.72	21013
854.854	21017
854.988	21005
855.122	20998
855.256	20891
855.39	21116
855.524	21020
855.658	21017
855.792	21131
855.926	21089
856.06	21043
856.194	21108
856.327	20998
856.461	21047
856.595	20826
856.729	21032
856.862	21154
856.996	20967
857.13	21116
857.263	21127
857.397	21150
857.53	20986
857.664	21089
857.797	21013
857.931	21218
858.064	21096
858.197	21043
858.331	20990
858.464	21024
858.597	20876
858.731	20967
858.864	20830
858.997	20990
859.13	20975
859.263	21112
859.396	21077
859.529	21077
859.662	20883
859.795	20937
859.928	20948
860.061	21310
860.194	21184
860.327	21028
860.46	20933
860.592	21207
860.725	21089
860.858	21085
860.99	21001
861.123	20944
861.256	20906
861.388	20971
861.521	21739
861.653	20845
861.786	20769
861.918	20811
862.05	20891
862.183	21047
862.315	21051
862.447	21005
862.58	21005
862.712	20845
862.844	20659
862.976	20830
863.108	20868
863.24	21135
863.372	20659
863.504	20689
863.636	20712
863.768	20716
863.9	20731
864.032	20457
864.164	20594
864.296	20708
864.428	20644
864.559	20655
864.691	20720
864.823	20697
864.954	20785
865.086	20674
865.217	20545
865.349	20507
865.48	20552
865.612	20541
865.743	20682
865.875	20602
866.006	20644
866.137	20556
866.269	20560
866.4	20651
866.531	20442
866.662	20454
866.793	20484
866.924	20522
867.055	20560
867.186	20518
867.317	20419
867.448	20385
867.579	20526
867.71	20339
867.841	20385
867.972	20514
868.103	20358
868.233	20408
868.364	20568
868.495	20697
868.625	20606
868.756	20906
868.886	20621
869.017	20777
869.147	20765
869.278	20883
869.408	20712
869.539	20857
869.669	20963
869.799	20834
869.929	20845
870.06	20895
870.19	21013
870.32	21039
870.45	21020
870.58	21066
870.71	21188
870.84	21313
870.97	21176
871.1	21070
871.23	21298
871.36	21321
871.489	21192
871.619	21298
871.749	21374
871.879	21363
872.008	21523
872.138	21310
872.267	21351
872.397	21233
872.526	21055
872.656	21127
872.785	21150
872.915	21302
873.044	21378
873.173	21359
873.303	21412
873.432	21473
873.561	21530
873.69	21408
873.819	21268
873.948	21454
874.077	21561
874.206	21218
874.335	21443
874.464	21443
874.593	21641
874.722	21538
874.851	21568
874.979	21713
875.108	21561
875.237	21534
875.365	21386
875.494	21526
875.623	21633
875.751	21606
875.88	21622
876.008	21728
876.136	21778
876.265	22036
876.393	22070
876.521	22070
876.65	21991
876.778	22025
876.906	21972
877.034	22040
877.162	22002
877.29	21857
877.418	21983
877.546	21968
877.674	21979
877.802	22025
877.93	22029
878.058	21972
878.185	21774
878.313	21888
878.441	21991
878.568	21846
878.696	21835
878.824	21937
878.951	21968
879.079	22143
879.206	22287
879.333	22048
879.461	21991
879.588	22051
879.715	21968
879.842	22215
879.97	22090
880.097	21747
880.224	21720
880.351	21797
880.478	21922
880.605	21743
880.732	21804
880.859	22044
880.986	21728
881.112	21804
881.239	21625
881.366	21523
881.493	21492
881.619	21351
881.746	21370
881.872	21389
881.999	21313
882.125	21226
882.252	21363
882.378	21256
882.505	21382
882.631	21230
882.757	21173
882.883	21051
883.01	21066
883.136	21055
883.262	20944
883.388	20891
883.514	21081
883.64	21154
883.766	21062
883.892	20887
884.018	20944
884.143	21051
884.269	21123
884.395	20853
884.52	20552
884.646	20739
884.772	20606
884.897	20514
885.023	20773
885.148	20762
885.274	20880
885.399	20788
885.524	20674
885.65	20590
885.775	20739
885.9	20602
886.025	20838
886.15	20708
886.275	20583
886.4	20507
886.525	20659
886.65	20587
886.775	20629
886.9	20765
887.025	20952
887.149	20644
887.274	20476
887.399	20511
887.523	20400
887.648	20282
887.773	20389
887.897	20613
888.021	20537
888.146	20442
888.27	20434
888.395	20549
888.519	20358
888.643	20537
888.767	20549
888.891	20427
889.015	20275
889.139	20309
889.263	20267
889.387	20328
889.511	20389
889.635	20393
889.759	20176
889.883	20233
890.006	20267
890.13	20259
890.254	20206
890.377	20035
890.501	19951
890.624	19856
890.748	20058
890.871	19913
890.995	19746
891.118	19879
891.241	19799
891.364	19875
891.488	19936
891.611	19841
891.734	19868
891.857	19913
891.98	19803
892.103	19822
892.226	19822
892.349	19769
892.471	19575
892.594	19803
892.717	19772
892.839	19788
892.962	19814
893.085	19826
893.207	19727
893.33	19658
893.452	19613
893.575	19799
893.697	19727
893.819	19883
893.941	19970
894.064	19871
894.186	19655
894.308	19616
894.43	19742
894.552	19906
894.674	19677
894.796	19647
894.918	19605
895.04	19685
895.161	19769
895.283	19727
895.405	19632
895.526	19712
895.648	19715
895.769	19898
895.891	19822
896.012	19887
896.134	19906
896.255	19715
896.376	19780
896.498	19769
896.619	19898
896.74	19841
896.861	19799
896.982	20210
897.103	20286
897.224	20164
897.345	20031
897.466	20020
897.587	20016
897.708	20145
897.828	20073
897.949	20020
898.07	19830
898.19	19944
898.311	19959
898.431	19951
898.552	20027
898.672	20027
898.792	19978
898.913	19959
899.033	19856
899.153	19742
899.273	19696
899.393	19742
899.513	19670
899.633	19719
899.753	19708
899.873	19734
899.993	19681
900.113	19746
900.232	19605
900.352	19632
900.472	19468
900.591	19320
900.711	19441
900.83	19339
900.95	19609
901.069	19556
901.189	19400
901.308	19236
901.427	19145
901.546	19168
901.665	19164
901.784	19061
901.904	18954
902.023	18958
902.141	18585
902.26	18635
902.379	18760
902.498	18506
902.617	18578
902.735	18582
902.854	18528
902.973	18506
903.091	18247
903.21	18300
903.328	18224
903.446	18133
903.565	18041
903.683	17973
903.801	17996
903.919	17965
904.038	17961
904.156	17885
904.274	17870
904.392	17714
904.51	17729
904.627	17779
904.745	17794
904.863	17931
904.981	17615
905.098	17543
905.216	17478
905.334	17501
905.451	17455
905.569	17486
905.686	17532
905.803	17554
905.921	17193
906.038	17429
906.155	17383
906.272	17162
906.389	17178
906.506	17151
906.623	16957
906.74	17018
906.857	16862
906.974	16919
907.091	16984
907.208	17170
907.324	17018
907.441	16889
907.557	16763
907.674	16702
907.79	16615
907.907	16752
908.023	16611
908.139	16653
908.256	16660
908.372	16599
908.488	16637
908.604	16382
908.72	16466
908.836	16348
908.952	16443
909.068	16447
909.184	16580
909.3	16382
909.415	16379
909.531	16356
909.647	16150
909.762	16067
909.878	16082
909.993	16086
910.108	16131
910.224	16074
910.339	16078
910.454	15998
910.57	15884
910.685	15762
910.8	16192
910.915	15956
911.03	15884
911.145	15778
911.259	15648
911.374	15789
911.489	15564
911.604	15519
911.718	15397
911.833	15431
911.947	15382
912.062	15283
912.176	15458
912.291	15500
912.405	15500
912.519	15671
912.633	15526
912.748	15386
912.862	15450
912.976	15260
913.09	15097
913.204	15207
913.318	15294
913.431	15344
913.545	15310
913.659	15272
913.772	15287
913.886	15066
914	14986
914.113	15119
914.226	15195
914.34	15066
914.453	14944
914.566	15100
914.68	14982
914.793	14982
914.906	14663
915.019	14644
915.132	14689
915.245	14667
915.358	14735
915.47	14731
915.583	14678
915.696	14701
915.809	14800
915.921	14845
916.034	14533
916.146	14583
916.259	14613
916.371	14575
916.483	14568
916.595	14617
916.708	14442
916.82	14568
916.932	14400
917.044	14438
917.156	14438
917.268	14362
917.38	14404
917.491	14400
917.603	14339
917.715	14415
917.826	14423
917.938	14183
918.049	14199
918.161	14328
918.272	14343
918.384	14343
918.495	14275
918.606	14164
918.717	14077
918.828	14145
918.939	14077
919.05	13936
919.161	14058
919.272	13784
919.383	14062
919.494	14107
919.604	14267
919.715	14069
919.826	14035
919.936	14012
920.047	14077
920.157	13989
920.267	14244
920.378	14054
920.488	14008
920.598	14176
920.708	14339
920.818	14088
920.928	14069
921.038	14355
921.148	14214
921.258	13902
921.368	13799
921.477	13772
921.587	13727
921.697	13624
921.806	13750
921.916	13693
922.025	13521
922.134	13430
922.244	13304
922.353	13514
922.462	13335
922.571	13324
922.68	13061
922.789	13038
922.898	13072
923.007	12970
923.116	13023
923.224	13023
923.333	13004
923.442	12920
923.55	12909
923.659	12909
923.767	12943
923.876	12871
923.984	12920
924.092	12802
924.201	12833
924.309	12897
924.417	12768
924.525	12772
924.633	12757
924.741	13502
924.849	12570
924.956	12700
925.064	12479
925.172	12445
925.279	12445
925.387	12521
925.494	12407
925.602	12646
925.709	12578
925.816	12384
925.924	12464
926.031	12460
926.138	12429
926.245	12483
926.352	12292
926.459	12486
926.566	12563
926.673	12323
926.779	12232
926.886	12273
926.993	12121
927.099	12102
927.206	11992
927.312	12064
927.419	12057
927.525	12064
927.631	12197
927.737	12087
927.843	11901
927.95	11855
928.056	11863
928.162	11912
928.267	12015
928.373	12506
928.479	11946
928.585	11737
928.69	11832
928.796	11950
928.901	11843
929.007	11634
929.112	11794
929.218	11684
929.323	11672
929.428	11627
929.533	11737
929.638	11535
929.743	11596
929.848	11592
929.953	11592
930.058	11497
930.163	11334
930.267	11379
930.372	11425
930.477	11288
930.581	11543
930.685	11395
930.79	11220
930.894	11288
930.998	11136
931.103	11330
931.207	10991
931.311	10949
931.415	10782
931.519	10645
931.623	10554
