Data from test_V78500241_2371.txt Node
Date: Fri Mar 25 15:58:13 CST 2022
User: usil
Spectrometer: V785-0024
Trigger mode: 0
Integration Time (sec): 4.000000E-1
Scans to average: 1
Nonlinearity correction enabled: false
Boxcar width: 0
Storing dark spectrum: false
XAxis mode: Wavelengths
Number of Pixels in Spectrum: 1024
>>>>>Begin Spectral Data<<<<<
801.071	28915
801.214	28847
801.356	28653
801.499	28546
801.641	28459
801.783	28401
801.926	28462
802.068	28401
802.211	28401
802.353	28310
802.496	28253
802.638	28074
802.78	28211
802.923	28036
803.065	27903
803.208	28051
803.35	28124
803.492	28360
803.635	28401
803.777	28268
803.919	28436
804.061	28668
804.204	28440
804.346	28375
804.488	28268
804.63	28337
804.773	28306
804.915	28390
805.057	28561
805.199	28470
805.341	28519
805.483	28573
805.626	28493
805.768	28478
805.91	28519
806.052	28660
806.194	28466
806.336	28702
806.478	28626
806.62	28611
806.762	28793
806.904	28801
807.046	29064
807.188	29052
807.33	28987
807.472	29159
807.614	28987
807.756	29044
807.898	28847
808.04	28843
808.182	28904
808.324	28797
808.465	29014
808.607	29117
808.749	29326
808.891	29360
809.033	29528
809.174	29284
809.316	29200
809.458	29265
809.6	29349
809.741	29375
809.883	29524
810.025	29547
810.166	29478
810.308	29619
810.45	29707
810.591	29334
810.733	29311
810.875	29315
811.016	29258
811.158	29083
811.299	29372
811.441	29433
811.582	29539
811.724	29299
811.865	29204
812.007	29166
812.148	29360
812.29	29345
812.431	29471
812.573	29684
812.714	29684
812.855	29874
812.997	29961
813.138	30098
813.279	29885
813.421	29760
813.562	29748
813.703	29585
813.845	29452
813.986	29296
814.127	29098
814.268	28984
814.41	29204
814.551	29041
814.692	29162
814.833	28953
814.974	28930
815.115	28972
815.256	29025
815.397	28873
815.539	28755
815.68	28877
815.821	28611
815.962	28896
816.103	28896
816.244	28812
816.385	28592
816.526	28592
816.666	28485
816.807	28341
816.948	28325
817.089	28379
817.23	28379
817.371	28306
817.512	28314
817.653	28367
817.793	28177
817.934	28459
818.075	28299
818.216	28360
818.356	28219
818.497	28234
818.638	28017
818.778	28109
818.919	28135
819.06	28097
819.2	28261
819.341	28333
819.481	28265
819.622	28489
819.762	28592
819.903	28618
820.043	28459
820.184	28428
820.324	28538
820.465	28497
820.605	28367
820.746	28462
820.886	28268
821.026	28470
821.167	28443
821.307	28535
821.447	28455
821.588	28409
821.728	28200
821.868	27983
822.008	27907
822.149	27983
822.289	27736
822.429	27629
822.569	27583
822.709	27523
822.849	27405
822.99	27397
823.13	27192
823.27	27237
823.41	27096
823.55	27001
823.69	27218
823.83	27112
823.97	27005
824.11	27017
824.25	26842
824.389	26895
824.529	26979
824.669	26921
824.809	27020
824.949	26967
825.089	26994
825.228	27028
825.368	26697
825.508	26887
825.648	26914
825.787	26830
825.927	26902
826.067	26804
826.206	26800
826.346	26895
826.485	26845
826.625	26746
826.765	26937
826.904	26838
827.044	26613
827.183	26644
827.323	26473
827.462	26583
827.601	26686
827.741	26663
827.88	26545
828.02	26541
828.159	26503
828.298	26499
828.437	26507
828.577	26419
828.716	26556
828.855	26526
828.994	26111
829.134	26062
829.273	26332
829.412	26134
829.551	26233
829.69	26202
829.829	26294
829.968	26164
830.107	26290
830.246	26244
830.385	26149
830.524	26187
830.663	26081
830.802	26065
830.941	25852
831.08	25727
831.219	25864
831.357	25947
831.496	26092
831.635	25890
831.774	25757
831.913	25708
832.051	25502
832.19	25658
832.329	25719
832.467	25506
832.606	25430
832.744	25354
832.883	25578
833.022	25487
833.16	25620
833.299	25460
833.437	25575
833.576	25590
833.714	25544
833.852	25594
833.991	25658
834.129	25655
834.267	25643
834.406	25647
834.544	25613
834.682	25559
834.821	25483
834.959	25727
835.097	25544
835.235	25548
835.373	25533
835.511	25643
835.65	25472
835.788	25483
835.926	25297
836.064	25232
836.202	25251
836.34	25392
836.478	25514
836.615	25422
836.753	25373
836.891	25308
837.029	25365
837.167	25392
837.305	25228
837.443	25152
837.58	25324
837.718	25194
837.856	25103
837.993	25183
838.131	25282
838.269	25152
838.406	25122
838.544	24996
838.681	24878
838.819	24802
838.956	24620
839.094	24681
839.231	24570
839.369	24878
839.506	25099
839.643	25019
839.781	24658
839.918	24566
840.055	24673
840.193	24681
840.33	24517
840.467	24612
840.604	24654
840.742	24875
840.879	24502
841.016	24365
841.153	24372
841.29	24715
841.427	24620
841.564	24639
841.701	24528
841.838	24513
841.975	24418
842.112	24559
842.249	24471
842.385	24399
842.522	24570
842.659	24380
842.796	24289
842.933	24281
843.069	24346
843.206	24308
843.343	24456
843.479	24376
843.616	24384
843.752	24144
843.889	24136
844.025	24319
844.162	24076
844.298	24095
844.435	24194
844.571	24091
844.708	24129
844.844	24254
844.98	24319
845.117	24235
845.253	24015
845.389	23912
845.525	24018
845.661	23988
845.798	23752
845.934	23870
846.07	23775
846.206	23927
846.342	24053
846.478	23821
846.614	23509
846.75	23501
846.886	23630
847.022	23562
847.158	23646
847.294	23630
847.429	23573
847.565	23539
847.701	23859
847.837	23223
847.972	23258
848.108	23288
848.244	23364
848.379	23246
848.515	23094
848.65	23200
848.786	23189
848.921	23296
849.057	23315
849.192	23113
849.328	23379
849.463	23193
849.598	23155
849.734	23052
849.869	22961
850.004	22892
850.14	22987
850.275	22968
850.41	22729
850.545	22752
850.68	22854
850.815	22816
850.95	22904
851.085	23037
851.22	23044
851.355	22809
851.49	22919
851.625	22847
851.76	22881
851.895	22809
852.03	22847
852.165	22877
852.299	22934
852.434	22858
852.569	22885
852.703	23037
852.838	22915
852.973	22984
853.107	23037
853.242	22790
853.376	22778
853.511	22664
853.645	22691
853.78	22805
853.914	22698
854.048	22675
854.183	22744
854.317	22752
854.451	23010
854.585	22805
854.72	22828
854.854	22904
854.988	22717
855.122	22641
855.256	22630
855.39	22843
855.524	22801
855.658	22656
855.792	22740
855.926	22713
856.06	22744
856.194	22850
856.327	22653
856.461	22588
856.595	22668
856.729	22816
856.862	22759
856.996	22778
857.13	22752
857.263	22896
857.397	22889
857.53	22713
857.664	22809
857.797	22767
857.931	22782
858.064	22869
858.197	22843
858.331	22710
858.464	22694
858.597	22736
858.731	22630
858.864	22767
858.997	22702
859.13	22713
859.263	22672
859.396	22702
859.529	22546
859.662	22683
859.795	22626
859.928	22679
860.061	23006
860.194	22927
860.327	22778
860.46	22805
860.592	22839
860.725	22850
860.858	22873
860.99	22618
861.123	22759
861.256	22675
861.388	22679
861.521	23421
861.653	22656
861.786	22538
861.918	22535
862.05	22653
862.183	22759
862.315	22717
862.447	22691
862.58	22687
862.712	22394
862.844	22409
862.976	22557
863.108	22504
863.24	23018
863.372	22268
863.504	22500
863.636	22375
863.768	22421
863.9	22573
864.032	22314
864.164	22310
864.296	22550
864.428	22611
864.559	22421
864.691	22538
864.823	22470
864.954	22424
865.086	22481
865.217	22295
865.349	22291
865.48	22398
865.612	22257
865.743	22382
865.875	22230
866.006	22280
866.137	22352
866.269	22295
866.4	22177
866.531	22306
866.662	22299
866.793	22158
866.924	22299
867.055	22173
867.186	22253
867.317	22238
867.448	22101
867.579	22204
867.71	22120
867.841	22200
867.972	22287
868.103	22128
868.233	22230
868.364	22363
868.495	22344
868.625	22466
868.756	22622
868.886	22344
869.017	22367
869.147	22580
869.278	22618
869.408	22519
869.539	22592
869.669	22519
869.799	22577
869.929	22573
870.06	22538
870.19	22755
870.32	22679
870.45	22896
870.58	22980
870.71	22949
870.84	22984
870.97	22987
871.1	22904
871.23	23064
871.36	23067
871.489	22957
871.619	23124
871.749	22972
871.879	22923
872.008	23185
872.138	23029
872.267	22949
872.397	23003
872.526	22953
872.656	22919
872.785	23079
872.915	23124
873.044	23151
873.173	23117
873.303	23223
873.432	23223
873.561	23311
873.69	23041
873.819	23048
873.948	23246
874.077	23044
874.206	23060
874.335	23064
874.464	23155
874.593	23398
874.722	23303
874.851	23318
874.979	23334
875.108	23402
875.237	23204
875.365	23299
875.494	23296
875.623	23280
875.751	23261
875.88	23379
876.008	23505
876.136	23535
876.265	23646
876.393	23775
876.521	23764
876.65	23802
876.778	23634
876.906	23619
877.034	23581
877.162	23672
877.29	23490
877.418	23649
877.546	23798
877.674	23764
877.802	23714
877.93	23573
878.058	23573
878.185	23516
878.313	23627
878.441	23627
878.568	23501
878.696	23680
878.824	23722
878.951	23813
879.079	23813
879.206	23992
879.333	23798
879.461	23718
879.588	23691
879.715	23802
879.842	23942
879.97	23748
880.097	23455
880.224	23474
880.351	23455
880.478	23501
880.605	23436
880.732	23452
880.859	23611
880.986	23452
881.112	23417
881.239	23372
881.366	23250
881.493	23185
881.619	23044
881.746	23022
881.872	23109
881.999	22984
882.125	22915
882.252	23022
882.378	22930
882.505	23185
882.631	22713
882.757	22637
882.883	22771
883.01	22679
883.136	22687
883.262	22611
883.388	22497
883.514	22626
883.64	22831
883.766	22645
883.892	22466
884.018	22550
884.143	22763
884.269	22641
884.395	22451
884.52	22390
884.646	22371
884.772	22147
884.897	22246
885.023	22344
885.148	22344
885.274	22561
885.399	22440
885.524	22265
885.65	22375
885.775	22348
885.9	22341
886.025	22390
886.15	22337
886.275	22207
886.4	22188
886.525	22295
886.65	22154
886.775	22188
886.9	22386
887.025	22451
887.149	22287
887.274	22124
887.399	22101
887.523	22017
887.648	22036
887.773	21926
887.897	22154
888.021	22162
888.146	21987
888.27	22112
888.395	22207
888.519	22078
888.643	22090
888.767	22154
888.891	21926
889.015	21892
889.139	21956
889.263	21869
889.387	21899
889.511	22135
889.635	21983
889.759	21819
889.883	21876
890.006	21846
890.13	22051
890.254	21789
890.377	21709
890.501	21591
890.624	21466
890.748	21675
890.871	21485
890.995	21351
891.118	21397
891.241	21439
891.364	21370
891.488	21504
891.611	21382
891.734	21439
891.857	21431
891.98	21367
892.103	21420
892.226	21412
892.349	21344
892.471	21180
892.594	21420
892.717	21351
892.839	21237
892.962	21306
893.085	21359
893.207	21302
893.33	21245
893.452	21192
893.575	21268
893.697	21321
893.819	21439
893.941	21507
894.064	21454
894.186	21230
894.308	21237
894.43	21260
894.552	21458
894.674	21294
894.796	21214
894.918	21260
895.04	21203
895.161	21275
895.283	21302
895.405	21302
895.526	21424
895.648	21302
895.769	21279
895.891	21249
896.012	21408
896.134	21176
896.255	21359
896.376	21203
896.498	21302
896.619	21275
896.74	21287
896.861	21275
896.982	21523
897.103	21663
897.224	21473
897.345	21450
897.466	21424
897.587	21534
897.708	21549
897.828	21462
897.949	21294
898.07	21298
898.19	21359
898.311	21496
898.431	21317
898.552	21511
898.672	21336
898.792	21500
898.913	21420
899.033	21447
899.153	21279
899.273	21157
899.393	21203
899.513	21237
899.633	21214
899.753	21180
899.873	21157
899.993	21226
900.113	21043
900.232	21199
900.352	21081
900.472	21028
900.591	20948
900.711	20956
900.83	20933
900.95	20956
901.069	21032
901.189	20883
901.308	20629
901.427	20530
901.546	20549
901.665	20522
901.784	20579
901.904	20431
902.023	20259
902.141	20077
902.26	20103
902.379	20081
902.498	20153
902.617	19982
902.735	20069
902.854	20016
902.973	19909
903.091	19700
903.21	19655
903.328	19575
903.446	19613
903.565	19525
903.683	19476
903.801	19403
903.919	19529
904.038	19449
904.156	19316
904.274	19206
904.392	19194
904.51	19168
904.627	19164
904.745	19259
904.863	19331
904.981	18981
905.098	18947
905.216	18958
905.334	18848
905.451	18909
905.569	18909
905.686	18916
905.803	18886
905.921	18764
906.038	18764
906.155	18673
906.272	18582
906.389	18547
906.506	18483
906.623	18551
906.74	18433
906.857	18327
906.974	18384
907.091	18403
907.208	18441
907.324	18369
907.441	18353
907.557	18213
907.674	18152
907.79	18171
907.907	18110
908.023	18129
908.139	18178
908.256	18091
908.372	18003
908.488	17999
908.604	17882
908.72	17771
908.836	17908
908.952	17741
909.068	17882
909.184	18079
909.3	17824
909.415	17855
909.531	17775
909.647	17570
909.762	17634
909.878	17532
909.993	17657
910.108	17570
910.224	17474
910.339	17501
910.454	17391
910.57	17292
910.685	17235
910.8	17547
910.915	17429
911.03	17353
911.145	17200
911.259	17117
911.374	17064
911.489	17041
911.604	16976
911.718	16805
911.833	16885
911.947	16782
912.062	16717
912.176	16824
912.291	16869
912.405	16793
912.519	17098
912.633	17071
912.748	16889
912.862	16881
912.976	16691
913.09	16459
913.204	16687
913.318	16634
913.431	16656
913.545	16748
913.659	16778
913.772	16698
913.886	16588
914	16337
914.113	16561
914.226	16615
914.34	16424
914.453	16348
914.566	16455
914.68	16325
914.793	16287
914.906	16116
915.019	16082
915.132	16010
915.245	16055
915.358	16032
915.47	15975
915.583	16002
915.696	16029
915.809	16150
915.921	16131
916.034	15960
916.146	15895
916.259	15831
916.371	15960
916.483	15835
916.595	15835
916.708	15762
916.82	15846
916.932	15770
917.044	15720
917.156	15724
917.268	15606
917.38	15759
917.491	15698
917.603	15679
917.715	15739
917.826	15724
917.938	15629
918.049	15439
918.161	15549
918.272	15698
918.384	15682
918.495	15557
918.606	15374
918.717	15359
918.828	15363
918.939	15325
919.05	15233
919.161	15344
919.272	15233
919.383	15241
919.494	15401
919.604	15538
919.715	15336
919.826	15268
919.936	15252
920.047	15317
920.157	15355
920.267	15584
920.378	15332
920.488	15313
920.598	15462
920.708	15591
920.818	15591
920.928	15367
921.038	15633
921.148	15462
921.258	15260
921.368	15226
921.477	15116
921.587	15001
921.697	14883
921.806	15043
921.916	14872
922.025	14765
922.134	14686
922.244	14689
922.353	14659
922.462	14610
922.571	14469
922.68	14305
922.789	14282
922.898	14221
923.007	14263
923.116	14358
923.224	14298
923.333	14210
923.442	14153
923.55	14180
923.659	14168
923.767	14183
923.876	14058
923.984	14214
924.092	14081
924.201	14069
924.309	14027
924.417	14096
924.525	13879
924.633	14020
924.741	15009
924.849	13772
924.956	13845
925.064	13753
925.172	13681
925.279	13712
925.387	13685
925.494	13655
925.602	13875
925.709	13693
925.816	13613
925.924	13616
926.031	13772
926.138	13639
926.245	13597
926.352	13518
926.459	13662
926.566	13696
926.673	13521
926.779	13441
926.886	13388
926.993	13316
927.099	13308
927.206	13110
927.312	13145
927.419	13145
927.525	13301
927.631	13202
927.737	13103
927.843	13137
927.95	12909
928.056	13050
928.162	13057
928.267	13061
928.373	13731
928.479	13137
928.585	12897
928.69	13034
928.796	13023
928.901	12901
929.007	12779
929.112	12863
929.218	12901
929.323	12772
929.428	12806
929.533	13008
929.638	12650
929.743	12574
929.848	12719
929.953	12669
930.058	12585
930.163	12403
930.267	12464
930.372	12475
930.477	12407
930.581	12570
930.685	12456
930.79	12289
930.894	12292
930.998	12308
931.103	12388
931.207	11977
931.311	12007
931.415	11802
931.519	11676
931.623	11688
