Data from test_V78500241_2236.txt Node
Date: Fri Mar 25 15:57:17 CST 2022
User: usil
Spectrometer: V785-0024
Trigger mode: 0
Integration Time (sec): 4.000000E-1
Scans to average: 1
Nonlinearity correction enabled: false
Boxcar width: 0
Storing dark spectrum: false
XAxis mode: Wavelengths
Number of Pixels in Spectrum: 1024
>>>>>Begin Spectral Data<<<<<
801.071	29143
801.214	29098
801.356	28877
801.499	28850
801.641	28664
801.783	28641
801.926	28801
802.068	28774
802.211	28698
802.353	28584
802.496	28508
802.638	28375
802.78	28291
802.923	28401
803.065	28348
803.208	28394
803.35	28447
803.492	28500
803.635	28645
803.777	28565
803.919	28767
804.061	29041
804.204	28748
804.346	28622
804.488	28561
804.63	28721
804.773	28527
804.915	28706
805.057	28748
805.199	28691
805.341	28672
805.483	28869
805.626	28763
805.768	28641
805.91	28946
806.052	28892
806.194	28790
806.336	29124
806.478	28904
806.62	28915
806.762	28908
806.904	29242
807.046	29318
807.188	29345
807.33	29395
807.472	29368
807.614	29315
807.756	29220
807.898	29105
808.04	29216
808.182	29071
808.324	29250
808.465	29246
808.607	29444
808.749	29474
808.891	29653
809.033	29767
809.174	29512
809.316	29531
809.458	29551
809.6	29417
809.741	29699
809.883	29676
810.025	29958
810.166	29916
810.308	29794
810.45	29748
810.591	29676
810.733	29653
810.875	29547
811.016	29543
811.158	29463
811.299	29592
811.441	29756
811.582	29790
811.724	29642
811.865	29490
812.007	29600
812.148	29722
812.29	29657
812.431	29722
812.573	30064
812.714	30239
812.855	30087
812.997	30232
813.138	30323
813.279	30247
813.421	30087
813.562	30098
813.703	29927
813.845	29859
813.986	29501
814.127	29448
814.268	29391
814.41	29277
814.551	29391
814.692	29322
814.833	29326
814.974	29334
815.115	29478
815.256	29189
815.397	29109
815.539	29124
815.68	29155
815.821	29117
815.962	29140
816.103	29128
816.244	28965
816.385	28835
816.526	28900
816.666	28649
816.807	28668
816.948	28603
817.089	28820
817.23	28687
817.371	28645
817.512	28687
817.653	28535
817.793	28557
817.934	28580
818.075	28622
818.216	28763
818.356	28611
818.497	28580
818.638	28344
818.778	28329
818.919	28478
819.06	28481
819.2	28611
819.341	28672
819.481	28641
819.622	28809
819.762	29056
819.903	28900
820.043	28828
820.184	28710
820.324	28717
820.465	28793
820.605	28740
820.746	28755
820.886	28637
821.026	28637
821.167	28641
821.307	28904
821.447	28573
821.588	28698
821.728	28424
821.868	28242
822.008	28192
822.149	28318
822.289	28200
822.429	27899
822.569	27770
822.709	27827
822.849	27781
822.99	27720
823.13	27637
823.27	27492
823.41	27622
823.55	27287
823.69	27496
823.83	27511
823.97	27485
824.11	27252
824.25	27241
824.389	27313
824.529	27450
824.669	27378
824.809	27378
824.949	27374
825.089	27310
825.228	27317
825.368	27249
825.508	27100
825.648	27241
825.787	27340
825.927	27275
826.067	27089
826.206	27047
826.346	27165
826.485	27218
826.625	27188
826.765	27279
826.904	27184
827.044	27039
827.183	27020
827.323	26777
827.462	26906
827.601	26963
827.741	26944
827.88	26864
828.02	26872
828.159	26819
828.298	26834
828.437	27055
828.577	26815
828.716	26952
828.855	26735
828.994	26701
829.134	26594
829.273	26632
829.412	26370
829.551	26453
829.69	26568
829.829	26693
829.968	26594
830.107	26594
830.246	26590
830.385	26545
830.524	26499
830.663	26339
830.802	26180
830.941	26172
831.08	26157
831.219	26210
831.357	26290
831.496	26408
831.635	26259
831.774	26088
831.913	26088
832.051	25925
832.19	25909
832.329	26065
832.467	25898
832.606	25955
832.744	25681
832.883	25818
833.022	25696
833.16	25811
833.299	25826
833.437	25864
833.576	25940
833.714	25799
833.852	26069
833.991	25955
834.129	25982
834.267	26039
834.406	25982
834.544	25974
834.682	25864
834.821	25849
834.959	26119
835.097	25780
835.235	25928
835.373	25814
835.511	25921
835.65	25868
835.788	25818
835.926	25521
836.064	25563
836.202	25567
836.34	25674
836.478	25761
836.615	25613
836.753	25742
836.891	25723
837.029	25700
837.167	25571
837.305	25712
837.443	25601
837.58	25616
837.718	25613
837.856	25514
837.993	25453
838.131	25434
838.269	25346
838.406	25556
838.544	25419
838.681	25206
838.819	25122
838.956	25107
839.094	24905
839.231	24996
839.369	25316
839.506	25434
839.643	25171
839.781	25000
839.918	25031
840.055	25046
840.193	24981
840.33	25069
840.467	24977
840.604	25038
840.742	25122
840.879	24760
841.016	24867
841.153	24840
841.29	24837
841.427	24932
841.564	24962
841.701	24859
841.838	24776
841.975	24859
842.112	24996
842.249	24787
842.385	24658
842.522	24966
842.659	24837
842.796	24730
842.933	24696
843.069	24673
843.206	24730
843.343	24654
843.479	24696
843.616	24654
843.752	24452
843.889	24490
844.025	24544
844.162	24426
844.298	24601
844.435	24528
844.571	24471
844.708	24467
844.844	24646
844.98	24479
845.117	24536
845.253	24330
845.389	24308
845.525	24330
845.661	24330
845.798	24273
845.934	24205
846.07	24083
846.206	24095
846.342	24213
846.478	24167
846.614	23999
846.75	23840
846.886	23942
847.022	24038
847.158	24076
847.294	23935
847.429	23901
847.565	23847
847.701	24076
847.837	23596
847.972	23490
848.108	23741
848.244	23638
848.379	23497
848.515	23467
848.65	23486
848.786	23459
848.921	23531
849.057	23547
849.192	23676
849.328	23482
849.463	23395
849.598	23433
849.734	23322
849.869	23277
850.004	23220
850.14	23315
850.275	23341
850.41	23143
850.545	23159
850.68	23265
850.815	23345
850.95	23155
851.085	23486
851.22	23486
851.355	23254
851.49	23299
851.625	23284
851.76	23242
851.895	23208
852.03	23307
852.165	23360
852.299	23147
852.434	23376
852.569	23284
852.703	23246
852.838	23284
852.973	23372
853.107	23349
853.242	23200
853.376	23071
853.511	22934
853.645	23124
853.78	23166
853.914	23075
854.048	23029
854.183	23075
854.317	23064
854.451	23265
854.585	23105
854.72	23075
854.854	23143
854.988	23056
855.122	23071
855.256	22847
855.39	22904
855.524	23098
855.658	23212
855.792	23044
855.926	23014
856.06	23113
856.194	23048
856.327	23075
856.461	23048
856.595	23014
856.729	22949
856.862	23140
856.996	23117
857.13	23060
857.263	23197
857.397	23227
857.53	23090
857.664	22957
857.797	23052
857.931	23261
858.064	23071
858.197	23185
858.331	22968
858.464	23143
858.597	22866
858.731	23102
858.864	22934
858.997	23086
859.13	22991
859.263	23197
859.396	23121
859.529	23132
859.662	22889
859.795	22938
859.928	22987
860.061	23193
860.194	23273
860.327	23178
860.46	23105
860.592	23220
860.725	23254
860.858	23318
860.99	23033
861.123	23048
861.256	22934
861.388	23044
861.521	23718
861.653	22915
861.786	22839
861.918	22930
862.05	22839
862.183	22873
862.315	23094
862.447	22904
862.58	22927
862.712	22706
862.844	22706
862.976	22858
863.108	22957
863.24	23223
863.372	22656
863.504	22748
863.636	22843
863.768	22782
863.9	22771
864.032	22767
864.164	22820
864.296	22763
864.428	22915
864.559	22866
864.691	22797
864.823	22725
864.954	22759
865.086	22675
865.217	22531
865.349	22428
865.48	22702
865.612	22637
865.743	22908
865.875	22615
866.006	22546
866.137	22649
866.269	22580
866.4	22611
866.531	22573
866.662	22603
866.793	22466
866.924	22489
867.055	22599
867.186	22577
867.317	22607
867.448	22447
867.579	22596
867.71	22519
867.841	22413
867.972	22599
868.103	22432
868.233	22535
868.364	22516
868.495	22592
868.625	22854
868.756	22961
868.886	22763
869.017	22763
869.147	22854
869.278	22942
869.408	22752
869.539	22904
869.669	22927
869.799	22812
869.929	22927
870.06	22835
870.19	23079
870.32	23128
870.45	23151
870.58	23170
870.71	23216
870.84	23265
870.97	23075
871.1	23235
871.23	23364
871.36	23246
871.489	23265
871.619	23345
871.749	23406
871.879	23535
872.008	23471
872.138	23368
872.267	23254
872.397	23337
872.526	23242
872.656	23174
872.785	23269
872.915	23307
873.044	23520
873.173	23410
873.303	23512
873.432	23452
873.561	23467
873.69	23368
873.819	23398
873.948	23570
874.077	23379
874.206	23341
874.335	23455
874.464	23433
874.593	23592
874.722	23501
874.851	23680
874.979	23634
875.108	23566
875.237	23642
875.365	23516
875.494	23687
875.623	23608
875.751	23638
875.88	23611
876.008	23707
876.136	23802
876.265	23977
876.393	24117
876.521	24053
876.65	24194
876.778	24026
876.906	24007
877.034	23942
877.162	23916
877.29	23885
877.418	24068
877.546	23916
877.674	23904
877.802	23961
877.93	23893
878.058	23908
878.185	23847
878.313	23824
878.441	23961
878.568	23798
878.696	23923
878.824	23958
878.951	23973
879.079	24068
879.206	24247
879.333	24015
879.461	24034
879.588	24106
879.715	24098
879.842	24114
879.97	24045
880.097	23752
880.224	23809
880.351	23764
880.478	23813
880.605	23707
880.732	23828
880.859	23866
880.986	23824
881.112	23779
881.239	23570
881.366	23379
881.493	23299
881.619	23181
881.746	23509
881.872	23383
881.999	23269
882.125	23136
882.252	23296
882.378	23311
882.505	23372
882.631	23098
882.757	22968
882.883	23090
883.01	22972
883.136	22782
883.262	22869
883.388	22805
883.514	22908
883.64	22946
883.766	22934
883.892	22710
884.018	22752
884.143	22919
884.269	22968
884.395	22706
884.52	22626
884.646	22744
884.772	22584
884.897	22618
885.023	22778
885.148	22618
885.274	22645
885.399	22683
885.524	22618
885.65	22622
885.775	22611
885.9	22542
886.025	22687
886.15	22607
886.275	22694
886.4	22535
886.525	22504
886.65	22584
886.775	22516
886.9	22603
887.025	22854
887.149	22641
887.274	22341
887.399	22322
887.523	22287
887.648	22360
887.773	22284
887.897	22432
888.021	22371
888.146	22303
888.27	22447
888.395	22405
888.519	22440
888.643	22481
888.767	22337
888.891	22344
889.015	22154
889.139	22284
889.263	22150
889.387	22333
889.511	22272
889.635	22234
889.759	22010
889.883	22006
890.006	22093
890.13	22120
890.254	21987
890.377	22162
890.501	21876
890.624	21846
890.748	21911
890.871	21728
890.995	21751
891.118	21564
891.241	21694
891.364	21690
891.488	21835
891.611	21614
891.734	21614
891.857	21732
891.98	21701
892.103	21781
892.226	21660
892.349	21557
892.471	21530
892.594	21675
892.717	21542
892.839	21656
892.962	21526
893.085	21652
893.207	21641
893.33	21435
893.452	21458
893.575	21561
893.697	21599
893.819	21759
893.941	21759
894.064	21629
894.186	21466
894.308	21439
894.43	21663
894.552	21648
894.674	21644
894.796	21424
894.918	21511
895.04	21485
895.161	21641
895.283	21610
895.405	21488
895.526	21530
895.648	21519
895.769	21408
895.891	21458
896.012	21660
896.134	21397
896.255	21553
896.376	21458
896.498	21408
896.619	21507
896.74	21587
896.861	21553
896.982	21854
897.103	21941
897.224	21816
897.345	21682
897.466	21641
897.587	21583
897.708	21854
897.828	21713
897.949	21724
898.07	21481
898.19	21682
898.311	21800
898.431	21713
898.552	21766
898.672	21770
898.792	21831
898.913	21823
899.033	21583
899.153	21488
899.273	21420
899.393	21450
899.513	21416
899.633	21382
899.753	21416
899.873	21348
899.993	21389
900.113	21374
900.232	21439
900.352	21329
900.472	21230
900.591	21272
900.711	21252
900.83	21218
900.95	21351
901.069	21344
901.189	21028
901.308	20910
901.427	20819
901.546	20792
901.665	20785
901.784	20632
901.904	20617
902.023	20564
902.141	20275
902.26	20157
902.379	20290
902.498	20275
902.617	20221
902.735	20336
902.854	20214
902.973	20199
903.091	19997
903.21	19989
903.328	19864
903.446	19712
903.565	19689
903.683	19708
903.801	19670
903.919	19639
904.038	19628
904.156	19491
904.274	19590
904.392	19415
904.51	19480
904.627	19460
904.745	19430
904.863	19518
904.981	19285
905.098	19122
905.216	19209
905.334	19209
905.451	19225
905.569	19126
905.686	19179
905.803	19190
905.921	18932
906.038	18989
906.155	18989
906.272	18798
906.389	18776
906.506	18639
906.623	18688
906.74	18616
906.857	18486
906.974	18509
907.091	18669
907.208	18795
907.324	18661
907.441	18475
907.557	18323
907.674	18308
907.79	18369
907.907	18388
908.023	18319
908.139	18388
908.256	18346
908.372	18251
908.488	18292
908.604	18087
908.72	18041
908.836	18182
908.952	18026
909.068	17958
909.184	18125
909.3	18076
909.415	18053
909.531	18114
909.647	17855
909.762	17783
909.878	17649
909.993	17691
910.108	17687
910.224	17676
910.339	17828
910.454	17592
910.57	17638
910.685	17520
910.8	17672
910.915	17642
911.03	17509
911.145	17254
911.259	17277
911.374	17273
911.489	17277
911.604	17185
911.718	16896
911.833	17212
911.947	16999
912.062	16847
912.176	17022
912.291	17079
912.405	17041
912.519	17204
912.633	17235
912.748	17083
912.862	16968
912.976	17014
913.09	16725
913.204	16828
913.318	16748
913.431	16957
913.545	16919
913.659	16976
913.772	16698
913.886	16660
914	16664
914.113	16679
914.226	16733
914.34	16748
914.453	16527
914.566	16668
914.68	16516
914.793	16512
914.906	16379
915.019	16211
915.132	16219
915.245	16246
915.358	16196
915.47	16192
915.583	16291
915.696	16242
915.809	16405
915.921	16390
916.034	16177
916.146	16051
916.259	16048
916.371	16158
916.483	16109
916.595	16040
916.708	16082
916.82	15968
916.932	15937
917.044	15953
917.156	15907
917.268	15846
917.38	15827
917.491	15888
917.603	15770
917.715	15991
917.826	15857
917.938	15705
918.049	15667
918.161	15751
918.272	15797
918.384	15922
918.495	15728
918.606	15652
918.717	15443
918.828	15545
918.939	15618
919.05	15424
919.161	15454
919.272	15325
919.383	15454
919.494	15679
919.604	15812
919.715	15473
919.826	15424
919.936	15469
920.047	15576
920.157	15507
920.267	15739
920.378	15564
920.488	15424
920.598	15713
920.708	15876
920.818	15705
920.928	15667
921.038	15732
921.148	15774
921.258	15466
921.368	15416
921.477	15230
921.587	15192
921.697	15089
921.806	15233
921.916	15062
922.025	14967
922.134	14861
922.244	14842
922.353	14979
922.462	14754
922.571	14629
922.68	14621
922.789	14545
922.898	14511
923.007	14400
923.116	14549
923.224	14492
923.333	14484
923.442	14419
923.55	14320
923.659	14393
923.767	14423
923.876	14233
923.984	14229
924.092	14126
924.201	14210
924.309	14229
924.417	14267
924.525	14065
924.633	14073
924.741	14929
924.849	13959
924.956	14016
925.064	13944
925.172	13811
925.279	13887
925.387	13906
925.494	13887
925.602	13978
925.709	13826
925.816	13719
925.924	13784
926.031	13799
926.138	13723
926.245	13944
926.352	13643
926.459	13856
926.566	13864
926.673	13636
926.779	13655
926.886	13552
926.993	13434
927.099	13441
927.206	13339
927.312	13320
927.419	13411
927.525	13346
927.631	13468
927.737	13278
927.843	13217
927.95	13190
928.056	13183
928.162	13145
928.267	13240
928.373	13822
928.479	13209
928.585	13000
928.69	13110
928.796	13164
928.901	13061
929.007	12890
929.112	13065
929.218	13008
929.323	12909
929.428	12863
929.533	12962
929.638	12871
929.743	12753
929.848	12798
929.953	12852
930.058	12764
930.163	12582
930.267	12589
930.372	12696
930.477	12460
930.581	12764
930.685	12684
930.79	12433
930.894	12532
930.998	12426
931.103	12467
931.207	12121
931.311	12117
931.415	11988
931.519	11874
931.623	11741
