Data from test_V78500241_3054.txt Node
Date: Fri Mar 25 16:02:57 CST 2022
User: usil
Spectrometer: V785-0024
Trigger mode: 0
Integration Time (sec): 4.000000E-1
Scans to average: 1
Nonlinearity correction enabled: false
Boxcar width: 0
Storing dark spectrum: false
XAxis mode: Wavelengths
Number of Pixels in Spectrum: 1024
>>>>>Begin Spectral Data<<<<<
801.071	28215
801.214	28097
801.356	27884
801.499	27812
801.641	27701
801.783	27743
801.926	27850
802.068	27701
802.211	27747
802.353	27774
802.496	27351
802.638	27462
802.78	27272
802.923	27401
803.065	27294
803.208	27176
803.35	27469
803.492	27580
803.635	27603
803.777	27485
803.919	27652
804.061	27941
804.204	27743
804.346	27561
804.488	27454
804.63	27606
804.773	27526
804.915	27816
805.057	27698
805.199	27660
805.341	27648
805.483	27698
805.626	27698
805.768	27530
805.91	27709
806.052	27926
806.194	27770
806.336	27972
806.478	27686
806.62	27766
806.762	27903
806.904	27972
807.046	28348
807.188	28181
807.33	28200
807.472	28230
807.614	28101
807.756	28196
807.898	28029
808.04	28078
808.182	28128
808.324	28086
808.465	28112
808.607	28337
808.749	28318
808.891	28596
809.033	28603
809.174	28577
809.316	28352
809.458	28504
809.6	28329
809.741	28523
809.883	28451
810.025	28672
810.166	28683
810.308	28713
810.45	28782
810.591	28611
810.733	28424
810.875	28424
811.016	28295
811.158	28322
811.299	28504
811.441	28588
811.582	28516
811.724	28478
811.865	28375
812.007	28382
812.148	28607
812.29	28493
812.431	28554
812.573	28634
812.714	28767
812.855	28881
812.997	29147
813.138	29121
813.279	28976
813.421	29037
813.562	28915
813.703	28736
813.845	28656
813.986	28344
814.127	28169
814.268	28105
814.41	28166
814.551	28169
814.692	28082
814.833	28139
814.974	28017
815.115	28032
815.256	28177
815.397	28002
815.539	27945
815.68	27857
815.821	27869
815.962	27907
816.103	27899
816.244	27804
816.385	27835
816.526	27694
816.666	27545
816.807	27382
816.948	27557
817.089	27511
817.23	27401
817.371	27294
817.512	27291
817.653	27386
817.793	27180
817.934	27313
818.075	27374
818.216	27298
818.356	27393
818.497	27211
818.638	27173
818.778	27157
818.919	27047
819.06	27165
819.2	27302
819.341	27401
819.481	27443
819.622	27564
819.762	27785
819.903	27595
820.043	27625
820.184	27599
820.324	27534
820.465	27603
820.605	27583
820.746	27500
820.886	27408
821.026	27386
821.167	27458
821.307	27481
821.447	27397
821.588	27344
821.728	27096
821.868	27100
822.008	26804
822.149	26952
822.289	26807
822.429	26583
822.569	26499
822.709	26625
822.849	26514
822.99	26404
823.13	26347
823.27	26332
823.41	26309
823.55	26195
823.69	26103
823.83	26317
823.97	26199
824.11	26050
824.25	26050
824.389	25909
824.529	26180
824.669	25982
824.809	26263
824.949	26073
825.089	26050
825.228	26005
825.368	25890
825.508	25909
825.648	25959
825.787	25784
825.927	25986
826.067	25883
826.206	25925
826.346	25997
826.485	25913
826.625	25951
826.765	25940
826.904	25982
827.044	25696
827.183	25624
827.323	25700
827.462	25651
827.601	25544
827.741	25597
827.88	25685
828.02	25529
828.159	25624
828.298	25624
828.437	25655
828.577	25548
828.716	25552
828.855	25388
828.994	25263
829.134	25236
829.273	25213
829.412	25244
829.551	25324
829.69	25175
829.829	25381
829.968	25419
830.107	25362
830.246	25304
830.385	25251
830.524	25133
830.663	25118
830.802	24935
830.941	24928
831.08	24844
831.219	24962
831.357	25008
831.496	25133
831.635	24848
831.774	24856
831.913	24772
832.051	24574
832.19	24665
832.329	24719
832.467	24494
832.606	24585
832.744	24521
832.883	24483
833.022	24475
833.16	24505
833.299	24559
833.437	24601
833.576	24627
833.714	24684
833.852	24764
833.991	24536
834.129	24722
834.267	24760
834.406	24722
834.544	24601
834.682	24566
834.821	24654
834.959	24688
835.097	24681
835.235	24677
835.373	24642
835.511	24578
835.65	24456
835.788	24384
835.926	24407
836.064	24277
836.202	24384
836.34	24513
836.478	24437
836.615	24460
836.753	24357
836.891	24547
837.029	24536
837.167	24384
837.305	24456
837.443	24289
837.58	24194
837.718	24410
837.856	24285
837.993	24155
838.131	24350
838.269	24216
838.406	24296
838.544	24133
838.681	24011
838.819	23942
838.956	23733
839.094	23718
839.231	23726
839.369	23912
839.506	24273
839.643	23916
839.781	23767
839.918	23699
840.055	23710
840.193	23745
840.33	23741
840.467	23741
840.604	23630
840.742	23824
840.879	23634
841.016	23646
841.153	23589
841.29	23832
841.427	23646
841.564	23684
841.701	23646
841.838	23531
841.975	23547
842.112	23611
842.249	23425
842.385	23562
842.522	23779
842.659	23562
842.796	23372
842.933	23444
843.069	23455
843.206	23436
843.343	23436
843.479	23395
843.616	23509
843.752	23299
843.889	23220
844.025	23383
844.162	23189
844.298	23242
844.435	23280
844.571	23155
844.708	23341
844.844	23288
844.98	23406
845.117	23311
845.253	23075
845.389	22984
845.525	23159
845.661	23037
845.798	22930
845.934	22991
846.07	22839
846.206	23010
846.342	23025
846.478	22896
846.614	22759
846.75	22630
846.886	22641
847.022	22790
847.158	22729
847.294	22698
847.429	22812
847.565	22675
847.701	22885
847.837	22421
847.972	22284
848.108	22455
848.244	22417
848.379	22261
848.515	22306
848.65	22200
848.786	22242
848.921	22268
849.057	22375
849.192	22280
849.328	22329
849.463	22223
849.598	22261
849.734	22223
849.869	22086
850.004	22109
850.14	22131
850.275	22006
850.41	21972
850.545	21884
850.68	22013
850.815	22116
850.95	22097
851.085	22090
851.22	22120
851.355	22116
851.49	22059
851.625	22090
851.76	22090
851.895	21930
852.03	21960
852.165	21998
852.299	22055
852.434	22196
852.569	22124
852.703	22051
852.838	22143
852.973	22177
853.107	22204
853.242	21934
853.376	21888
853.511	21694
853.645	21895
853.78	22082
853.914	21831
854.048	21804
854.183	21915
854.317	21922
854.451	21979
854.585	21850
854.72	21937
854.854	21968
854.988	21838
855.122	21945
855.256	21808
855.39	21823
855.524	21949
855.658	22029
855.792	21846
855.926	21892
856.06	21888
856.194	21975
856.327	21869
856.461	21850
856.595	21861
856.729	21873
856.862	21880
856.996	21922
857.13	22055
857.263	22025
857.397	22010
857.53	22006
857.664	21987
857.797	21915
857.931	21956
858.064	21915
858.197	21850
858.331	21953
858.464	21751
858.597	21846
858.731	21850
858.864	21873
858.997	21850
859.13	21934
859.263	21994
859.396	21937
859.529	21842
859.662	21899
859.795	21812
859.928	21873
860.061	21964
860.194	22006
860.327	22025
860.46	21846
860.592	22063
860.725	21960
860.858	21930
860.99	21918
861.123	21774
861.256	21789
861.388	21800
861.521	22580
861.653	21770
861.786	21690
861.918	21785
862.05	21766
862.183	21724
862.315	21823
862.447	21842
862.58	21880
862.712	21564
862.844	21530
862.976	21595
863.108	21717
863.24	22002
863.372	21530
863.504	21583
863.636	21625
863.768	21580
863.9	21728
864.032	21545
864.164	21595
864.296	21557
864.428	21675
864.559	21633
864.691	21557
864.823	21663
864.954	21587
865.086	21530
865.217	21447
865.349	21447
865.48	21428
865.612	21443
865.743	21557
865.875	21450
866.006	21245
866.137	21466
866.269	21439
866.4	21580
866.531	21473
866.662	21420
866.793	21469
866.924	21359
867.055	21454
867.186	21428
867.317	21534
867.448	21283
867.579	21389
867.71	21405
867.841	21325
867.972	21306
868.103	21355
868.233	21477
868.364	21439
868.495	21477
868.625	21667
868.756	21736
868.886	21462
869.017	21625
869.147	21819
869.278	21747
869.408	21774
869.539	21701
869.669	21724
869.799	21701
869.929	21888
870.06	21747
870.19	21907
870.32	21781
870.45	21968
870.58	21972
870.71	22143
870.84	22268
870.97	22059
871.1	22116
871.23	22192
871.36	22154
871.489	22211
871.619	22287
871.749	22116
871.879	22215
872.008	22386
872.138	22325
872.267	22234
872.397	22173
872.526	22040
872.656	22124
872.785	21968
872.915	22188
873.044	22284
873.173	22242
873.303	22318
873.432	22295
873.561	22337
873.69	22325
873.819	22318
873.948	22352
874.077	22291
874.206	22249
874.335	22284
874.464	22249
874.593	22478
874.722	22402
874.851	22523
874.979	22478
875.108	22565
875.237	22478
875.365	22386
875.494	22478
875.623	22554
875.751	22500
875.88	22615
876.008	22672
876.136	22672
876.265	22843
876.393	22991
876.521	23128
876.65	22904
876.778	22850
876.906	22850
877.034	22835
877.162	22774
877.29	22847
877.418	22896
877.546	22904
877.674	22866
877.802	22949
877.93	22812
878.058	22740
878.185	22599
878.313	22812
878.441	22839
878.568	22626
878.696	22843
878.824	22824
878.951	22961
879.079	22987
879.206	23064
879.333	22949
879.461	22991
879.588	22831
879.715	22949
879.842	23060
879.97	22968
880.097	22622
880.224	22535
880.351	22687
880.478	22615
880.605	22618
880.732	22630
880.859	22961
880.986	22649
881.112	22702
881.239	22550
881.366	22394
881.493	22344
881.619	22230
881.746	22265
881.872	22188
881.999	22192
882.125	22128
882.252	22276
882.378	22276
882.505	22246
882.631	22093
882.757	21827
882.883	21922
883.01	21991
883.136	21930
883.262	21781
883.388	21747
883.514	21895
883.64	21892
883.766	21793
883.892	21660
884.018	21808
884.143	21884
884.269	21930
884.395	21717
884.52	21599
884.646	21557
884.772	21545
884.897	21488
885.023	21682
885.148	21507
885.274	21759
885.399	21641
885.524	21641
885.65	21439
885.775	21633
885.9	21454
886.025	21572
886.15	21641
886.275	21504
886.4	21416
886.525	21519
886.65	21526
886.775	21526
886.9	21717
887.025	21766
887.149	21641
887.274	21382
887.399	21184
887.523	21222
887.648	21230
887.773	21096
887.897	21355
888.021	21317
888.146	21264
888.27	21393
888.395	21420
888.519	21340
888.643	21287
888.767	21260
888.891	21233
889.015	21070
889.139	21058
889.263	21058
889.387	21161
889.511	21332
889.635	21188
889.759	20929
889.883	21169
890.006	21036
890.13	21074
890.254	20998
890.377	21154
890.501	20773
890.624	20765
890.748	20891
890.871	20735
890.995	20682
891.118	20587
891.241	20651
891.364	20625
891.488	20785
891.611	20724
891.734	20571
891.857	20648
891.98	20701
892.103	20689
892.226	20621
892.349	20689
892.471	20484
892.594	20533
892.717	20644
892.839	20552
892.962	20552
893.085	20674
893.207	20609
893.33	20446
893.452	20469
893.575	20667
893.697	20590
893.819	20682
893.941	20762
894.064	20663
894.186	20579
894.308	20446
894.43	20659
894.552	20693
894.674	20587
894.796	20480
894.918	20484
895.04	20419
895.161	20488
895.283	20613
895.405	20507
895.526	20556
895.648	20457
895.769	20602
895.891	20575
896.012	20712
896.134	20739
896.255	20537
896.376	20507
896.498	20606
896.619	20556
896.74	20461
896.861	20533
896.982	20708
897.103	20902
897.224	20804
897.345	20811
897.466	20750
897.587	20648
897.708	20880
897.828	20670
897.949	20769
898.07	20648
898.19	20686
898.311	20777
898.431	20686
898.552	20735
898.672	20830
898.792	20838
898.913	20708
899.033	20686
899.153	20625
899.273	20400
899.393	20556
899.513	20636
899.633	20568
899.753	20549
899.873	20465
899.993	20545
900.113	20419
900.232	20518
900.352	20404
900.472	20393
900.591	20278
900.711	20434
900.83	20183
900.95	20385
901.069	20461
901.189	20180
901.308	19898
901.427	19860
901.546	19738
901.665	19818
901.784	19852
901.904	19761
902.023	19575
902.141	19358
902.26	19392
902.379	19400
902.498	19339
902.617	19327
902.735	19487
902.854	19266
902.973	19282
903.091	19042
903.21	19031
903.328	18966
903.446	18890
903.565	18852
903.683	18753
903.801	18696
903.919	18795
904.038	18681
904.156	18688
904.274	18582
904.392	18642
904.51	18513
904.627	18536
904.745	18532
904.863	18673
904.981	18475
905.098	18350
905.216	18277
905.334	18327
905.451	18296
905.569	18190
905.686	18273
905.803	18216
905.921	18087
906.038	18209
906.155	18041
906.272	17908
906.389	17923
906.506	17798
906.623	17767
906.74	17798
906.857	17680
906.974	17615
907.091	17843
907.208	17836
907.324	17748
907.441	17691
907.557	17478
907.674	17395
907.79	17497
907.907	17505
908.023	17471
908.139	17455
908.256	17467
908.372	17368
908.488	17417
908.604	17216
908.72	17216
908.836	17292
908.952	17143
909.068	17189
909.184	17269
909.3	17185
909.415	17223
909.531	17265
909.647	17094
909.762	16873
909.878	16828
909.993	16946
910.108	16854
910.224	16820
910.339	16889
910.454	16767
910.57	16706
910.685	16611
910.8	17003
910.915	16889
911.03	16767
911.145	16573
911.259	16615
911.374	16436
911.489	16394
911.604	16398
911.718	16249
911.833	16341
911.947	16135
912.062	16112
912.176	16280
912.291	16352
912.405	16356
912.519	16405
912.633	16493
912.748	16318
912.862	16196
912.976	16036
913.09	16002
913.204	16013
913.318	16150
913.431	16135
913.545	16109
913.659	16211
913.772	16036
913.886	15968
914	15880
914.113	15911
914.226	16044
914.34	15956
914.453	15705
914.566	16013
914.68	15728
914.793	15698
914.906	15500
915.019	15428
915.132	15447
915.245	15363
915.358	15553
915.47	15450
915.583	15382
915.696	15458
915.809	15549
915.921	15603
916.034	15401
916.146	15416
916.259	15378
916.371	15462
916.483	15397
916.595	15252
916.708	15321
916.82	15237
916.932	15245
917.044	15233
917.156	15245
917.268	15226
917.38	15180
917.491	15070
917.603	15051
917.715	15237
917.826	15176
917.938	15062
918.049	14918
918.161	15055
918.272	15173
918.384	15173
918.495	15081
918.606	14921
918.717	14849
918.828	14800
918.939	14963
919.05	14697
919.161	14785
919.272	14632
919.383	14655
919.494	14845
919.604	15074
919.715	14876
919.826	14739
919.936	14735
920.047	14758
920.157	14800
920.267	14967
920.378	14758
920.488	14800
920.598	14925
920.708	15070
920.818	14960
920.928	14952
921.038	15112
921.148	15055
921.258	14777
921.368	14674
921.477	14537
921.587	14514
921.697	14415
921.806	14495
921.916	14267
922.025	14210
922.134	14206
922.244	14100
922.353	14161
922.462	14164
922.571	13993
922.68	13913
922.789	13788
922.898	13830
923.007	13685
923.116	13849
923.224	13799
923.333	13746
923.442	13658
923.55	13658
923.659	13696
923.767	13727
923.876	13548
923.984	13624
924.092	13544
924.201	13480
924.309	13586
924.417	13552
924.525	13540
924.633	13468
924.741	14233
924.849	13251
924.956	13400
925.064	13194
925.172	13141
925.279	13221
925.387	13236
925.494	13293
925.602	13354
925.709	13282
925.816	13183
925.924	13168
926.031	13145
926.138	13183
926.245	13228
926.352	13122
926.459	13247
926.566	13206
926.673	13190
926.779	12947
926.886	12916
926.993	12776
927.099	12764
927.206	12753
927.312	12795
927.419	12776
927.525	12700
927.631	12852
927.737	12509
927.843	12620
927.95	12528
928.056	12642
928.162	12688
928.267	12692
928.373	13194
928.479	12696
928.585	12471
928.69	12506
928.796	12582
928.901	12445
929.007	12361
929.112	12388
929.218	12437
929.323	12410
929.428	12308
929.533	12437
929.638	12098
929.743	12254
929.848	12330
929.953	12258
930.058	12140
930.163	12030
930.267	11977
930.372	12133
930.477	11958
930.581	12114
930.685	11969
930.79	11889
930.894	11920
930.998	11878
931.103	11973
931.207	11543
931.311	11551
931.415	11395
931.519	11288
931.623	11254
