Data from test_V78500241_743.txt Node
Date: Fri Mar 25 15:46:56 CST 2022
User: usil
Spectrometer: V785-0024
Trigger mode: 0
Integration Time (sec): 4.000000E-1
Scans to average: 1
Nonlinearity correction enabled: false
Boxcar width: 0
Storing dark spectrum: false
XAxis mode: Wavelengths
Number of Pixels in Spectrum: 1024
>>>>>Begin Spectral Data<<<<<
801.071	28093
801.214	27956
801.356	27747
801.499	27530
801.641	27572
801.783	27526
801.926	27523
802.068	27564
802.211	27454
802.353	27431
802.496	27222
802.638	27241
802.78	27074
802.923	27260
803.065	27287
803.208	27112
803.35	27268
803.492	27176
803.635	27359
803.777	27313
803.919	27336
804.061	27644
804.204	27519
804.346	27279
804.488	27279
804.63	27336
804.773	27306
804.915	27344
805.057	27583
805.199	27344
805.341	27389
805.483	27412
805.626	27351
805.768	27340
805.91	27538
806.052	27462
806.194	27481
806.336	27682
806.478	27564
806.62	27583
806.762	27641
806.904	27717
807.046	28032
807.188	27857
807.33	27865
807.472	28097
807.614	27953
807.756	27987
807.898	27755
808.04	27819
808.182	27797
808.324	27762
808.465	27793
808.607	28143
808.749	28055
808.891	28306
809.033	28329
809.174	28242
809.316	28112
809.458	28261
809.6	28211
809.741	28325
809.883	28443
810.025	28561
810.166	28519
810.308	28322
810.45	28360
810.591	28333
810.733	28268
810.875	28048
811.016	28044
811.158	28181
811.299	28299
811.441	28303
811.582	28310
811.724	28139
811.865	28173
812.007	28192
812.148	28249
812.29	28097
812.431	28394
812.573	28481
812.714	28561
812.855	28717
812.997	28786
813.138	28942
813.279	28968
813.421	28736
813.562	28615
813.703	28459
813.845	28470
813.986	28169
814.127	28025
814.268	27880
814.41	27857
814.551	27907
814.692	27964
814.833	27869
814.974	27880
815.115	27816
815.256	27755
815.397	27694
815.539	27789
815.68	27698
815.821	27595
815.962	27739
816.103	27587
816.244	27564
816.385	27466
816.526	27416
816.666	27222
816.807	27127
816.948	27112
817.089	27211
817.23	27252
817.371	27302
817.512	27024
817.653	27146
817.793	27093
817.934	27188
818.075	27180
818.216	27249
818.356	27180
818.497	26990
818.638	26864
818.778	26895
818.919	26960
819.06	26914
819.2	27116
819.341	27146
819.481	27116
819.622	27321
819.762	27526
819.903	27340
820.043	27405
820.184	27298
820.324	27264
820.465	27256
820.605	27157
820.746	27298
820.886	27089
821.026	27348
821.167	27294
821.307	27260
821.447	27161
821.588	27123
821.728	26975
821.868	26773
822.008	26739
822.149	26678
822.289	26598
822.429	26457
822.569	26206
822.709	26195
822.849	26164
822.99	26054
823.13	26096
823.27	26005
823.41	26031
823.55	25860
823.69	25921
823.83	25955
823.97	25913
824.11	25776
824.25	25765
824.389	25894
824.529	25845
824.669	25769
824.809	25856
824.949	26024
825.089	26043
825.228	25731
825.368	25715
825.508	25616
825.648	25700
825.787	25753
825.927	25841
826.067	25750
826.206	25613
826.346	25685
826.485	25643
826.625	25738
826.765	25818
826.904	25772
827.044	25499
827.183	25472
827.323	25297
827.462	25563
827.601	25316
827.741	25206
827.88	25472
828.02	25301
828.159	25316
828.298	25365
828.437	25430
828.577	25213
828.716	25392
828.855	25266
828.994	25110
829.134	25118
829.273	25034
829.412	25004
829.551	25095
829.69	25240
829.829	25046
829.968	25141
830.107	25198
830.246	24954
830.385	25008
830.524	25012
830.663	24867
830.802	24795
830.941	24719
831.08	24646
831.219	24810
831.357	24840
831.496	24913
831.635	24757
831.774	24646
831.913	24532
832.051	24544
832.19	24353
832.329	24528
832.467	24330
832.606	24266
832.744	24273
832.883	24292
833.022	24281
833.16	24384
833.299	24445
833.437	24327
833.576	24437
833.714	24391
833.852	24513
833.991	24517
834.129	24475
834.267	24532
834.406	24426
834.544	24395
834.682	24494
834.821	24414
834.959	24528
835.097	24224
835.235	24426
835.373	24509
835.511	24414
835.65	24391
835.788	24270
835.926	24144
836.064	24076
836.202	24178
836.34	24235
836.478	24273
836.615	24186
836.753	24281
836.891	24380
837.029	24213
837.167	24247
837.305	24167
837.443	24144
837.58	24228
837.718	24155
837.856	24205
837.993	24064
838.131	24026
838.269	24018
838.406	23969
838.544	23889
838.681	23676
838.819	23775
838.956	23547
839.094	23497
839.231	23623
839.369	23767
839.506	23870
839.643	23824
839.781	23520
839.918	23448
840.055	23653
840.193	23516
840.33	23463
840.467	23581
840.604	23383
840.742	23722
840.879	23334
841.016	23425
841.153	23334
841.29	23589
841.427	23509
841.564	23619
841.701	23467
841.838	23296
841.975	23360
842.112	23410
842.249	23265
842.385	23269
842.522	23433
842.659	23155
842.796	23185
842.933	23265
843.069	23060
843.206	23185
843.343	23280
843.479	23208
843.616	23185
843.752	23075
843.889	22892
844.025	23208
844.162	22919
844.298	23010
844.435	23056
844.571	22892
844.708	22991
844.844	23204
844.98	23090
845.117	23029
845.253	22972
845.389	22809
845.525	22968
845.661	22725
845.798	22782
845.934	22816
846.07	22729
846.206	22645
846.342	22702
846.478	22687
846.614	22413
846.75	22474
846.886	22497
847.022	22550
847.158	22386
847.294	22413
847.429	22390
847.565	22428
847.701	22584
847.837	22268
847.972	22238
848.108	22257
848.244	22314
848.379	22124
848.515	22006
848.65	21998
848.786	21987
848.921	21953
849.057	22021
849.192	22112
849.328	22128
849.463	21953
849.598	21987
849.734	22048
849.869	21899
850.004	21903
850.14	21842
850.275	21755
850.41	21682
850.545	21774
850.68	21724
850.815	21732
850.95	21675
851.085	21964
851.22	21903
851.355	21846
851.49	21675
851.625	21774
851.76	21831
851.895	21675
852.03	21633
852.165	21842
852.299	21793
852.434	21880
852.569	21827
852.703	21892
852.838	21804
852.973	21991
853.107	21953
853.242	21660
853.376	21652
853.511	21553
853.645	21568
853.78	21629
853.914	21591
854.048	21629
854.183	21629
854.317	21667
854.451	21759
854.585	21572
854.72	21667
854.854	21583
854.988	21568
855.122	21641
855.256	21481
855.39	21614
855.524	21625
855.658	21595
855.792	21603
855.926	21587
856.06	21679
856.194	21606
856.327	21530
856.461	21625
856.595	21526
856.729	21557
856.862	21755
856.996	21701
857.13	21656
857.263	21747
857.397	21732
857.53	21629
857.664	21797
857.797	21690
857.931	21739
858.064	21762
858.197	21770
858.331	21557
858.464	21515
858.597	21538
858.731	21561
858.864	21591
858.997	21477
859.13	21599
859.263	21622
859.396	21751
859.529	21530
859.662	21534
859.795	21538
859.928	21599
860.061	21755
860.194	21846
860.327	21762
860.46	21576
860.592	21686
860.725	21759
860.858	21755
860.99	21671
861.123	21534
861.256	21481
861.388	21603
861.521	22428
861.653	21572
861.786	21412
861.918	21382
862.05	21511
862.183	21496
862.315	21587
862.447	21530
862.58	21523
862.712	21310
862.844	21336
862.976	21485
863.108	21351
863.24	21739
863.372	21142
863.504	21268
863.636	21355
863.768	21367
863.9	21211
864.032	21104
864.164	21450
864.296	21325
864.428	21450
864.559	21382
864.691	21336
864.823	21401
864.954	21306
865.086	21329
865.217	21279
865.349	21173
865.48	21291
865.612	21226
865.743	21386
865.875	21272
866.006	21116
866.137	21233
866.269	21264
866.4	21195
866.531	21203
866.662	21173
866.793	21165
866.924	21203
867.055	21085
867.186	21085
867.317	21218
867.448	21047
867.579	21013
867.71	21085
867.841	21089
867.972	21226
868.103	21268
868.233	21230
868.364	21165
868.495	21222
868.625	21298
868.756	21416
868.886	21306
869.017	21298
869.147	21439
869.278	21523
869.408	21481
869.539	21344
869.669	21530
869.799	21439
869.929	21568
870.06	21507
870.19	21698
870.32	21709
870.45	21728
870.58	21736
870.71	21789
870.84	21861
870.97	21766
871.1	21774
871.23	21949
871.36	21991
871.489	21937
871.619	21884
871.749	21972
871.879	22093
872.008	22139
872.138	21956
872.267	22051
872.397	21911
872.526	21949
872.656	21857
872.785	21770
872.915	21975
873.044	22116
873.173	22055
873.303	22120
873.432	22059
873.561	21987
873.69	22154
873.819	22021
873.948	22029
874.077	21873
874.206	21964
874.335	21960
874.464	22181
874.593	22196
874.722	22291
874.851	22204
874.979	22257
875.108	22287
875.237	22242
875.365	22196
875.494	22261
875.623	22204
875.751	22150
875.88	22211
876.008	22348
876.136	22405
876.265	22607
876.393	22679
876.521	22679
876.65	22710
876.778	22698
876.906	22474
877.034	22523
877.162	22691
877.29	22413
877.418	22622
877.546	22691
877.674	22519
877.802	22637
877.93	22561
878.058	22402
878.185	22584
878.313	22402
878.441	22485
878.568	22375
878.696	22607
878.824	22584
878.951	22607
879.079	22771
879.206	22843
879.333	22809
879.461	22588
879.588	22683
879.715	22828
879.842	22847
879.97	22557
880.097	22428
880.224	22287
880.351	22398
880.478	22405
880.605	22329
880.732	22363
880.859	22656
880.986	22325
881.112	22497
881.239	22257
881.366	22150
881.493	22025
881.619	21915
881.746	22097
881.872	22063
881.999	22029
882.125	21941
882.252	21964
882.378	21922
882.505	22036
882.631	21880
882.757	21599
882.883	21690
883.01	21660
883.136	21610
883.262	21549
883.388	21485
883.514	21747
883.64	21637
883.766	21679
883.892	21424
884.018	21466
884.143	21576
884.269	21667
884.395	21351
884.52	21260
884.646	21370
884.772	21279
884.897	21184
885.023	21370
885.148	21294
885.274	21511
885.399	21374
885.524	21173
885.65	21359
885.775	21279
885.9	21420
886.025	21348
886.15	21443
886.275	21336
886.4	21275
886.525	21230
886.65	21184
886.775	21291
886.9	21424
887.025	21435
887.149	21237
887.274	21138
887.399	21036
887.523	21039
887.648	20941
887.773	21066
887.897	21192
888.021	21161
888.146	21062
888.27	21104
888.395	21081
888.519	21093
888.643	21020
888.767	21135
888.891	20937
889.015	20872
889.139	20994
889.263	20891
889.387	20880
889.511	21074
889.635	20979
889.759	20838
889.883	20921
890.006	20830
890.13	21104
890.254	20929
890.377	20644
890.501	20473
890.624	20473
890.748	20701
890.871	20480
890.995	20317
891.118	20347
891.241	20412
891.364	20450
891.488	20655
891.611	20473
891.734	20412
891.857	20476
891.98	20461
892.103	20522
892.226	20511
892.349	20389
892.471	20290
892.594	20389
892.717	20385
892.839	20355
892.962	20366
893.085	20328
893.207	20351
893.33	20218
893.452	20142
893.575	20317
893.697	20351
893.819	20606
893.941	20533
894.064	20442
894.186	20233
894.308	20305
894.43	20370
894.552	20461
894.674	20377
894.796	20122
894.918	20290
895.04	20244
895.161	20336
895.283	20514
895.405	20286
895.526	20336
895.648	20396
895.769	20324
895.891	20366
896.012	20423
896.134	20457
896.255	20282
896.376	20313
896.498	20381
896.619	20404
896.74	20210
896.861	20533
896.982	20716
897.103	20826
897.224	20651
897.345	20533
897.466	20545
897.587	20465
897.708	20602
897.828	20613
897.949	20427
898.07	20461
898.19	20412
898.311	20606
898.431	20465
898.552	20537
898.672	20632
898.792	20667
898.913	20617
899.033	20396
899.153	20499
899.273	20214
899.393	20351
899.513	20396
899.633	20259
899.753	20301
899.873	20142
899.993	20457
900.113	20172
900.232	20290
900.352	20233
900.472	20225
900.591	19974
900.711	20039
900.83	20039
900.95	20180
901.069	20088
901.189	20065
901.308	19700
901.427	19632
901.546	19620
901.665	19700
901.784	19731
901.904	19495
902.023	19411
902.141	19217
902.26	19175
902.379	19278
902.498	19145
902.617	19110
902.735	19152
902.854	19206
902.973	19042
903.091	18905
903.21	18844
903.328	18958
903.446	18779
903.565	18692
903.683	18726
903.801	18631
903.919	18661
904.038	18608
904.156	18483
904.274	18467
904.392	18547
904.51	18540
904.627	18388
904.745	18509
904.863	18502
904.981	18235
905.098	18114
905.216	18053
905.334	18174
905.451	18163
905.569	18098
905.686	18083
905.803	18038
905.921	17859
906.038	17912
906.155	17946
906.272	17847
906.389	17874
906.506	17684
906.623	17741
906.74	17680
906.857	17345
906.974	17611
907.091	17558
907.208	17687
907.324	17775
907.441	17497
907.557	17395
907.674	17326
907.79	17307
907.907	17433
908.023	17391
908.139	17212
908.256	17280
908.372	17265
908.488	17284
908.604	17147
908.72	16946
908.836	17014
908.952	16987
909.068	17075
909.184	17273
909.3	17079
909.415	17075
909.531	17010
909.647	16824
909.762	16816
909.878	16645
909.993	16733
910.108	16793
910.224	16740
910.339	16710
910.454	16580
910.57	16565
910.685	16538
910.8	16850
910.915	16626
911.03	16550
911.145	16367
911.259	16455
911.374	16352
911.489	16375
911.604	16284
911.718	16093
911.833	16143
911.947	16044
912.062	16036
912.176	16021
912.291	16181
912.405	16120
912.519	16367
912.633	16253
912.748	16158
912.862	16124
912.976	15831
913.09	15869
913.204	15918
913.318	15918
913.431	16025
913.545	16059
913.659	15968
913.772	15865
913.886	15705
914	15732
914.113	15804
914.226	15915
914.34	15747
914.453	15713
914.566	15819
914.68	15584
914.793	15568
914.906	15393
915.019	15344
915.132	15344
915.245	15348
915.358	15260
915.47	15389
915.583	15340
915.696	15279
915.809	15393
915.921	15488
916.034	15245
916.146	15199
916.259	15127
916.371	15336
916.483	15283
916.595	15142
916.708	15150
916.82	15188
916.932	15047
917.044	15093
917.156	15005
917.268	14963
917.38	14994
917.491	14956
917.603	14941
917.715	14910
917.826	15051
917.938	14887
918.049	14800
918.161	14971
918.272	15108
918.384	14975
918.495	14921
918.606	14788
918.717	14670
918.828	14792
918.939	14705
919.05	14667
919.161	14712
919.272	14465
919.383	14602
919.494	14758
919.604	14933
919.715	14636
919.826	14632
919.936	14659
920.047	14781
920.157	14712
920.267	14864
920.378	14651
920.488	14625
920.598	14811
920.708	14918
920.818	14834
920.928	14781
921.038	14914
921.148	14982
921.258	14526
921.368	14537
921.477	14499
921.587	14351
921.697	14324
921.806	14385
921.916	14286
922.025	14176
922.134	14008
922.244	13947
922.353	14153
922.462	13925
922.571	13932
922.68	13727
922.789	13731
922.898	13784
923.007	13696
923.116	13704
923.224	13681
923.333	13639
923.442	13578
923.55	13510
923.659	13502
923.767	13575
923.876	13430
923.984	13594
924.092	13324
924.201	13510
924.309	13457
924.417	13460
924.525	13430
924.633	13392
924.741	14301
924.849	13160
924.956	13285
925.064	13198
925.172	13031
925.279	13099
925.387	13080
925.494	13202
925.602	13255
925.709	13137
925.816	12928
925.924	13065
926.031	13088
926.138	13103
926.245	13088
926.352	12916
926.459	13061
926.566	13129
926.673	12875
926.779	12867
926.886	12871
926.993	12684
927.099	12631
927.206	12631
927.312	12658
927.419	12787
927.525	12711
927.631	12772
927.737	12513
927.843	12540
927.95	12342
928.056	12479
928.162	12509
928.267	12506
928.373	13285
928.479	12540
928.585	12342
928.69	12486
928.796	12460
928.901	12353
929.007	12285
929.112	12391
929.218	12380
929.323	12224
929.428	12209
929.533	12414
929.638	12129
929.743	12144
929.848	12133
929.953	12095
930.058	12057
930.163	11942
930.267	11988
930.372	12060
930.477	11817
930.581	12087
930.685	11969
930.79	11752
930.894	11805
930.998	11786
931.103	11851
931.207	11509
931.311	11398
931.415	11379
931.519	11174
931.623	11121
