Data from test_V78500241_1408.txt Node
Date: Fri Mar 25 15:51:33 CST 2022
User: usil
Spectrometer: V785-0024
Trigger mode: 0
Integration Time (sec): 4.000000E-1
Scans to average: 1
Nonlinearity correction enabled: false
Boxcar width: 0
Storing dark spectrum: false
XAxis mode: Wavelengths
Number of Pixels in Spectrum: 1024
>>>>>Begin Spectral Data<<<<<
801.071	27755
801.214	27747
801.356	27412
801.499	27488
801.641	27096
801.783	27359
801.926	27275
802.068	27192
802.211	27176
802.353	27146
802.496	27028
802.638	26845
802.78	26956
802.923	26834
803.065	26800
803.208	26845
803.35	26918
803.492	26986
803.635	27146
803.777	26979
803.919	27066
804.061	27424
804.204	27195
804.346	27093
804.488	27009
804.63	27081
804.773	27024
804.915	27146
805.057	27401
805.199	27199
805.341	27302
805.483	27348
805.626	27237
805.768	27165
805.91	27313
806.052	27332
806.194	27165
806.336	27431
806.478	27374
806.62	27313
806.762	27382
806.904	27576
807.046	27774
807.188	27705
807.33	27675
807.472	27766
807.614	27583
807.756	27728
807.898	27534
808.04	27515
808.182	27530
808.324	27481
808.465	27393
808.607	27827
808.749	27964
808.891	27953
809.033	28067
809.174	27994
809.316	27960
809.458	27918
809.6	27930
809.741	28051
809.883	28147
810.025	28162
810.166	28078
810.308	28211
810.45	28181
810.591	28059
810.733	27979
810.875	27838
811.016	27709
811.158	27728
811.299	27968
811.441	28006
811.582	28036
811.724	27918
811.865	27800
812.007	27823
812.148	27667
812.29	27869
812.431	27949
812.573	28029
812.714	28325
812.855	28519
812.997	28478
813.138	28706
813.279	28367
813.421	28443
813.562	28363
813.703	28337
813.845	28162
813.986	27861
814.127	27587
814.268	27675
814.41	27587
814.551	27599
814.692	27622
814.833	27564
814.974	27599
815.115	27473
815.256	27389
815.397	27454
815.539	27458
815.68	27355
815.821	27351
815.962	27214
816.103	27325
816.244	27264
816.385	27043
816.526	27207
816.666	27085
816.807	26762
816.948	26826
817.089	26937
817.23	26963
817.371	27020
817.512	26750
817.653	26906
817.793	26849
817.934	26659
818.075	26830
818.216	26819
818.356	26876
818.497	26625
818.638	26511
818.778	26682
818.919	26537
819.06	26568
819.2	26712
819.341	26811
819.481	26834
819.622	27017
819.762	27256
819.903	27013
820.043	27085
820.184	27096
820.324	26925
820.465	27001
820.605	26940
820.746	27096
820.886	26830
821.026	26994
821.167	26937
821.307	26899
821.447	26853
821.588	26849
821.728	26727
821.868	26480
822.008	26244
822.149	26332
822.289	26362
822.429	26103
822.569	25883
822.709	26035
822.849	25776
822.99	25818
823.13	25761
823.27	25742
823.41	25681
823.55	25651
823.69	25613
823.83	25643
823.97	25571
824.11	25384
824.25	25476
824.389	25529
824.529	25575
824.669	25453
824.809	25594
824.949	25594
825.089	25403
825.228	25556
825.368	25187
825.508	25259
825.648	25502
825.787	25263
825.927	25464
826.067	25434
826.206	25259
826.346	25381
826.485	25403
826.625	25312
826.765	25365
826.904	25335
827.044	25038
827.183	24954
827.323	24913
827.462	25156
827.601	24996
827.741	24996
827.88	25015
828.02	24920
828.159	25000
828.298	25122
828.437	25091
828.577	25061
828.716	25099
828.855	24871
828.994	24749
829.134	24741
829.273	24772
829.412	24760
829.551	24597
829.69	24627
829.829	24661
829.968	24787
830.107	24779
830.246	24707
830.385	24563
830.524	24505
830.663	24589
830.802	24494
830.941	24270
831.08	24251
831.219	24369
831.357	24403
831.496	24601
831.635	24369
831.774	24308
831.913	24159
832.051	24083
832.19	24079
832.329	24136
832.467	24110
832.606	23878
832.744	24095
832.883	24121
833.022	23889
833.16	23946
833.299	24121
833.437	24026
833.576	24083
833.714	23999
833.852	24038
833.991	24213
834.129	24194
834.267	24117
834.406	24041
834.544	24064
834.682	24148
834.821	24045
834.959	24228
835.097	24129
835.235	23999
835.373	24022
835.511	24030
835.65	23984
835.788	23950
835.926	23748
836.064	23707
836.202	23737
836.34	23821
836.478	24003
836.615	23836
836.753	23935
836.891	23885
837.029	24057
837.167	23874
837.305	23722
837.443	23649
837.58	23783
837.718	23885
837.856	23703
837.993	23646
838.131	23726
838.269	23672
838.406	23729
838.544	23634
838.681	23307
838.819	23379
838.956	23166
839.094	23273
839.231	23223
839.369	23349
839.506	23539
839.643	23452
839.781	23242
839.918	23113
840.055	23220
840.193	23178
840.33	23060
840.467	23162
840.604	23181
840.742	23509
840.879	23037
841.016	23143
841.153	23006
841.29	23212
841.427	23105
841.564	23178
841.701	23147
841.838	22976
841.975	22934
842.112	23033
842.249	22869
842.385	22847
842.522	23086
842.659	22942
842.796	22877
842.933	22847
843.069	22869
843.206	22885
843.343	22949
843.479	22839
843.616	22869
843.752	22660
843.889	22782
844.025	22778
844.162	22664
844.298	22767
844.435	22637
844.571	22615
844.708	22611
844.844	22809
844.98	22790
845.117	22729
845.253	22497
845.389	22428
845.525	22565
845.661	22538
845.798	22474
845.934	22379
846.07	22398
846.206	22432
846.342	22455
846.478	22310
846.614	22207
846.75	22017
846.886	22150
847.022	22166
847.158	22120
847.294	22097
847.429	22177
847.565	22006
847.701	22421
847.837	21823
847.972	21812
848.108	21945
848.244	21857
848.379	21835
848.515	21720
848.65	21682
848.786	21656
848.921	21705
849.057	21846
849.192	21743
849.328	21736
849.463	21762
849.598	21618
849.734	21526
849.869	21629
850.004	21492
850.14	21534
850.275	21492
850.41	21256
850.545	21405
850.68	21439
850.815	21458
850.95	21481
851.085	21686
851.22	21644
851.355	21492
851.49	21481
851.625	21469
851.76	21564
851.895	21336
852.03	21367
852.165	21591
852.299	21580
852.434	21545
852.569	21488
852.703	21363
852.838	21477
852.973	21481
853.107	21557
853.242	21408
853.376	21298
853.511	21230
853.645	21192
853.78	21279
853.914	21367
854.048	21363
854.183	21344
854.317	21272
854.451	21485
854.585	21367
854.72	21180
854.854	21405
854.988	21287
855.122	21207
855.256	21207
855.39	21313
855.524	21325
855.658	21291
855.792	21359
855.926	21313
856.06	21340
856.194	21264
856.327	21233
856.461	21230
856.595	21211
856.729	21317
856.862	21370
856.996	21256
857.13	21237
857.263	21405
857.397	21321
857.53	21298
857.664	21401
857.797	21275
857.931	21386
858.064	21325
858.197	21382
858.331	21260
858.464	21340
858.597	21165
858.731	21435
858.864	21241
858.997	21165
859.13	21287
859.263	21218
859.396	21359
859.529	21260
859.662	21184
859.795	21233
859.928	21203
860.061	21492
860.194	21485
860.327	21264
860.46	21268
860.592	21393
860.725	21458
860.858	21313
860.99	21389
861.123	21249
861.256	21226
861.388	21291
861.521	21907
861.653	21135
861.786	21226
861.918	21127
862.05	21131
862.183	21241
862.315	21272
862.447	21241
862.58	21256
862.712	21074
862.844	20906
862.976	21013
863.108	21066
863.24	21435
863.372	20899
863.504	20845
863.636	20921
863.768	21062
863.9	20944
864.032	20967
864.164	20925
864.296	21146
864.428	21058
864.559	21032
864.691	20986
864.823	20986
864.954	20876
865.086	20971
865.217	20880
865.349	20632
865.48	20906
865.612	20921
865.743	20979
865.875	20967
866.006	20952
866.137	20925
866.269	20876
866.4	20811
866.531	20872
866.662	20769
866.793	20785
866.924	20834
867.055	20872
867.186	20845
867.317	20861
867.448	20735
867.579	20845
867.71	20785
867.841	20712
867.972	20887
868.103	20910
868.233	20842
868.364	20739
868.495	20876
868.625	21138
868.756	21222
868.886	21066
869.017	21074
869.147	21112
869.278	21176
869.408	21123
869.539	21039
869.669	21165
869.799	21188
869.929	21192
870.06	21150
870.19	21386
870.32	21211
870.45	21393
870.58	21443
870.71	21473
870.84	21492
870.97	21439
871.1	21561
871.23	21648
871.36	21587
871.489	21496
871.619	21686
871.749	21724
871.879	21781
872.008	21770
872.138	21713
872.267	21542
872.397	21473
872.526	21507
872.656	21466
872.785	21618
872.915	21606
873.044	21766
873.173	21644
873.303	21739
873.432	21698
873.561	21755
873.69	21755
873.819	21736
873.948	21789
874.077	21720
874.206	21648
874.335	21774
874.464	21785
874.593	21926
874.722	21937
874.851	21880
874.979	21903
875.108	21949
875.237	21899
875.365	21857
875.494	21934
875.623	21907
875.751	21861
875.88	21972
876.008	22067
876.136	22109
876.265	22375
876.393	22436
876.521	22375
876.65	22466
876.778	22348
876.906	22356
877.034	22344
877.162	22325
877.29	22253
877.418	22363
877.546	22268
877.674	22238
877.802	22356
877.93	22265
878.058	22215
878.185	22101
878.313	22196
878.441	22226
878.568	22169
878.696	22276
878.824	22344
878.951	22375
879.079	22462
879.206	22649
879.333	22390
879.461	22417
879.588	22386
879.715	22516
879.842	22569
879.97	22436
880.097	22105
880.224	22147
880.351	22051
880.478	22150
880.605	22017
880.732	22105
880.859	22367
880.986	22101
881.112	22090
881.239	22025
881.366	21838
881.493	21778
881.619	21595
881.746	21762
881.872	21743
881.999	21648
882.125	21644
882.252	21835
882.378	21755
882.505	21778
882.631	21599
882.757	21447
882.883	21511
883.01	21443
883.136	21405
883.262	21351
883.388	21298
883.514	21313
883.64	21348
883.766	21344
883.892	21116
884.018	21116
884.143	21260
884.269	21481
884.395	21169
884.52	21066
884.646	21138
884.772	20823
884.897	20998
885.023	21081
885.148	21233
885.274	21176
885.399	21173
885.524	21062
885.65	21043
885.775	21055
885.9	21009
886.025	21142
886.15	21085
886.275	20967
886.4	20944
886.525	20979
886.65	20876
886.775	20906
886.9	21077
887.025	21272
887.149	20971
887.274	20811
887.399	20796
887.523	20849
887.648	20693
887.773	20651
887.897	20956
888.021	20952
888.146	20735
888.27	20998
888.395	20921
888.519	20838
888.643	20792
888.767	20746
888.891	20686
889.015	20545
889.139	20640
889.263	20587
889.387	20746
889.511	20773
889.635	20716
889.759	20484
889.883	20632
890.006	20640
890.13	20785
890.254	20507
890.377	20480
890.501	20351
890.624	20362
890.748	20423
890.871	20218
890.995	20096
891.118	20134
891.241	20157
891.364	20126
891.488	20252
891.611	20096
891.734	20248
891.857	20336
891.98	20199
892.103	20256
892.226	20176
892.349	20100
892.471	19936
892.594	20092
892.717	20126
892.839	20073
892.962	20054
893.085	20096
893.207	20016
893.33	19883
893.452	20027
893.575	20096
893.697	20039
893.819	20058
893.941	20214
894.064	20149
894.186	20024
894.308	19963
894.43	20225
894.552	20278
894.674	20115
894.796	19982
894.918	19970
895.04	20043
895.161	20100
895.283	20062
895.405	19963
895.526	20050
895.648	20012
895.769	20153
895.891	20050
896.012	20046
896.134	20065
896.255	20191
896.376	20103
896.498	20027
896.619	20073
896.74	20142
896.861	20168
896.982	20488
897.103	20423
897.224	20252
897.345	20183
897.466	20221
897.587	20259
897.708	20442
897.828	20393
897.949	20256
898.07	20100
898.19	20172
898.311	20419
898.431	20271
898.552	20199
898.672	20301
898.792	20427
898.913	20305
899.033	20187
899.153	20065
899.273	19932
899.393	19970
899.513	20084
899.633	20016
899.753	20043
899.873	19986
899.993	20073
900.113	19917
900.232	19959
900.352	19967
900.472	19890
900.591	19791
900.711	19898
900.83	19772
900.95	19913
901.069	19963
901.189	19734
901.308	19510
901.427	19369
901.546	19392
901.665	19392
901.784	19540
901.904	19419
902.023	19244
902.141	19012
902.26	18928
902.379	18970
902.498	18817
902.617	18943
902.735	18932
902.854	18897
902.973	18833
903.091	18616
903.21	18616
903.328	18646
903.446	18475
903.565	18422
903.683	18418
903.801	18300
903.919	18327
904.038	18228
904.156	18110
904.274	18266
904.392	18136
904.51	18117
904.627	18049
904.745	18262
904.863	18171
904.981	17984
905.098	17786
905.216	17870
905.334	17901
905.451	17828
905.569	17729
905.686	17832
905.803	17779
905.921	17566
906.038	17764
906.155	17710
906.272	17493
906.389	17611
906.506	17414
906.623	17406
906.74	17421
906.857	17299
906.974	17299
907.091	17509
907.208	17349
907.324	17341
907.441	17284
907.557	17086
907.674	17056
907.79	17071
907.907	17014
908.023	17071
908.139	17018
908.256	16976
908.372	16999
908.488	16900
908.604	16835
908.72	16748
908.836	16869
908.952	16702
909.068	16771
909.184	16862
909.3	16892
909.415	16801
909.531	16797
909.647	16687
909.762	16611
909.878	16443
909.993	16558
910.108	16481
910.224	16455
910.339	16447
910.454	16337
910.57	16333
910.685	16253
910.8	16497
910.915	16508
911.03	16405
911.145	16120
911.259	16204
911.374	16051
911.489	16071
911.604	15854
911.718	15812
911.833	15880
911.947	15759
912.062	15675
912.176	15747
912.291	15907
912.405	15888
912.519	16093
912.633	15956
912.748	15892
912.862	15812
912.976	15671
913.09	15526
913.204	15656
913.318	15679
913.431	15720
913.545	15770
913.659	15675
913.772	15553
913.886	15530
914	15545
914.113	15656
914.226	15568
914.34	15557
914.453	15317
914.566	15458
914.68	15348
914.793	15329
914.906	15135
915.019	15180
915.132	15013
915.245	15127
915.358	15081
915.47	15013
915.583	14971
915.696	14963
915.809	15108
915.921	15287
916.034	14979
916.146	14956
916.259	14925
916.371	15013
916.483	14960
916.595	14941
916.708	14891
916.82	14891
916.932	14762
917.044	14880
917.156	14868
917.268	14693
917.38	14689
917.491	14727
917.603	14746
917.715	14750
917.826	14804
917.938	14708
918.049	14484
918.161	14724
918.272	14750
918.384	14819
918.495	14625
918.606	14488
918.717	14469
918.828	14533
918.939	14560
919.05	14347
919.161	14454
919.272	14305
919.383	14328
919.494	14530
919.604	14777
919.715	14526
919.826	14370
919.936	14385
920.047	14632
920.157	14389
920.267	14423
920.378	14404
920.488	14469
920.598	14549
920.708	14853
920.818	14541
920.928	14564
921.038	14743
921.148	14655
921.258	14408
921.368	14320
921.477	14267
921.587	14138
921.697	14054
921.806	14168
921.916	14077
922.025	13944
922.134	13841
922.244	13761
922.353	13814
922.462	13791
922.571	13559
922.68	13491
922.789	13430
922.898	13506
923.007	13384
923.116	13514
923.224	13396
923.333	13343
923.442	13331
923.55	13369
923.659	13354
923.767	13365
923.876	13244
923.984	13369
924.092	13228
924.201	13266
924.309	13202
924.417	13190
924.525	13164
924.633	13217
924.741	13925
924.849	12958
924.956	13080
925.064	12920
925.172	12878
925.279	12913
925.387	13038
925.494	12897
925.602	13023
925.709	12905
925.816	12753
925.924	12817
926.031	12840
926.138	12821
926.245	12928
926.352	12707
926.459	12814
926.566	12928
926.673	12696
926.779	12654
926.886	12570
926.993	12544
927.099	12433
927.206	12391
927.312	12353
927.419	12494
927.525	12395
927.631	12475
927.737	12315
927.843	12361
927.95	12125
928.056	12273
928.162	12372
928.267	12273
928.373	12856
928.479	12399
928.585	12060
928.69	12209
928.796	12190
928.901	12083
929.007	12022
929.112	12194
929.218	12140
929.323	11996
929.428	11973
929.533	12178
929.638	11973
929.743	11920
929.848	11969
929.953	11954
930.058	11824
930.163	11665
930.267	11703
930.372	11809
930.477	11672
930.581	11805
930.685	11756
930.79	11589
930.894	11566
930.998	11615
931.103	11672
931.207	11345
931.311	11242
931.415	11151
931.519	10923
931.623	10980
