Data from test_V78500241_1722.txt Node
Date: Fri Mar 25 15:53:43 CST 2022
User: usil
Spectrometer: V785-0024
Trigger mode: 0
Integration Time (sec): 4.000000E-1
Scans to average: 1
Nonlinearity correction enabled: false
Boxcar width: 0
Storing dark spectrum: false
XAxis mode: Wavelengths
Number of Pixels in Spectrum: 1024
>>>>>Begin Spectral Data<<<<<
801.071	28394
801.214	28284
801.356	28082
801.499	28010
801.641	27911
801.783	27804
801.926	28067
802.068	27861
802.211	27751
802.353	27736
802.496	27576
802.638	27610
802.78	27378
802.923	27667
803.065	27485
803.208	27557
803.35	27618
803.492	27804
803.635	27804
803.777	27660
803.919	27857
804.061	28120
804.204	27873
804.346	27694
804.488	27682
804.63	27709
804.773	27694
804.915	27854
805.057	27823
805.199	27857
805.341	27941
805.483	27934
805.626	27998
805.768	27857
805.91	27907
806.052	27937
806.194	27751
806.336	28207
806.478	27991
806.62	27922
806.762	28128
806.904	28120
807.046	28371
807.188	28375
807.33	28352
807.472	28470
807.614	28379
807.756	28344
807.898	28329
808.04	28185
808.182	28219
808.324	28287
808.465	28337
808.607	28630
808.749	28554
808.891	28698
809.033	28881
809.174	28786
809.316	28641
809.458	28664
809.6	28462
809.741	28694
809.883	28721
810.025	29003
810.166	28915
810.308	28961
810.45	28904
810.591	28930
810.733	28691
810.875	28790
811.016	28656
811.158	28603
811.299	28763
811.441	28805
811.582	28778
811.724	28679
811.865	28698
812.007	28615
812.148	28679
812.29	28729
812.431	28725
812.573	29071
812.714	29143
812.855	29170
812.997	29311
813.138	29543
813.279	29208
813.421	29242
813.562	29117
813.703	28976
813.845	28984
813.986	28656
814.127	28432
814.268	28325
814.41	28398
814.551	28459
814.692	28440
814.833	28348
814.974	28314
815.115	28405
815.256	28128
815.397	28325
815.539	28192
815.68	28253
815.821	28139
815.962	28238
816.103	28169
816.244	28013
816.385	27899
816.526	27865
816.666	27793
816.807	27778
816.948	27751
817.089	27690
817.23	27804
817.371	27743
817.512	27599
817.653	27728
817.793	27629
817.934	27629
818.075	27694
818.216	27682
818.356	27637
818.497	27389
818.638	27298
818.778	27397
818.919	27378
819.06	27481
819.2	27637
819.341	27576
819.481	27743
819.622	27629
819.762	28002
819.903	27823
820.043	27895
820.184	27819
820.324	27781
820.465	27720
820.605	27713
820.746	27831
820.886	27625
821.026	27652
821.167	27709
821.307	27888
821.447	27789
821.588	27644
821.728	27393
821.868	27370
822.008	27138
822.149	27043
822.289	27150
822.429	26910
822.569	26758
822.709	26838
822.849	26659
822.99	26853
823.13	26522
823.27	26571
823.41	26465
823.55	26324
823.69	26351
823.83	26450
823.97	26434
824.11	26202
824.25	26191
824.389	26301
824.529	26259
824.669	26313
824.809	26298
824.949	26366
825.089	26301
825.228	26278
825.368	26134
825.508	26237
825.648	26172
825.787	26168
825.927	26199
826.067	26134
826.206	26176
826.346	26210
826.485	26237
826.625	26035
826.765	26142
826.904	26202
827.044	25963
827.183	26008
827.323	25765
827.462	25986
827.601	25909
827.741	25909
827.88	25830
828.02	25803
828.159	25917
828.298	25742
828.437	25936
828.577	25784
828.716	25951
828.855	25750
828.994	25609
829.134	25476
829.273	25578
829.412	25601
829.551	25544
829.69	25567
829.829	25556
829.968	25601
830.107	25620
830.246	25731
830.385	25487
830.524	25472
830.663	25350
830.802	25377
830.941	25194
831.08	25145
831.219	25183
831.357	25217
831.496	25251
831.635	25114
831.774	25133
831.913	25122
832.051	24951
832.19	24867
832.329	24909
832.467	24901
832.606	24802
832.744	24867
832.883	24802
833.022	24715
833.16	24665
833.299	24837
833.437	24913
833.576	24916
833.714	24863
833.852	25050
833.991	24970
834.129	24783
834.267	24890
834.406	24939
834.544	24859
834.682	25080
834.821	24894
834.959	24939
835.097	24935
835.235	25023
835.373	24890
835.511	24909
835.65	24635
835.788	24707
835.926	24639
836.064	24532
836.202	24429
836.34	24661
836.478	24825
836.615	24700
836.753	24779
836.891	24764
837.029	24844
837.167	24661
837.305	24654
837.443	24513
837.58	24464
837.718	24639
837.856	24684
837.993	24494
838.131	24467
838.269	24380
838.406	24494
838.544	24361
838.681	24129
838.819	24159
838.956	23977
839.094	24011
839.231	23988
839.369	24182
839.506	24357
839.643	24251
839.781	24026
839.918	23908
840.055	23923
840.193	23988
840.33	23935
840.467	23889
840.604	24053
840.742	24190
840.879	23916
841.016	23885
841.153	23775
841.29	23920
841.427	23969
841.564	23847
841.701	24003
841.838	23786
841.975	23893
842.112	23855
842.249	23756
842.385	23680
842.522	23832
842.659	23668
842.796	23600
842.933	23760
843.069	23642
843.206	23680
843.343	23805
843.479	23783
843.616	23570
843.752	23448
843.889	23467
844.025	23661
844.162	23410
844.298	23619
844.435	23448
844.571	23410
844.708	23421
844.844	23710
844.98	23630
845.117	23505
845.253	23303
845.389	23334
845.525	23376
845.661	23444
845.798	23250
845.934	23174
846.07	23178
846.206	23258
846.342	23349
846.478	23208
846.614	23018
846.75	22911
846.886	22885
847.022	22934
847.158	22972
847.294	22892
847.429	22987
847.565	22873
847.701	23159
847.837	22679
847.972	22588
848.108	22778
848.244	22805
848.379	22550
848.515	22546
848.65	22481
848.786	22672
848.921	22519
849.057	22622
849.192	22432
849.328	22554
849.463	22523
849.598	22474
849.734	22493
849.869	22265
850.004	22348
850.14	22322
850.275	22242
850.41	22284
850.545	22280
850.68	22093
850.815	22341
850.95	22287
851.085	22462
851.22	22314
851.355	22291
851.49	22276
851.625	22333
851.76	22219
851.895	22158
852.03	22116
852.165	22257
852.299	22223
852.434	22417
852.569	22318
852.703	22223
852.838	22356
852.973	22405
853.107	22459
853.242	22287
853.376	22131
853.511	22090
853.645	22158
853.78	22185
853.914	22158
854.048	22063
854.183	22017
854.317	22074
854.451	22268
854.585	22109
854.72	22109
854.854	22154
854.988	21975
855.122	22025
855.256	21941
855.39	22147
855.524	22166
855.658	22070
855.792	22131
855.926	22078
856.06	22185
856.194	22124
856.327	22070
856.461	21994
856.595	22128
856.729	22002
856.862	22143
856.996	22211
857.13	22090
857.263	22303
857.397	22226
857.53	22150
857.664	22078
857.797	22124
857.931	22158
858.064	22185
858.197	22078
858.331	22097
858.464	22036
858.597	21949
858.731	22101
858.864	22067
858.997	22131
859.13	22128
859.263	22063
859.396	22006
859.529	22036
859.662	22109
859.795	22055
859.928	22124
860.061	22314
860.194	22242
860.327	22048
860.46	22086
860.592	22139
860.725	22284
860.858	22173
860.99	22109
861.123	22082
861.256	21956
861.388	22078
861.521	22793
861.653	21991
861.786	21869
861.918	21892
862.05	22051
862.183	21945
862.315	22059
862.447	22082
862.58	21953
862.712	21831
862.844	21800
862.976	21873
863.108	21770
863.24	22173
863.372	21800
863.504	21835
863.636	21846
863.768	21778
863.9	21941
864.032	21625
864.164	21641
864.296	21808
864.428	21979
864.559	21819
864.691	21876
864.823	21781
864.954	21724
865.086	21747
865.217	21637
865.349	21587
865.48	21660
865.612	21682
865.743	21850
865.875	21682
866.006	21587
866.137	21591
866.269	21614
866.4	21625
866.531	21591
866.662	21545
866.793	21656
866.924	21656
867.055	21698
867.186	21648
867.317	21545
867.448	21492
867.579	21591
867.71	21526
867.841	21641
867.972	21587
868.103	21568
868.233	21610
868.364	21538
868.495	21800
868.625	21869
868.756	21915
868.886	21667
869.017	21846
869.147	21915
869.278	21880
869.408	21918
869.539	21857
869.669	21911
869.799	21884
869.929	21918
870.06	21907
870.19	22067
870.32	22059
870.45	22120
870.58	22169
870.71	22497
870.84	22394
870.97	22303
871.1	22265
871.23	22489
871.36	22394
871.489	22356
871.619	22485
871.749	22470
871.879	22459
872.008	22550
872.138	22622
872.267	22500
872.397	22280
872.526	22226
872.656	22363
872.785	22177
872.915	22379
873.044	22478
873.173	22546
873.303	22592
873.432	22481
873.561	22554
873.69	22451
873.819	22356
873.948	22687
874.077	22580
874.206	22356
874.335	22451
874.464	22649
874.593	22759
874.722	22675
874.851	22615
874.979	22717
875.108	22759
875.237	22641
875.365	22554
875.494	22649
875.623	22866
875.751	22634
875.88	22729
876.008	22672
876.136	22843
876.265	23075
876.393	23235
876.521	23075
876.65	23185
876.778	23147
876.906	22995
877.034	22961
877.162	23064
877.29	22968
877.418	22984
877.546	23014
877.674	22968
877.802	23033
877.93	23014
878.058	22965
878.185	22847
878.313	23037
878.441	22946
878.568	22862
878.696	22957
878.824	23083
878.951	22991
879.079	23166
879.206	23376
879.333	23174
879.461	23162
879.588	23124
879.715	23178
879.842	23277
879.97	23075
880.097	22778
880.224	22790
880.351	22843
880.478	22774
880.605	22782
880.732	22965
880.859	23044
880.986	22854
881.112	22946
881.239	22713
881.366	22611
881.493	22615
881.619	22314
881.746	22424
881.872	22455
881.999	22489
882.125	22238
882.252	22447
882.378	22371
882.505	22508
882.631	22192
882.757	22150
882.883	22238
883.01	22040
883.136	22006
883.262	22048
883.388	21842
883.514	22055
883.64	22154
883.766	21934
883.892	21850
884.018	21797
884.143	21998
884.269	22070
884.395	21644
884.52	21732
884.646	21846
884.772	21667
884.897	21622
885.023	21751
885.148	21679
885.274	21850
885.399	21934
885.524	21709
885.65	21797
885.775	21675
885.9	21618
886.025	21842
886.15	21808
886.275	21663
886.4	21507
886.525	21656
886.65	21595
886.775	21568
886.9	21922
887.025	21892
887.149	21739
887.274	21496
887.399	21485
887.523	21416
887.648	21428
887.773	21500
887.897	21595
888.021	21477
888.146	21367
888.27	21618
888.395	21576
888.519	21637
888.643	21526
888.767	21488
888.891	21412
889.015	21359
889.139	21287
889.263	21222
889.387	21363
889.511	21580
889.635	21420
889.759	21279
889.883	21245
890.006	21287
890.13	21317
890.254	21180
890.377	21093
890.501	20918
890.624	21066
890.748	21070
890.871	20944
890.995	20880
891.118	20876
891.241	20750
891.364	20754
891.488	20952
891.611	20872
891.734	20819
891.857	20929
891.98	20758
892.103	20853
892.226	20735
892.349	20727
892.471	20609
892.594	20796
892.717	20769
892.839	20792
892.962	20629
893.085	20891
893.207	20758
893.33	20716
893.452	20640
893.575	20720
893.697	20815
893.819	20902
893.941	20842
894.064	20914
894.186	20636
894.308	20663
894.43	20838
894.552	20853
894.674	20758
894.796	20651
894.918	20792
895.04	20735
895.161	20796
895.283	20815
895.405	20587
895.526	20712
895.648	20648
895.769	20682
895.891	20720
896.012	20705
896.134	20800
896.255	20640
896.376	20644
896.498	20632
896.619	20659
896.74	20617
896.861	20689
896.982	21055
897.103	21184
897.224	20952
897.345	20880
897.466	20880
897.587	20891
897.708	21089
897.828	20975
897.949	21024
898.07	20765
898.19	20864
898.311	20971
898.431	20777
898.552	20975
898.672	20967
898.792	20929
898.913	21028
899.033	20765
899.153	20731
899.273	20579
899.393	20667
899.513	20686
899.633	20701
899.753	20655
899.873	20503
899.993	20571
900.113	20602
900.232	20727
900.352	20583
900.472	20454
900.591	20396
900.711	20377
900.83	20476
900.95	20396
901.069	20552
901.189	20438
901.308	20221
901.427	20024
901.546	19986
901.665	20012
901.784	20039
901.904	19894
902.023	19818
902.141	19616
902.26	19696
902.379	19575
902.498	19666
902.617	19464
902.735	19499
902.854	19464
902.973	19468
903.091	19255
903.21	19225
903.328	19080
903.446	19027
903.565	18981
903.683	18920
903.801	18951
903.919	18909
904.038	19038
904.156	18692
904.274	18806
904.392	18703
904.51	18681
904.627	18646
904.745	18783
904.863	18852
904.981	18692
905.098	18429
905.216	18391
905.334	18486
905.451	18418
905.569	18445
905.686	18376
905.803	18369
905.921	18216
906.038	18281
906.155	18174
906.272	17999
906.389	18068
906.506	17939
906.623	17992
906.74	17817
906.857	17870
906.974	17809
907.091	17969
907.208	18011
907.324	18019
907.441	17874
907.557	17661
907.674	17657
907.79	17478
907.907	17600
908.023	17771
908.139	17543
908.256	17558
908.372	17592
908.488	17532
908.604	17364
908.72	17345
908.836	17421
908.952	17364
909.068	17414
909.184	17463
909.3	17315
909.415	17398
909.531	17349
909.647	17147
909.762	17064
909.878	17022
909.993	17071
910.108	16995
910.224	17037
910.339	17105
910.454	16847
910.57	16820
910.685	16752
910.8	17022
910.915	17006
911.03	16835
911.145	16736
911.259	16664
911.374	16630
911.489	16447
911.604	16504
911.718	16394
911.833	16402
911.947	16265
912.062	16284
912.176	16413
912.291	16363
912.405	16360
912.519	16558
912.633	16538
912.748	16470
912.862	16287
912.976	16173
913.09	16055
913.204	16135
913.318	16318
913.431	16234
913.545	16158
913.659	16257
913.772	16173
913.886	16010
914	16032
914.113	16010
914.226	16086
914.34	16090
914.453	15945
914.566	16032
914.68	15888
914.793	15800
914.906	15660
915.019	15648
915.132	15561
915.245	15675
915.358	15652
915.47	15580
915.583	15576
915.696	15629
915.809	15679
915.921	15644
916.034	15572
916.146	15412
916.259	15435
916.371	15538
916.483	15473
916.595	15389
916.708	15325
916.82	15447
916.932	15367
917.044	15325
917.156	15298
917.268	15192
917.38	15294
917.491	15230
917.603	15294
917.715	15283
917.826	15287
917.938	15081
918.049	14967
918.161	15100
918.272	15195
918.384	15245
918.495	15138
918.606	14925
918.717	15024
918.828	15085
918.939	14944
919.05	14845
919.161	14861
919.272	14792
919.383	14823
919.494	14944
919.604	15062
919.715	14872
919.826	14902
919.936	14937
920.047	14979
920.157	14925
920.267	15077
920.378	14941
920.488	14971
920.598	15028
920.708	15184
920.818	15058
920.928	15017
921.038	15226
921.148	15146
921.258	14921
921.368	14724
921.477	14651
921.587	14651
921.697	14511
921.806	14598
921.916	14533
922.025	14351
922.134	14347
922.244	14278
922.353	14301
922.462	14126
922.571	14027
922.68	13944
922.789	13913
922.898	13928
923.007	13841
923.116	13959
923.224	13951
923.333	13879
923.442	13753
923.55	13795
923.659	13685
923.767	13795
923.876	13712
923.984	13795
924.092	13628
924.201	13639
924.309	13647
924.417	13613
924.525	13666
924.633	13616
924.741	14358
924.849	13308
924.956	13514
925.064	13369
925.172	13236
925.279	13285
925.387	13373
925.494	13293
925.602	13335
925.709	13400
925.816	13202
925.924	13320
926.031	13289
926.138	13213
926.245	13221
926.352	13133
926.459	13236
926.566	13274
926.673	13156
926.779	13091
926.886	13038
926.993	12962
927.099	12890
927.206	12806
927.312	12776
927.419	12867
927.525	12817
927.631	12985
927.737	12696
927.843	12669
927.95	12521
928.056	12673
928.162	12707
928.267	12684
928.373	13354
928.479	12783
928.585	12540
928.69	12654
928.796	12646
928.901	12486
929.007	12395
929.112	12574
929.218	12547
929.323	12445
929.428	12433
929.533	12490
929.638	12384
929.743	12426
929.848	12353
929.953	12330
930.058	12205
930.163	12034
930.267	12068
930.372	12182
930.477	12095
930.581	12273
930.685	12076
930.79	11916
930.894	11984
930.998	11916
931.103	12114
931.207	11722
931.311	11611
931.415	11646
931.519	11311
931.623	11368
