Data from test_V78500241_2250.txt Node
Date: Fri Mar 25 15:57:23 CST 2022
User: usil
Spectrometer: V785-0024
Trigger mode: 0
Integration Time (sec): 4.000000E-1
Scans to average: 1
Nonlinearity correction enabled: false
Boxcar width: 0
Storing dark spectrum: false
XAxis mode: Wavelengths
Number of Pixels in Spectrum: 1024
>>>>>Begin Spectral Data<<<<<
801.071	29025
801.214	29025
801.356	28733
801.499	28675
801.641	28596
801.783	28645
801.926	28721
802.068	28588
802.211	28573
802.353	28577
802.496	28344
802.638	28360
802.78	28322
802.923	28215
803.065	28036
803.208	28169
803.35	28234
803.492	28360
803.635	28519
803.777	28398
803.919	28523
804.061	28873
804.204	28637
804.346	28519
804.488	28390
804.63	28523
804.773	28398
804.915	28675
805.057	28733
805.199	28512
805.341	28611
805.483	28694
805.626	28713
805.768	28409
805.91	28725
806.052	28618
806.194	28542
806.336	28995
806.478	28611
806.62	28618
806.762	28854
806.904	29166
807.046	29250
807.188	29109
807.33	29162
807.472	29212
807.614	29018
807.756	29159
807.898	29105
808.04	29010
808.182	28961
808.324	29105
808.465	29067
808.607	29258
808.749	29322
808.891	29482
809.033	29429
809.174	29478
809.316	29391
809.458	29349
809.6	29337
809.741	29459
809.883	29577
810.025	29535
810.166	29531
810.308	29520
810.45	29699
810.591	29558
810.733	29463
810.875	29581
811.016	29159
811.158	29170
811.299	29459
811.441	29566
811.582	29528
811.724	29395
811.865	29334
812.007	29497
812.148	29501
812.29	29509
812.431	29615
812.573	29630
812.714	29843
812.855	29920
812.997	30026
813.138	30174
813.279	29969
813.421	29946
813.562	29920
813.703	29718
813.845	29604
813.986	29322
814.127	29261
814.268	29151
814.41	29143
814.551	29079
814.692	29208
814.833	29086
814.974	29109
815.115	29220
815.256	29003
815.397	28961
815.539	28999
815.68	28892
815.821	28961
815.962	28828
816.103	28881
816.244	28801
816.385	28763
816.526	28698
816.666	28599
816.807	28443
816.948	28504
817.089	28618
817.23	28508
817.371	28462
817.512	28394
817.653	28443
817.793	28295
817.934	28428
818.075	28523
818.216	28466
818.356	28401
818.497	28352
818.638	28211
818.778	28192
818.919	28249
819.06	28295
819.2	28382
819.341	28584
819.481	28455
819.622	28615
819.762	28911
819.903	28675
820.043	28759
820.184	28607
820.324	28527
820.465	28656
820.605	28618
820.746	28626
820.886	28451
821.026	28565
821.167	28519
821.307	28641
821.447	28523
821.588	28466
821.728	28386
821.868	28051
822.008	27953
822.149	28063
822.289	27888
822.429	27625
822.569	27739
822.709	27530
822.849	27618
822.99	27511
823.13	27583
823.27	27351
823.41	27237
823.55	27176
823.69	27211
823.83	27256
823.97	27131
824.11	27070
824.25	27036
824.389	27066
824.529	27283
824.669	27165
824.809	27203
824.949	27237
825.089	27245
825.228	27157
825.368	26872
825.508	26982
825.648	26929
825.787	26982
825.927	27108
826.067	26861
826.206	26902
826.346	27173
826.485	26975
826.625	26963
826.765	26937
826.904	27009
827.044	26861
827.183	26606
827.323	26705
827.462	26826
827.601	26659
827.741	26758
827.88	26640
828.02	26453
828.159	26655
828.298	26674
828.437	26785
828.577	26629
828.716	26644
828.855	26598
828.994	26320
829.134	26469
829.273	26469
829.412	26358
829.551	26240
829.69	26332
829.829	26431
829.968	26526
830.107	26377
830.246	26442
830.385	26317
830.524	26294
830.663	26263
830.802	25947
830.941	25986
831.08	25917
831.219	25986
831.357	26138
831.496	26157
831.635	25856
831.774	25913
831.913	25849
832.051	25894
832.19	25807
832.329	25811
832.467	25795
832.606	25563
832.744	25518
832.883	25693
833.022	25620
833.16	25708
833.299	25632
833.437	25761
833.576	25727
833.714	25780
833.852	25689
833.991	25746
834.129	25757
834.267	25727
834.406	25822
834.544	25723
834.682	25635
834.821	25662
834.959	25833
835.097	25616
835.235	25742
835.373	25571
835.511	25780
835.65	25632
835.788	25647
835.926	25384
836.064	25377
836.202	25362
836.34	25537
836.478	25723
836.615	25559
836.753	25578
836.891	25567
837.029	25525
837.167	25506
837.305	25499
837.443	25479
837.58	25445
837.718	25430
837.856	25381
837.993	25327
838.131	25244
838.269	25293
838.406	25247
838.544	25228
838.681	24943
838.819	24935
838.956	24738
839.094	24768
839.231	24806
839.369	24962
839.506	25187
839.643	25019
839.781	24871
839.918	24779
840.055	24817
840.193	24875
840.33	24722
840.467	24764
840.604	24757
840.742	24992
840.879	24559
841.016	24646
841.153	24525
841.29	24894
841.427	24768
841.564	24578
841.701	24726
841.838	24620
841.975	24646
842.112	24654
842.249	24585
842.385	24464
842.522	24741
842.659	24673
842.796	24330
842.933	24582
843.069	24395
843.206	24467
843.343	24467
843.479	24471
843.616	24448
843.752	24273
843.889	24281
844.025	24391
844.162	24270
844.298	24361
844.435	24254
844.571	24190
844.708	24171
844.844	24452
844.98	24433
845.117	24285
845.253	24205
845.389	24194
845.525	24197
845.661	24102
845.798	24030
845.934	23954
846.07	24026
846.206	24030
846.342	24117
846.478	23863
846.614	23847
846.75	23596
846.886	23680
847.022	23798
847.158	23707
847.294	23722
847.429	23646
847.565	23642
847.701	23984
847.837	23459
847.972	23372
848.108	23596
848.244	23497
848.379	23360
848.515	23318
848.65	23311
848.786	23387
848.921	23345
849.057	23402
849.192	23303
849.328	23269
849.463	23269
849.598	23265
849.734	23208
849.869	23181
850.004	22965
850.14	23151
850.275	23006
850.41	22949
850.545	22942
850.68	22949
850.815	23162
850.95	23083
851.085	23223
851.22	23105
851.355	23113
851.49	22942
851.625	22957
851.76	22942
851.895	23029
852.03	22999
852.165	22968
852.299	23056
852.434	23220
852.569	23056
852.703	23094
852.838	23155
852.973	23159
853.107	23128
853.242	22980
853.376	22771
853.511	22816
853.645	22790
853.78	23006
853.914	22816
854.048	22881
854.183	22710
854.317	22923
854.451	22984
854.585	22778
854.72	22824
854.854	23018
854.988	22858
855.122	22824
855.256	22729
855.39	22900
855.524	23014
855.658	22900
855.792	22812
855.926	22809
856.06	22908
856.194	22984
856.327	22820
856.461	22725
856.595	22812
856.729	22900
856.862	22862
856.996	22885
857.13	23018
857.263	22911
857.397	22915
857.53	22877
857.664	22923
857.797	23044
857.931	23018
858.064	22850
858.197	22965
858.331	22759
858.464	22793
858.597	22782
858.731	22934
858.864	22805
858.997	22786
859.13	22892
859.263	22946
859.396	22843
859.529	22850
859.662	22797
859.795	22706
859.928	22873
860.061	22980
860.194	23151
860.327	22854
860.46	22869
860.592	23010
860.725	22991
860.858	22885
860.99	22824
861.123	22767
861.256	22946
861.388	22805
861.521	23539
861.653	22713
861.786	22831
861.918	22725
862.05	22755
862.183	22778
862.315	22873
862.447	22915
862.58	22744
862.712	22599
862.844	22474
862.976	22687
863.108	22634
863.24	23041
863.372	22508
863.504	22546
863.636	22550
863.768	22596
863.9	22447
864.032	22493
864.164	22542
864.296	22641
864.428	22679
864.559	22630
864.691	22664
864.823	22493
864.954	22561
865.086	22447
865.217	22443
865.349	22428
865.48	22409
865.612	22466
865.743	22436
865.875	22455
866.006	22405
866.137	22310
866.269	22280
866.4	22398
866.531	22382
866.662	22344
866.793	22318
866.924	22382
867.055	22440
867.186	22432
867.317	22280
867.448	22303
867.579	22386
867.71	22341
867.841	22211
867.972	22284
868.103	22276
868.233	22314
868.364	22417
868.495	22382
868.625	22565
868.756	22725
868.886	22546
869.017	22710
869.147	22691
869.278	22782
869.408	22645
869.539	22641
869.669	22664
869.799	22607
869.929	22668
870.06	22698
870.19	22991
870.32	22877
870.45	22927
870.58	23022
870.71	23071
870.84	23060
870.97	23064
871.1	22904
871.23	23098
871.36	23189
871.489	23162
871.619	23147
871.749	23102
871.879	23307
872.008	23231
872.138	23246
872.267	23288
872.397	23010
872.526	22896
872.656	23010
872.785	23033
872.915	23246
873.044	23299
873.173	23181
873.303	23185
873.432	23315
873.561	23364
873.69	23315
873.819	23208
873.948	23269
874.077	23170
874.206	23239
874.335	23162
874.464	23193
874.593	23398
874.722	23383
874.851	23421
874.979	23463
875.108	23429
875.237	23414
875.365	23337
875.494	23421
875.623	23516
875.751	23410
875.88	23429
876.008	23535
876.136	23592
876.265	23783
876.393	23828
876.521	23954
876.65	23847
876.778	23920
876.906	23760
877.034	23630
877.162	23775
877.29	23798
877.418	23866
877.546	23741
877.674	23665
877.802	23821
877.93	23805
878.058	23668
878.185	23718
878.313	23760
878.441	23676
878.568	23733
878.696	23619
878.824	23809
878.951	23813
879.079	24057
879.206	24041
879.333	23920
879.461	23714
879.588	23855
879.715	23927
879.842	23999
879.97	23817
880.097	23638
880.224	23653
880.351	23718
880.478	23547
880.605	23600
880.732	23573
880.859	23893
880.986	23600
881.112	23619
881.239	23512
881.366	23368
881.493	23185
881.619	23113
881.746	23280
881.872	23033
881.999	23132
882.125	22972
882.252	23064
882.378	23079
882.505	23330
882.631	23025
882.757	22801
882.883	22850
883.01	22816
883.136	22782
883.262	22736
883.388	22645
883.514	22858
883.64	22717
883.766	22736
883.892	22455
884.018	22622
884.143	22748
884.269	22771
884.395	22546
884.52	22402
884.646	22363
884.772	22428
884.897	22257
885.023	22413
885.148	22440
885.274	22569
885.399	22580
885.524	22527
885.65	22516
885.775	22421
885.9	22421
886.025	22455
886.15	22428
886.275	22371
886.4	22295
886.525	22379
886.65	22280
886.775	22272
886.9	22447
887.025	22447
887.149	22344
887.274	22253
887.399	22268
887.523	22162
887.648	22124
887.773	22063
887.897	22219
888.021	22082
888.146	22055
888.27	22253
888.395	22360
888.519	22166
888.643	22272
888.767	22215
888.891	22074
889.015	21926
889.139	22055
889.263	21823
889.387	22017
889.511	22249
889.635	22044
889.759	21991
889.883	21880
890.006	21983
890.13	22032
890.254	21949
890.377	21895
890.501	21663
890.624	21797
890.748	21720
890.871	21549
890.995	21458
891.118	21447
891.241	21549
891.364	21599
891.488	21610
891.611	21557
891.734	21488
891.857	21515
891.98	21424
892.103	21610
892.226	21561
892.349	21450
892.471	21317
892.594	21367
892.717	21454
892.839	21462
892.962	21397
893.085	21306
893.207	21382
893.33	21310
893.452	21252
893.575	21386
893.697	21420
893.819	21625
893.941	21553
894.064	21576
894.186	21237
894.308	21218
894.43	21545
894.552	21564
894.674	21439
894.796	21302
894.918	21329
895.04	21287
895.161	21496
895.283	21336
895.405	21313
895.526	21321
895.648	21363
895.769	21435
895.891	21340
896.012	21348
896.134	21443
896.255	21412
896.376	21268
896.498	21473
896.619	21466
896.74	21214
896.861	21336
896.982	21549
897.103	21675
897.224	21603
897.345	21561
897.466	21431
897.587	21545
897.708	21728
897.828	21652
897.949	21519
898.07	21340
898.19	21488
898.311	21709
898.431	21462
898.552	21538
898.672	21545
898.792	21667
898.913	21519
899.033	21431
899.153	21424
899.273	21230
899.393	21374
899.513	21332
899.633	21294
899.753	21260
899.873	21287
899.993	21203
900.113	21241
900.232	21291
900.352	21104
900.472	21028
900.591	20918
900.711	21203
900.83	21028
900.95	21169
901.069	21047
901.189	20906
901.308	20705
901.427	20594
901.546	20609
901.665	20663
901.784	20476
901.904	20427
902.023	20503
902.141	20195
902.26	20149
902.379	20191
902.498	20062
902.617	20084
902.735	20050
902.854	20164
902.973	20008
903.091	19700
903.21	19814
903.328	19734
903.446	19742
903.565	19559
903.683	19624
903.801	19502
903.919	19514
904.038	19411
904.156	19403
904.274	19411
904.392	19209
904.51	19274
904.627	19327
904.745	19407
904.863	19464
904.981	19091
905.098	19023
905.216	19027
905.334	19069
905.451	19023
905.569	18973
905.686	19088
905.803	18882
905.921	18795
906.038	18954
906.155	18802
906.272	18654
906.389	18661
906.506	18570
906.623	18555
906.74	18521
906.857	18273
906.974	18547
907.091	18601
907.208	18566
907.324	18479
907.441	18372
907.557	18285
907.674	18270
907.79	18072
907.907	18167
908.023	18201
908.139	18273
908.256	18155
908.372	18144
908.488	17999
908.604	17999
908.72	17958
908.836	17908
908.952	17866
909.068	18007
909.184	18087
909.3	17824
909.415	17992
909.531	17977
909.647	17627
909.762	17684
909.878	17619
909.993	17634
910.108	17573
910.224	17493
910.339	17570
910.454	17425
910.57	17512
910.685	17326
910.8	17589
910.915	17562
911.03	17417
911.145	17185
911.259	17174
911.374	17337
911.489	17258
911.604	16946
911.718	16946
911.833	16987
911.947	16965
912.062	16786
912.176	16987
912.291	16908
912.405	16965
912.519	17124
912.633	17033
912.748	17022
912.862	16900
912.976	16786
913.09	16611
913.204	16698
913.318	16771
913.431	16809
913.545	16850
913.659	16824
913.772	16733
913.886	16611
914	16413
914.113	16542
914.226	16592
914.34	16599
914.453	16394
914.566	16516
914.68	16402
914.793	16356
914.906	16143
915.019	16074
915.132	15968
915.245	16059
915.358	16135
915.47	16093
915.583	16131
915.696	16173
915.809	16207
915.921	16166
916.034	16109
916.146	16040
916.259	15892
916.371	16036
916.483	15975
916.595	15968
916.708	15888
916.82	15907
916.932	15892
917.044	15838
917.156	15793
917.268	15656
917.38	15789
917.491	15762
917.603	15701
917.715	15819
917.826	15823
917.938	15656
918.049	15572
918.161	15622
918.272	15762
918.384	15770
918.495	15553
918.606	15431
918.717	15408
918.828	15511
918.939	15530
919.05	15370
919.161	15420
919.272	15237
919.383	15214
919.494	15477
919.604	15580
919.715	15466
919.826	15351
919.936	15412
920.047	15515
920.157	15462
920.267	15587
920.378	15408
920.488	15397
920.598	15603
920.708	15671
920.818	15469
920.928	15542
921.038	15736
921.148	15595
921.258	15401
921.368	15237
921.477	15135
921.587	15180
921.697	14899
921.806	14982
921.916	14925
922.025	14735
922.134	14727
922.244	14686
922.353	14678
922.462	14613
922.571	14629
922.68	14404
922.789	14412
922.898	14412
923.007	14381
923.116	14377
923.224	14377
923.333	14412
923.442	14275
923.55	14168
923.659	14187
923.767	14275
923.876	14180
923.984	14183
924.092	14149
924.201	14138
924.309	14103
924.417	14065
924.525	14012
924.633	13940
924.741	14807
924.849	13852
924.956	13944
925.064	13757
925.172	13795
925.279	13727
925.387	13765
925.494	13655
925.602	13822
925.709	13772
925.816	13731
925.924	13658
926.031	13795
926.138	13715
926.245	13696
926.352	13601
926.459	13658
926.566	13753
926.673	13609
926.779	13495
926.886	13525
926.993	13331
927.099	13289
927.206	13251
927.312	13285
927.419	13289
927.525	13301
927.631	13293
927.737	13133
927.843	13118
927.95	13019
928.056	13076
928.162	13065
928.267	13152
928.373	13780
928.479	13160
928.585	12916
928.69	13061
928.796	13046
928.901	13000
929.007	12814
929.112	12924
929.218	12932
929.323	12852
929.428	12738
929.533	12947
929.638	12734
929.743	12760
929.848	12795
929.953	12779
930.058	12635
930.163	12517
930.267	12551
930.372	12563
930.477	12433
930.581	12726
930.685	12498
930.79	12338
930.894	12376
930.998	12338
931.103	12437
931.207	12144
931.311	11980
931.415	11863
931.519	11748
931.623	11729
