Data from test_V78500241_1306.txt Node
Date: Fri Mar 25 15:50:50 CST 2022
User: usil
Spectrometer: V785-0024
Trigger mode: 0
Integration Time (sec): 4.000000E-1
Scans to average: 1
Nonlinearity correction enabled: false
Boxcar width: 0
Storing dark spectrum: false
XAxis mode: Wavelengths
Number of Pixels in Spectrum: 1024
>>>>>Begin Spectral Data<<<<<
801.071	28683
801.214	28622
801.356	28405
801.499	28287
801.641	28070
801.783	28211
801.926	28219
802.068	28211
802.211	28032
802.353	28086
802.496	28002
802.638	28021
802.78	27823
802.923	27766
803.065	27816
803.208	27899
803.35	27873
803.492	28063
803.635	28055
803.777	27956
803.919	28112
804.061	28436
804.204	28219
804.346	27949
804.488	27956
804.63	28040
804.773	28158
804.915	28078
805.057	28265
805.199	28093
805.341	28128
805.483	28234
805.626	28188
805.768	28249
805.91	28261
806.052	28242
806.194	28044
806.336	28405
806.478	28318
806.62	28318
806.762	28352
806.904	28538
807.046	28706
807.188	28702
807.33	28653
807.472	28850
807.614	28630
807.756	28637
807.898	28535
808.04	28474
808.182	28592
808.324	28542
808.465	28615
808.607	28698
808.749	28961
808.891	29079
809.033	29140
809.174	29067
809.316	28961
809.458	29094
809.6	28877
809.741	29056
809.883	29041
810.025	29288
810.166	29307
810.308	29433
810.45	29341
810.591	29037
810.733	28995
810.875	29033
811.016	28824
811.158	28927
811.299	29124
811.441	29109
811.582	29094
811.724	28972
811.865	28888
812.007	28843
812.148	28934
812.29	29048
812.431	29189
812.573	29269
812.714	29364
812.855	29516
812.997	29539
813.138	29680
813.279	29718
813.421	29444
813.562	29421
813.703	29258
813.845	29216
813.986	28908
814.127	28774
814.268	28725
814.41	28733
814.551	28691
814.692	28888
814.833	28569
814.974	28797
815.115	28771
815.256	28485
815.397	28584
815.539	28603
815.68	28580
815.821	28489
815.962	28565
816.103	28478
816.244	28291
816.385	28196
816.526	28211
816.666	28120
816.807	27953
816.948	28120
817.089	28223
817.23	28135
817.371	27964
817.512	28044
817.653	27956
817.793	27987
817.934	28086
818.075	28051
818.216	28105
818.356	27960
818.497	27789
818.638	27648
818.778	27759
818.919	27827
819.06	27922
819.2	28002
819.341	27960
819.481	28070
819.622	28173
819.762	28363
819.903	28314
820.043	28261
820.184	28051
820.324	28112
820.465	28143
820.605	28124
820.746	28135
820.886	27835
821.026	28272
821.167	27998
821.307	28185
821.447	28013
821.588	28002
821.728	27789
821.868	27580
822.008	27427
822.149	27583
822.289	27477
822.429	27252
822.569	27230
822.709	27165
822.849	27135
822.99	27039
823.13	27119
823.27	26933
823.41	26743
823.55	26648
823.69	26857
823.83	26940
823.97	26804
824.11	26739
824.25	26689
824.389	26655
824.529	26716
824.669	26762
824.809	26880
824.949	26712
825.089	26735
825.228	26644
825.368	26473
825.508	26541
825.648	26594
825.787	26579
825.927	26659
826.067	26492
826.206	26484
826.346	26743
826.485	26686
826.625	26511
826.765	26621
826.904	26461
827.044	26415
827.183	26313
827.323	26381
827.462	26408
827.601	26286
827.741	26180
827.88	26305
828.02	26256
828.159	26138
828.298	26355
828.437	26248
828.577	26134
828.716	26465
828.855	26149
828.994	25997
829.134	25947
829.273	26046
829.412	25959
829.551	25849
829.69	25803
829.829	25917
829.968	26092
830.107	25993
830.246	26005
830.385	25845
830.524	25856
830.663	25837
830.802	25696
830.941	25586
831.08	25449
831.219	25670
831.357	25677
831.496	25742
831.635	25540
831.774	25457
831.913	25441
832.051	25331
832.19	25373
832.329	25384
832.467	25297
832.606	25126
832.744	25316
832.883	25282
833.022	25236
833.16	25148
833.299	25358
833.437	25350
833.576	25422
833.714	25308
833.852	25301
833.991	25293
834.129	25400
834.267	25282
834.406	25289
834.544	25259
834.682	25346
834.821	25297
834.959	25422
835.097	25156
835.235	25384
835.373	25244
835.511	25129
835.65	25034
835.788	25114
835.926	25012
836.064	24928
836.202	24962
836.34	25034
836.478	25236
836.615	25103
836.753	25175
836.891	25217
837.029	25175
837.167	25183
837.305	24973
837.443	25031
837.58	24920
837.718	25088
837.856	24844
837.993	24878
838.131	24810
838.269	24840
838.406	24905
838.544	24669
838.681	24563
838.819	24456
838.956	24376
839.094	24445
839.231	24559
839.369	24616
839.506	24856
839.643	24703
839.781	24437
839.918	24327
840.055	24479
840.193	24509
840.33	24483
840.467	24251
840.604	24437
840.742	24608
840.879	24129
841.016	24289
841.153	24194
841.29	24483
841.427	24220
841.564	24361
841.701	24270
841.838	24243
841.975	24174
842.112	24232
842.249	24117
842.385	24083
842.522	24327
842.659	24209
842.796	24079
842.933	24144
843.069	24011
843.206	23977
843.343	24114
843.479	24114
843.616	24015
843.752	23920
843.889	23870
844.025	23939
844.162	23790
844.298	23893
844.435	23805
844.571	23741
844.708	23908
844.844	24095
844.98	23935
845.117	23996
845.253	23703
845.389	23668
845.525	23756
845.661	23764
845.798	23646
845.934	23695
846.07	23600
846.206	23531
846.342	23691
846.478	23543
846.614	23459
846.75	23178
846.886	23376
847.022	23364
847.158	23254
847.294	23189
847.429	23269
847.565	23345
847.701	23410
847.837	23071
847.972	22972
848.108	23014
848.244	23033
848.379	22946
848.515	22877
848.65	22915
848.786	22850
848.921	22873
849.057	22999
849.192	22957
849.328	23025
849.463	22904
849.598	22809
849.734	22748
849.869	22702
850.004	22618
850.14	22660
850.275	22618
850.41	22519
850.545	22710
850.68	22504
850.815	22615
850.95	22592
851.085	22752
851.22	22831
851.355	22675
851.49	22615
851.625	22782
851.76	22725
851.895	22675
852.03	22523
852.165	22497
852.299	22683
852.434	22721
852.569	22550
852.703	22672
852.838	22656
852.973	22786
853.107	22744
853.242	22478
853.376	22508
853.511	22337
853.645	22466
853.78	22637
853.914	22557
854.048	22527
854.183	22421
854.317	22512
854.451	22706
854.585	22417
854.72	22527
854.854	22550
854.988	22402
855.122	22519
855.256	22341
855.39	22455
855.524	22497
855.658	22504
855.792	22527
855.926	22497
856.06	22398
856.194	22565
856.327	22409
856.461	22451
856.595	22341
856.729	22459
856.862	22531
856.996	22402
857.13	22500
857.263	22542
857.397	22577
857.53	22470
857.664	22409
857.797	22607
857.931	22527
858.064	22455
858.197	22535
858.331	22523
858.464	22428
858.597	22287
858.731	22322
858.864	22390
858.997	22516
859.13	22485
859.263	22417
859.396	22489
859.529	22443
859.662	22405
859.795	22402
859.928	22557
860.061	22645
860.194	22626
860.327	22516
860.46	22398
860.592	22561
860.725	22672
860.858	22626
860.99	22478
861.123	22402
861.256	22405
861.388	22447
861.521	23075
861.653	22386
861.786	22314
861.918	22265
862.05	22375
862.183	22291
862.315	22348
862.447	22443
862.58	22447
862.712	22226
862.844	22048
862.976	22238
863.108	22158
863.24	22512
863.372	21949
863.504	22211
863.636	22131
863.768	22242
863.9	22143
864.032	22154
864.164	22131
864.296	22242
864.428	22147
864.559	22219
864.691	22337
864.823	22139
864.954	22150
865.086	21994
865.217	22067
865.349	21979
865.48	22013
865.612	21994
865.743	22291
865.875	22074
866.006	22040
866.137	21934
866.269	22086
866.4	22013
866.531	21930
866.662	21953
866.793	21968
866.924	21937
867.055	21930
867.186	22051
867.317	21987
867.448	21789
867.579	21899
867.71	21857
867.841	21808
867.972	21915
868.103	21892
868.233	21975
868.364	21907
868.495	22147
868.625	22207
868.756	22356
868.886	22185
869.017	22173
869.147	22371
869.278	22390
869.408	22162
869.539	22185
869.669	22287
869.799	22150
869.929	22306
870.06	22276
870.19	22367
870.32	22481
870.45	22580
870.58	22596
870.71	22683
870.84	22736
870.97	22615
871.1	22675
871.23	22653
871.36	22733
871.489	22672
871.619	22782
871.749	22820
871.879	22835
872.008	22885
872.138	22599
872.267	22778
872.397	22607
872.526	22618
872.656	22584
872.785	22637
872.915	22866
873.044	22885
873.173	22854
873.303	22816
873.432	22850
873.561	22850
873.69	22774
873.819	22771
873.948	22866
874.077	22847
874.206	22706
874.335	22782
874.464	22866
874.593	22984
874.722	23067
874.851	23090
874.979	23018
875.108	23121
875.237	22824
875.365	22908
875.494	23041
875.623	23037
875.751	23094
875.88	23075
876.008	23086
876.136	23242
876.265	23448
876.393	23554
876.521	23406
876.65	23444
876.778	23425
876.906	23296
877.034	23292
877.162	23326
877.29	23315
877.418	23341
877.546	23311
877.674	23398
877.802	23292
877.93	23360
878.058	23353
878.185	23261
878.313	23212
878.441	23387
878.568	23204
878.696	23345
878.824	23376
878.951	23429
879.079	23379
879.206	23577
879.333	23585
879.461	23379
879.588	23516
879.715	23414
879.842	23634
879.97	23410
880.097	23227
880.224	23235
880.351	23280
880.478	23170
880.605	23140
880.732	23094
880.859	23497
880.986	23265
881.112	23269
881.239	23010
881.366	23006
881.493	22786
881.619	22835
881.746	22698
881.872	22736
881.999	22641
882.125	22531
882.252	22801
882.378	22675
882.505	22873
882.631	22542
882.757	22523
882.883	22512
883.01	22474
883.136	22344
883.262	22253
883.388	22253
883.514	22443
883.64	22394
883.766	22318
883.892	22078
884.018	22200
884.143	22341
884.269	22580
884.395	22196
884.52	22025
884.646	22017
884.772	22090
884.897	22010
885.023	22036
885.148	22128
885.274	22169
885.399	22185
885.524	22074
885.65	22112
885.775	22044
885.9	21888
886.025	22074
886.15	22112
886.275	22032
886.4	21945
886.525	22025
886.65	21823
886.775	22006
886.9	22143
887.025	22154
887.149	22006
887.274	21800
887.399	21861
887.523	21774
887.648	21816
887.773	21816
887.897	21892
888.021	21930
888.146	21804
888.27	22006
888.395	21903
888.519	21846
888.643	21800
888.767	21861
888.891	21652
889.015	21538
889.139	21705
889.263	21606
889.387	21682
889.511	21903
889.635	21720
889.759	21614
889.883	21629
890.006	21728
890.13	21720
890.254	21580
890.377	21469
890.501	21405
890.624	21313
890.748	21412
890.871	21199
890.995	21093
891.118	21051
891.241	21222
891.364	21176
891.488	21222
891.611	21146
891.734	21104
891.857	21203
891.98	21195
892.103	21203
892.226	21207
892.349	20967
892.471	20918
892.594	21093
892.717	21123
892.839	21043
892.962	21123
893.085	21245
893.207	21005
893.33	20975
893.452	20963
893.575	21116
893.697	21013
893.819	21119
893.941	21135
894.064	21173
894.186	20880
894.308	20823
894.43	21123
894.552	21211
894.674	21173
894.796	20929
894.918	20937
895.04	21055
895.161	20948
895.283	21055
895.405	21001
895.526	21108
895.648	21020
895.769	21131
895.891	21051
896.012	21154
896.134	20975
896.255	21005
896.376	20963
896.498	21066
896.619	21119
896.74	21039
896.861	20929
896.982	21416
897.103	21511
897.224	21245
897.345	21298
897.466	21104
897.587	21188
897.708	21367
897.828	21336
897.949	21173
898.07	21028
898.19	21081
898.311	21306
898.431	21218
898.552	21157
898.672	21302
898.792	21279
898.913	21344
899.033	21233
899.153	21017
899.273	20994
899.393	21009
899.513	21013
899.633	20895
899.753	20963
899.873	20765
899.993	20929
900.113	20910
900.232	20994
900.352	20876
900.472	20785
900.591	20727
900.711	20697
900.83	20625
900.95	20804
901.069	20826
901.189	20606
901.308	20434
901.427	20298
901.546	20229
901.665	20313
901.784	20336
901.904	20187
902.023	20024
902.141	19860
902.26	19784
902.379	19967
902.498	19788
902.617	19742
902.735	19837
902.854	19681
902.973	19666
903.091	19468
903.21	19571
903.328	19422
903.446	19327
903.565	19240
903.683	19282
903.801	19084
903.919	19213
904.038	19274
904.156	19004
904.274	19057
904.392	18977
904.51	19015
904.627	19000
904.745	18970
904.863	19019
904.981	18776
905.098	18654
905.216	18616
905.334	18715
905.451	18692
905.569	18665
905.686	18650
905.803	18692
905.921	18483
906.038	18532
906.155	18422
906.272	18437
906.389	18399
906.506	18258
906.623	18213
906.74	18205
906.857	18087
906.974	18117
907.091	18178
907.208	18403
907.324	18197
907.441	18136
907.557	17828
907.674	18015
907.79	17920
907.907	17908
908.023	18019
908.139	17920
908.256	17847
908.372	17790
908.488	17805
908.604	17566
908.72	17611
908.836	17649
908.952	17512
909.068	17661
909.184	17653
909.3	17649
909.415	17630
909.531	17611
909.647	17360
909.762	17303
909.878	17246
909.993	17280
910.108	17212
910.224	17261
910.339	17265
910.454	17071
910.57	17181
910.685	17071
910.8	17318
910.915	17220
911.03	17151
911.145	16942
911.259	16843
911.374	16824
911.489	16866
911.604	16778
911.718	16599
911.833	16618
911.947	16577
912.062	16440
912.176	16554
912.291	16672
912.405	16721
912.519	16961
912.633	16740
912.748	16664
912.862	16599
912.976	16466
913.09	16356
913.204	16390
913.318	16455
913.431	16500
913.545	16474
913.659	16618
913.772	16352
913.886	16215
914	16185
914.113	16375
914.226	16390
914.34	16398
914.453	16120
914.566	16154
914.68	16173
914.793	16063
914.906	15880
915.019	15926
915.132	15709
915.245	15793
915.358	15793
915.47	15857
915.583	15797
915.696	15869
915.809	15854
915.921	15876
916.034	15804
916.146	15770
916.259	15739
916.371	15770
916.483	15823
916.595	15587
916.708	15603
916.82	15675
916.932	15587
917.044	15629
917.156	15504
917.268	15416
917.38	15477
917.491	15412
917.603	15488
917.715	15420
917.826	15469
917.938	15469
918.049	15203
918.161	15317
918.272	15553
918.384	15538
918.495	15481
918.606	15245
918.717	15161
918.828	15150
918.939	15199
919.05	15226
919.161	15142
919.272	14982
919.383	14971
919.494	15222
919.604	15382
919.715	15173
919.826	15165
919.936	15123
920.047	15203
920.157	15127
920.267	15374
920.378	15188
920.488	15085
920.598	15203
920.708	15348
920.818	15226
920.928	15256
921.038	15401
921.148	15424
921.258	15066
921.368	14956
921.477	14891
921.587	14937
921.697	14705
921.806	14883
921.916	14705
922.025	14469
922.134	14575
922.244	14412
922.353	14507
922.462	14317
922.571	14240
922.68	14294
922.789	14107
922.898	14123
923.007	14123
923.116	14138
923.224	14084
923.333	13982
923.442	13978
923.55	13970
923.659	14001
923.767	13932
923.876	13913
923.984	13986
924.092	13875
924.201	13887
924.309	13799
924.417	13909
924.525	13780
924.633	13750
924.741	14674
924.849	13597
924.956	13712
925.064	13563
925.172	13445
925.279	13464
925.387	13518
925.494	13544
925.602	13643
925.709	13624
925.816	13403
925.924	13426
926.031	13518
926.138	13483
926.245	13590
926.352	13316
926.459	13430
926.566	13499
926.673	13388
926.779	13308
926.886	13228
926.993	13069
927.099	13099
927.206	13050
927.312	13034
927.419	13080
927.525	13053
927.631	13137
927.737	12939
927.843	12890
927.95	12810
928.056	12810
928.162	12913
928.267	12829
928.373	13499
928.479	12966
928.585	12719
928.69	12871
928.796	12817
928.901	12760
929.007	12627
929.112	12707
929.218	12635
929.323	12658
929.428	12536
929.533	12700
929.638	12437
929.743	12551
929.848	12528
929.953	12532
930.058	12433
930.163	12304
930.267	12197
930.372	12414
930.477	12247
930.581	12460
930.685	12369
930.79	12205
930.894	12194
930.998	12182
931.103	12281
931.207	11904
931.311	11798
931.415	11676
931.519	11429
931.623	11501
