Data from test_V78500241_3490.txt Node
Date: Fri Mar 25 16:05:58 CST 2022
User: usil
Spectrometer: V785-0024
Trigger mode: 0
Integration Time (sec): 4.000000E-1
Scans to average: 1
Nonlinearity correction enabled: false
Boxcar width: 0
Storing dark spectrum: false
XAxis mode: Wavelengths
Number of Pixels in Spectrum: 1024
>>>>>Begin Spectral Data<<<<<
801.071	28869
801.214	28976
801.356	28733
801.499	28618
801.641	28474
801.783	28535
801.926	28618
802.068	28554
802.211	28398
802.353	28474
802.496	28379
802.638	28268
802.78	28135
802.923	28135
803.065	28238
803.208	28306
803.35	28147
803.492	28451
803.635	28462
803.777	28333
803.919	28497
804.061	28816
804.204	28668
804.346	28481
804.488	28367
804.63	28432
804.773	28417
804.915	28466
805.057	28664
805.199	28516
805.341	28599
805.483	28584
805.626	28653
805.768	28607
805.91	28752
806.052	28687
806.194	28481
806.336	28858
806.478	28672
806.62	28679
806.762	28892
806.904	29022
807.046	29258
807.188	29166
807.33	29071
807.472	29193
807.614	29121
807.756	29227
807.898	28923
808.04	28900
808.182	29044
808.324	29029
808.465	28942
808.607	29197
808.749	29349
808.891	29493
809.033	29501
809.174	29402
809.316	29410
809.458	29337
809.6	29284
809.741	29558
809.883	29501
810.025	29714
810.166	29691
810.308	29558
810.45	29589
810.591	29566
810.733	29478
810.875	29414
811.016	29197
811.158	29315
811.299	29429
811.441	29497
811.582	29512
811.724	29379
811.865	29436
812.007	29410
812.148	29486
812.29	29421
812.431	29493
812.573	29649
812.714	29786
812.855	29942
812.997	30026
813.138	30239
813.279	30155
813.421	29946
813.562	29843
813.703	29619
813.845	29543
813.986	29341
814.127	29280
814.268	29223
814.41	29113
814.551	29227
814.692	29090
814.833	29029
814.974	29140
815.115	29056
815.256	29025
815.397	28984
815.539	29052
815.68	28790
815.821	29010
815.962	28919
816.103	28820
816.244	28637
816.385	28645
816.526	28698
816.666	28512
816.807	28318
816.948	28523
817.089	28535
817.23	28417
817.371	28386
817.512	28470
817.653	28322
817.793	28443
817.934	28386
818.075	28474
818.216	28424
818.356	28314
818.497	28348
818.638	28078
818.778	28280
818.919	28166
819.06	28314
819.2	28405
819.341	28333
819.481	28379
819.622	28653
819.762	28744
819.903	28687
820.043	28557
820.184	28592
820.324	28577
820.465	28573
820.605	28527
820.746	28592
820.886	28428
821.026	28668
821.167	28428
821.307	28489
821.447	28561
821.588	28314
821.728	28131
821.868	28086
822.008	27949
822.149	27922
822.289	28040
822.429	27720
822.569	27568
822.709	27660
822.849	27469
822.99	27317
823.13	27359
823.27	27302
823.41	27154
823.55	27154
823.69	27279
823.83	27192
823.97	27123
824.11	27051
824.25	27051
824.389	27169
824.529	27135
824.669	27013
824.809	27157
824.949	27135
825.089	27070
825.228	27245
825.368	26990
825.508	26876
825.648	26895
825.787	26921
825.927	27062
826.067	26807
826.206	27039
826.346	27047
826.485	26998
826.625	26979
826.765	27062
826.904	26994
827.044	26743
827.183	26861
827.323	26640
827.462	26735
827.601	26667
827.741	26625
827.88	26617
828.02	26465
828.159	26609
828.298	26636
828.437	26754
828.577	26629
828.716	26899
828.855	26606
828.994	26355
829.134	26374
829.273	26328
829.412	26343
829.551	26317
829.69	26427
829.829	26408
829.968	26434
830.107	26465
830.246	26237
830.385	26366
830.524	26301
830.663	26180
830.802	25944
830.941	26164
831.08	25913
831.219	26134
831.357	26134
831.496	26290
831.635	26054
831.774	25913
831.913	25902
832.051	25674
832.19	25799
832.329	25780
832.467	25578
832.606	25594
832.744	25594
832.883	25597
833.022	25510
833.16	25605
833.299	25662
833.437	25704
833.576	25719
833.714	25731
833.852	25753
833.991	25571
834.129	25879
834.267	25753
834.406	25552
834.544	25803
834.682	25674
834.821	25639
834.959	25875
835.097	25491
835.235	25807
835.373	25757
835.511	25670
835.65	25540
835.788	25479
835.926	25419
836.064	25244
836.202	25381
836.34	25601
836.478	25620
836.615	25449
836.753	25479
836.891	25597
837.029	25438
837.167	25529
837.305	25320
837.443	25403
837.58	25354
837.718	25312
837.856	25449
837.993	25339
838.131	25354
838.269	25202
838.406	25240
838.544	25247
838.681	24973
838.819	24920
838.956	24817
839.094	24745
839.231	24886
839.369	24973
839.506	25304
839.643	25129
839.781	24897
839.918	24814
840.055	24787
840.193	24760
840.33	24669
840.467	24692
840.604	24772
840.742	24897
840.879	24528
841.016	24521
841.153	24517
841.29	24863
841.427	24639
841.564	24589
841.701	24658
841.838	24661
841.975	24673
842.112	24601
842.249	24479
842.385	24498
842.522	24692
842.659	24456
842.796	24536
842.933	24418
843.069	24471
843.206	24456
843.343	24578
843.479	24384
843.616	24464
843.752	24209
843.889	24273
844.025	24376
844.162	24194
844.298	24361
844.435	24159
844.571	24095
844.708	24239
844.844	24353
844.98	24456
845.117	24289
845.253	24155
845.389	24125
845.525	24152
845.661	24022
845.798	23836
845.934	24007
846.07	23908
846.206	23942
846.342	24133
846.478	23931
846.614	23828
846.75	23547
846.886	23676
847.022	23691
847.158	23718
847.294	23703
847.429	23798
847.565	23573
847.701	23863
847.837	23421
847.972	23395
848.108	23459
848.244	23478
848.379	23311
848.515	23246
848.65	23265
848.786	23292
848.921	23307
849.057	23429
849.192	23493
849.328	23368
849.463	23246
849.598	23246
849.734	23136
849.869	23117
850.004	23033
850.14	23014
850.275	23064
850.41	22976
850.545	23041
850.68	23037
850.815	22976
850.95	23033
851.085	23151
851.22	23121
851.355	23033
851.49	23006
851.625	22995
851.76	22976
851.895	23044
852.03	23010
852.165	23048
852.299	23010
852.434	23200
852.569	23003
852.703	23014
852.838	23128
852.973	23109
853.107	23220
853.242	22949
853.376	22847
853.511	22771
853.645	22782
853.78	22972
853.914	22953
854.048	22911
854.183	22953
854.317	22847
854.451	23140
854.585	22995
854.72	22854
854.854	22869
854.988	22858
855.122	22862
855.256	22801
855.39	22862
855.524	22919
855.658	22904
855.792	22938
855.926	22873
856.06	22946
856.194	22949
856.327	22858
856.461	22896
856.595	22847
856.729	22881
856.862	23079
856.996	22820
857.13	22790
857.263	22934
857.397	22873
857.53	22778
857.664	22843
857.797	22812
857.931	23003
858.064	22858
858.197	22938
858.331	22869
858.464	22839
858.597	22744
858.731	22725
858.864	22930
858.997	22820
859.13	22824
859.263	22995
859.396	22968
859.529	22892
859.662	22850
859.795	22900
859.928	22778
860.061	22987
860.194	23181
860.327	22786
860.46	22915
860.592	23094
860.725	23048
860.858	22911
860.99	22889
861.123	22790
861.256	22717
861.388	22927
861.521	23478
861.653	22824
861.786	22706
861.918	22660
862.05	22660
862.183	22729
862.315	22778
862.447	22854
862.58	22740
862.712	22512
862.844	22527
862.976	22542
863.108	22660
863.24	22987
863.372	22424
863.504	22485
863.636	22500
863.768	22577
863.9	22440
864.032	22485
864.164	22538
864.296	22588
864.428	22755
864.559	22519
864.691	22679
864.823	22672
864.954	22459
865.086	22565
865.217	22455
865.349	22390
865.48	22573
865.612	22398
865.743	22592
865.875	22615
866.006	22341
866.137	22451
866.269	22398
866.4	22459
866.531	22421
866.662	22177
866.793	22352
866.924	22493
867.055	22405
867.186	22363
867.317	22306
867.448	22299
867.579	22318
867.71	22265
867.841	22223
867.972	22325
868.103	22280
868.233	22344
868.364	22402
868.495	22481
868.625	22664
868.756	22717
868.886	22615
869.017	22561
869.147	22660
869.278	22706
869.408	22637
869.539	22607
869.669	22637
869.799	22645
869.929	22778
870.06	22660
870.19	22869
870.32	22942
870.45	22919
870.58	23048
870.71	23025
870.84	22984
870.97	22957
871.1	22911
871.23	23052
871.36	23162
871.489	23090
871.619	23159
871.749	23193
871.879	23208
872.008	23273
872.138	23318
872.267	23242
872.397	22987
872.526	22999
872.656	23060
872.785	23025
872.915	23159
873.044	23330
873.173	23337
873.303	23311
873.432	23349
873.561	23421
873.69	23288
873.819	23254
873.948	23273
874.077	23250
874.206	23159
874.335	23227
874.464	23330
874.593	23463
874.722	23455
874.851	23539
874.979	23509
875.108	23425
875.237	23246
875.365	23345
875.494	23345
875.623	23566
875.751	23444
875.88	23452
876.008	23486
876.136	23528
876.265	23908
876.393	23870
876.521	23874
876.65	23889
876.778	23821
876.906	23722
877.034	23718
877.162	23779
877.29	23661
877.418	23680
877.546	23939
877.674	23649
877.802	23805
877.93	23707
878.058	23733
878.185	23577
878.313	23897
878.441	23821
878.568	23592
878.696	23748
878.824	23707
878.951	23798
879.079	24030
879.206	24003
879.333	24041
879.461	23874
879.588	23840
879.715	23885
879.842	24095
879.97	23874
880.097	23638
880.224	23638
880.351	23592
880.478	23638
880.605	23615
880.732	23566
880.859	23878
880.986	23600
881.112	23604
881.239	23486
881.366	23242
881.493	23235
881.619	23227
881.746	23242
881.872	23277
881.999	23113
882.125	23052
882.252	23155
882.378	23223
882.505	23277
882.631	22900
882.757	22820
882.883	22927
883.01	22847
883.136	22869
883.262	22683
883.388	22596
883.514	22835
883.64	22831
883.766	22698
883.892	22504
884.018	22565
884.143	22801
884.269	22797
884.395	22508
884.52	22405
884.646	22405
884.772	22443
884.897	22356
885.023	22565
885.148	22542
885.274	22607
885.399	22398
885.524	22523
885.65	22516
885.775	22363
885.9	22459
886.025	22538
886.15	22390
886.275	22424
886.4	22424
886.525	22436
886.65	22360
886.775	22413
886.9	22394
887.025	22603
887.149	22402
887.274	22200
887.399	22139
887.523	22276
887.648	22139
887.773	22082
887.897	22219
888.021	22223
888.146	22173
888.27	22272
888.395	22234
888.519	22276
888.643	22120
888.767	22177
888.891	22097
889.015	21983
889.139	22059
889.263	21899
889.387	22006
889.511	22029
889.635	22181
889.759	21968
889.883	22059
890.006	21934
890.13	22006
890.254	21987
890.377	21846
890.501	21736
890.624	21694
890.748	21751
890.871	21660
890.995	21701
891.118	21595
891.241	21667
891.364	21625
891.488	21709
891.611	21572
891.734	21618
891.857	21610
891.98	21542
892.103	21633
892.226	21519
892.349	21431
892.471	21313
892.594	21530
892.717	21545
892.839	21408
892.962	21466
893.085	21500
893.207	21386
893.33	21313
893.452	21355
893.575	21443
893.697	21310
893.819	21572
893.941	21534
894.064	21576
894.186	21378
894.308	21256
894.43	21496
894.552	21458
894.674	21462
894.796	21233
894.918	21382
895.04	21279
895.161	21443
895.283	21363
895.405	21348
895.526	21355
895.648	21329
895.769	21488
895.891	21332
896.012	21496
896.134	21386
896.255	21325
896.376	21256
896.498	21477
896.619	21386
896.74	21348
896.861	21367
896.982	21755
897.103	21827
897.224	21675
897.345	21599
897.466	21530
897.587	21599
897.708	21618
897.828	21610
897.949	21526
898.07	21439
898.19	21500
898.311	21622
898.431	21557
898.552	21572
898.672	21507
898.792	21542
898.913	21622
899.033	21519
899.153	21313
899.273	21306
899.393	21252
899.513	21321
899.633	21389
899.753	21207
899.873	21241
899.993	21291
900.113	21325
900.232	21355
900.352	21298
900.472	21211
900.591	20967
900.711	21165
900.83	21066
900.95	21108
901.069	21176
901.189	20864
901.308	20731
901.427	20629
901.546	20667
901.665	20655
901.784	20583
901.904	20465
902.023	20396
902.141	20233
902.26	20077
902.379	20214
902.498	20103
902.617	20008
902.735	20168
902.854	20046
902.973	19974
903.091	19799
903.21	19776
903.328	19849
903.446	19655
903.565	19597
903.683	19658
903.801	19510
903.919	19559
904.038	19407
904.156	19396
904.274	19460
904.392	19339
904.51	19274
904.627	19289
904.745	19426
904.863	19430
904.981	19061
905.098	19110
905.216	19000
905.334	19076
905.451	19072
905.569	18932
905.686	19031
905.803	18932
905.921	18806
906.038	18871
906.155	18901
906.272	18719
906.389	18681
906.506	18536
906.623	18464
906.74	18521
906.857	18479
906.974	18502
907.091	18623
907.208	18593
907.324	18540
907.441	18388
907.557	18209
907.674	18201
907.79	18106
907.907	18186
908.023	18224
908.139	18213
908.256	18174
908.372	18159
908.488	18163
908.604	17912
908.72	17935
908.836	17889
908.952	17893
909.068	17851
909.184	18041
909.3	17916
909.415	17984
909.531	17832
909.647	17726
909.762	17726
909.878	17577
909.993	17699
910.108	17657
910.224	17566
910.339	17528
910.454	17501
910.57	17421
910.685	17307
910.8	17573
910.915	17596
911.03	17391
911.145	17193
911.259	17193
911.374	17254
911.489	17079
911.604	17067
911.718	16930
911.833	16881
911.947	16812
912.062	16774
912.176	16953
912.291	17037
912.405	16938
912.519	17098
912.633	17086
912.748	16953
912.862	16923
912.976	16683
913.09	16645
913.204	16793
913.318	16847
913.431	16793
913.545	16797
913.659	16816
913.772	16710
913.886	16622
914	16519
914.113	16622
914.226	16675
914.34	16519
914.453	16424
914.566	16577
914.68	16516
914.793	16253
914.906	16204
915.019	16211
915.132	16063
915.245	16067
915.358	16086
915.47	16006
915.583	16124
915.696	16090
915.809	16246
915.921	16303
916.034	16082
916.146	16017
916.259	15899
916.371	16109
916.483	16059
916.595	15987
916.708	15979
916.82	15960
916.932	15945
917.044	15831
917.156	15930
917.268	15698
917.38	15854
917.491	15675
917.603	15747
917.715	15739
917.826	15926
917.938	15701
918.049	15504
918.161	15603
918.272	15781
918.384	15701
918.495	15625
918.606	15545
918.717	15382
918.828	15492
918.939	15473
919.05	15367
919.161	15424
919.272	15233
919.383	15192
919.494	15488
919.604	15622
919.715	15439
919.826	15264
919.936	15382
920.047	15606
920.157	15450
920.267	15698
920.378	15477
920.488	15412
920.598	15618
920.708	15690
920.818	15671
920.928	15545
921.038	15671
921.148	15701
921.258	15351
921.368	15226
921.477	15142
921.587	15150
921.697	15062
921.806	15150
921.916	14941
922.025	14872
922.134	14811
922.244	14686
922.353	14788
922.462	14689
922.571	14613
922.68	14522
922.789	14484
922.898	14442
923.007	14423
923.116	14461
923.224	14488
923.333	14396
923.442	14240
923.55	14244
923.659	14195
923.767	14389
923.876	14199
923.984	14358
924.092	14237
924.201	14168
924.309	14126
924.417	14103
924.525	14035
924.633	14084
924.741	14864
924.849	13887
924.956	14069
925.064	13883
925.172	13753
925.279	13845
925.387	13921
925.494	13731
925.602	13906
925.709	13814
925.816	13685
925.924	13780
926.031	13856
926.138	13769
926.245	13723
926.352	13613
926.459	13719
926.566	13769
926.673	13582
926.779	13510
926.886	13544
926.993	13453
927.099	13335
927.206	13285
927.312	13198
927.419	13388
927.525	13304
927.631	13381
927.737	13304
927.843	13198
927.95	13122
928.056	13149
928.162	13168
928.267	13213
928.373	13685
928.479	13198
928.585	13000
928.69	13042
928.796	13133
928.901	12939
929.007	12848
929.112	12996
929.218	12848
929.323	12886
929.428	12909
929.533	12935
929.638	12764
929.743	12669
929.848	12890
929.953	12787
930.058	12627
930.163	12540
930.267	12593
930.372	12745
930.477	12395
930.581	12662
930.685	12559
930.79	12285
930.894	12388
930.998	12380
931.103	12426
931.207	12129
931.311	12117
931.415	11958
931.519	11737
931.623	11661
