Data from test_V78500241_3363.txt Node
Date: Fri Mar 25 16:05:05 CST 2022
User: usil
Spectrometer: V785-0024
Trigger mode: 0
Integration Time (sec): 4.000000E-1
Scans to average: 1
Nonlinearity correction enabled: false
Boxcar width: 0
Storing dark spectrum: false
XAxis mode: Wavelengths
Number of Pixels in Spectrum: 1024
>>>>>Begin Spectral Data<<<<<
801.071	28949
801.214	28759
801.356	28733
801.499	28527
801.641	28527
801.783	28451
801.926	28596
802.068	28527
802.211	28413
802.353	28390
802.496	28253
802.638	28177
802.78	28150
802.923	28185
803.065	28131
803.208	28044
803.35	28124
803.492	28379
803.635	28291
803.777	28223
803.919	28557
804.061	28622
804.204	28470
804.346	28481
804.488	28379
804.63	28474
804.773	28375
804.915	28538
805.057	28596
805.199	28333
805.341	28634
805.483	28607
805.626	28618
805.768	28481
805.91	28455
806.052	28546
806.194	28557
806.336	28672
806.478	28630
806.62	28702
806.762	28774
806.904	28900
807.046	29132
807.188	29064
807.33	29025
807.472	29140
807.614	28900
807.756	28984
807.898	28946
808.04	28771
808.182	28805
808.324	28927
808.465	28869
808.607	29113
808.749	29311
808.891	29337
809.033	29478
809.174	29402
809.316	29417
809.458	29353
809.6	29288
809.741	29570
809.883	29459
810.025	29528
810.166	29691
810.308	29623
810.45	29512
810.591	29535
810.733	29326
810.875	29170
811.016	29288
811.158	29330
811.299	29345
811.441	29436
811.582	29505
811.724	29387
811.865	29299
812.007	29318
812.148	29273
812.29	29269
812.431	29505
812.573	29649
812.714	29691
812.855	29832
812.997	29950
813.138	30098
813.279	29950
813.421	29783
813.562	29817
813.703	29585
813.845	29512
813.986	29288
814.127	29033
814.268	29044
814.41	29014
814.551	28999
814.692	29018
814.833	28942
814.974	28995
815.115	28965
815.256	28976
815.397	28908
815.539	29010
815.68	28847
815.821	28801
815.962	28839
816.103	28793
816.244	28736
816.385	28546
816.526	28630
816.666	28489
816.807	28211
816.948	28409
817.089	28363
817.23	28367
817.371	28257
817.512	28234
817.653	28322
817.793	28143
817.934	28417
818.075	28272
818.216	28436
818.356	28409
818.497	28116
818.638	28169
818.778	28101
818.919	28090
819.06	28166
819.2	28261
819.341	28246
819.481	28390
819.622	28531
819.762	28702
819.903	28504
820.043	28626
820.184	28390
820.324	28538
820.465	28493
820.605	28557
820.746	28493
820.886	28337
821.026	28493
821.167	28500
821.307	28421
821.447	28474
821.588	28135
821.728	28249
821.868	27975
822.008	27892
822.149	27899
822.289	27747
822.429	27473
822.569	27538
822.709	27443
822.849	27530
822.99	27325
823.13	27283
823.27	27233
823.41	27081
823.55	26906
823.69	27222
823.83	27165
823.97	27077
824.11	27013
824.25	26880
824.389	26899
824.529	27154
824.669	26933
824.809	26998
824.949	27074
825.089	27222
825.228	27116
825.368	26895
825.508	26864
825.648	26910
825.787	26887
825.927	26944
826.067	26796
826.206	26731
826.346	26933
826.485	26990
826.625	26948
826.765	27024
826.904	26929
827.044	26682
827.183	26781
827.323	26648
827.462	26720
827.601	26625
827.741	26590
827.88	26708
828.02	26503
828.159	26621
828.298	26579
828.437	26708
828.577	26514
828.716	26724
828.855	26564
828.994	26393
829.134	26202
829.273	26385
829.412	26370
829.551	26290
829.69	26271
829.829	26339
829.968	26385
830.107	26351
830.246	26317
830.385	26046
830.524	26111
830.663	26126
830.802	26062
830.941	25978
831.08	25887
831.219	26024
831.357	25925
831.496	26027
831.635	25913
831.774	25731
831.913	25753
832.051	25826
832.19	25776
832.329	25753
832.467	25594
832.606	25529
832.744	25567
832.883	25419
833.022	25582
833.16	25472
833.299	25605
833.437	25586
833.576	25620
833.714	25681
833.852	25689
833.991	25799
834.129	25772
834.267	25833
834.406	25620
834.544	25738
834.682	25738
834.821	25605
834.959	25811
835.097	25502
835.235	25693
835.373	25658
835.511	25605
835.65	25472
835.788	25407
835.926	25430
836.064	25266
836.202	25320
836.34	25510
836.478	25635
836.615	25434
836.753	25453
836.891	25483
837.029	25537
837.167	25464
837.305	25362
837.443	25278
837.58	25362
837.718	25381
837.856	25137
837.993	25240
838.131	25225
838.269	25091
838.406	25137
838.544	25183
838.681	24878
838.819	24719
838.956	24654
839.094	24684
839.231	24692
839.369	24829
839.506	25148
839.643	24966
839.781	24745
839.918	24715
840.055	24623
840.193	24635
840.33	24589
840.467	24578
840.604	24776
840.742	24928
840.879	24513
841.016	24513
841.153	24448
841.29	24779
841.427	24642
841.564	24764
841.701	24502
841.838	24616
841.975	24475
842.112	24536
842.249	24528
842.385	24216
842.522	24601
842.659	24528
842.796	24464
842.933	24410
843.069	24353
843.206	24467
843.343	24509
843.479	24300
843.616	24445
843.752	24327
843.889	24220
844.025	24342
844.162	24178
844.298	24304
844.435	24258
844.571	24148
844.708	24251
844.844	24342
844.98	24327
845.117	24410
845.253	24186
845.389	23999
845.525	24072
845.661	23977
845.798	23840
845.934	23996
846.07	23809
846.206	23939
846.342	24030
846.478	24015
846.614	23649
846.75	23653
846.886	23710
847.022	23699
847.158	23589
847.294	23516
847.429	23661
847.565	23497
847.701	23961
847.837	23425
847.972	23379
848.108	23585
848.244	23448
848.379	23368
848.515	23311
848.65	23151
848.786	23083
848.921	23178
849.057	23395
849.192	23227
849.328	23235
849.463	23254
849.598	23204
849.734	23147
849.869	23075
850.004	23140
850.14	23079
850.275	23121
850.41	22877
850.545	22892
850.68	23003
850.815	23010
850.95	22923
851.085	23208
851.22	23189
851.355	22999
851.49	22999
851.625	22999
851.76	22987
851.895	22919
852.03	22889
852.165	23044
852.299	23124
852.434	23151
852.569	23056
852.703	23018
852.838	23029
852.973	23117
853.107	23181
853.242	23010
853.376	22801
853.511	22736
853.645	22839
853.78	23029
853.914	22995
854.048	22736
854.183	22790
854.317	22854
854.451	22976
854.585	23014
854.72	22873
854.854	22915
854.988	22797
855.122	22801
855.256	22809
855.39	22850
855.524	23048
855.658	22889
855.792	22850
855.926	22873
856.06	22797
856.194	22987
856.327	22702
856.461	22812
856.595	22755
856.729	22927
856.862	22949
856.996	22824
857.13	22892
857.263	22984
857.397	22820
857.53	22889
857.664	22828
857.797	22965
857.931	22877
858.064	22866
858.197	22927
858.331	22820
858.464	22660
858.597	22641
858.731	22869
858.864	22786
858.997	22797
859.13	22889
859.263	22717
859.396	23067
859.529	22805
859.662	22786
859.795	22748
859.928	22809
860.061	22927
860.194	22915
860.327	22911
860.46	22889
860.592	22900
860.725	22930
860.858	22892
860.99	22900
861.123	22713
861.256	22752
861.388	22896
861.521	23516
861.653	22668
861.786	22561
861.918	22584
862.05	22782
862.183	22744
862.315	22759
862.447	22812
862.58	22736
862.712	22599
862.844	22516
862.976	22512
863.108	22599
863.24	22999
863.372	22402
863.504	22596
863.636	22519
863.768	22592
863.9	22538
864.032	22561
864.164	22618
864.296	22455
864.428	22767
864.559	22470
864.691	22554
864.823	22588
864.954	22516
865.086	22390
865.217	22360
865.349	22402
865.48	22409
865.612	22356
865.743	22634
865.875	22470
866.006	22299
866.137	22276
866.269	22295
866.4	22379
866.531	22421
866.662	22344
866.793	22409
866.924	22306
867.055	22268
867.186	22424
867.317	22386
867.448	22306
867.579	22219
867.71	22211
867.841	22211
867.972	22280
868.103	22382
868.233	22443
868.364	22280
868.495	22371
868.625	22569
868.756	22721
868.886	22500
869.017	22565
869.147	22645
869.278	22664
869.408	22557
869.539	22580
869.669	22626
869.799	22656
869.929	22637
870.06	22793
870.19	22980
870.32	22839
870.45	23037
870.58	23006
870.71	23044
870.84	23052
870.97	23037
871.1	22942
871.23	23185
871.36	23166
871.489	22934
871.619	23075
871.749	23124
871.879	23235
872.008	23307
872.138	23292
872.267	23189
872.397	23079
872.526	23090
872.656	22965
872.785	22889
872.915	23166
873.044	23258
873.173	23159
873.303	23204
873.432	23326
873.561	23391
873.69	23151
873.819	23227
873.948	23269
874.077	23109
874.206	23178
874.335	23132
874.464	23334
874.593	23528
874.722	23417
874.851	23372
874.979	23414
875.108	23558
875.237	23356
875.365	23326
875.494	23334
875.623	23391
875.751	23235
875.88	23299
876.008	23547
876.136	23539
876.265	23824
876.393	23882
876.521	23866
876.65	23992
876.778	23828
876.906	23710
877.034	23634
877.162	23691
877.29	23649
877.418	23672
877.546	23718
877.674	23771
877.802	23691
877.93	23665
878.058	23687
878.185	23570
878.313	23710
878.441	23646
878.568	23570
878.696	23737
878.824	23771
878.951	23790
879.079	23992
879.206	24030
879.333	23923
879.461	23748
879.588	23813
879.715	23870
879.842	23984
879.97	23771
880.097	23691
880.224	23490
880.351	23551
880.478	23452
880.605	23608
880.732	23760
880.859	23832
880.986	23653
881.112	23562
881.239	23391
881.366	23254
881.493	23178
881.619	23269
881.746	23261
881.872	23132
881.999	23105
882.125	22999
882.252	23128
882.378	23128
882.505	23159
882.631	23003
882.757	22839
882.883	22854
883.01	22801
883.136	22645
883.262	22706
883.388	22641
883.514	22847
883.64	22885
883.766	22828
883.892	22592
884.018	22531
884.143	22717
884.269	22713
884.395	22394
884.52	22455
884.646	22451
884.772	22341
884.897	22234
885.023	22249
885.148	22516
885.274	22466
885.399	22542
885.524	22542
885.65	22413
885.775	22474
885.9	22402
886.025	22344
886.15	22512
886.275	22371
886.4	22318
886.525	22371
886.65	22158
886.775	22303
886.9	22557
887.025	22527
887.149	22325
887.274	22128
887.399	22265
887.523	22166
887.648	22105
887.773	22139
887.897	22211
888.021	22265
888.146	22204
888.27	22421
888.395	22356
888.519	22284
888.643	22139
888.767	22101
888.891	22048
889.015	22059
889.139	22036
889.263	21987
889.387	22093
889.511	22131
889.635	21972
889.759	21907
889.883	21930
890.006	21911
890.13	22082
890.254	21903
890.377	21876
890.501	21789
890.624	21724
890.748	21682
890.871	21629
890.995	21431
891.118	21332
891.241	21492
891.364	21500
891.488	21652
891.611	21431
891.734	21549
891.857	21496
891.98	21572
892.103	21496
892.226	21405
892.349	21412
892.471	21245
892.594	21302
892.717	21405
892.839	21306
892.962	21439
893.085	21393
893.207	21370
893.33	21287
893.452	21302
893.575	21397
893.697	21462
893.819	21443
893.941	21561
894.064	21534
894.186	21264
894.308	21397
894.43	21450
894.552	21405
894.674	21336
894.796	21233
894.918	21363
895.04	21374
895.161	21340
895.283	21519
895.405	21252
895.526	21405
895.648	21272
895.769	21389
895.891	21374
896.012	21439
896.134	21393
896.255	21412
896.376	21173
896.498	21264
896.619	21367
896.74	21260
896.861	21340
896.982	21690
897.103	21698
897.224	21534
897.345	21511
897.466	21488
897.587	21618
897.708	21717
897.828	21458
897.949	21568
898.07	21416
898.19	21515
898.311	21648
898.431	21462
898.552	21504
898.672	21641
898.792	21572
898.913	21557
899.033	21370
899.153	21302
899.273	21199
899.393	21302
899.513	21260
899.633	21184
899.753	21260
899.873	21188
899.993	21138
900.113	21104
900.232	21298
900.352	21211
900.472	21077
900.591	21013
900.711	21036
900.83	21001
900.95	21070
901.069	21211
901.189	20868
901.308	20754
901.427	20629
901.546	20549
901.665	20552
901.784	20606
901.904	20495
902.023	20317
902.141	20309
902.26	20180
902.379	20286
902.498	20054
902.617	20119
902.735	20202
902.854	20001
902.973	20024
903.091	19788
903.21	19765
903.328	19746
903.446	19655
903.565	19548
903.683	19670
903.801	19434
903.919	19426
904.038	19480
904.156	19411
904.274	19392
904.392	19324
904.51	19304
904.627	19282
904.745	19419
904.863	19346
904.981	19057
905.098	19004
905.216	18916
905.334	19107
905.451	19072
905.569	18943
905.686	18985
905.803	18909
905.921	18738
906.038	18825
906.155	18722
906.272	18673
906.389	18715
906.506	18517
906.623	18513
906.74	18570
906.857	18376
906.974	18350
907.091	18547
907.208	18665
907.324	18536
907.441	18456
907.557	18220
907.674	18182
907.79	18228
907.907	18148
908.023	18319
908.139	18224
908.256	18224
908.372	18064
908.488	18072
908.604	17927
908.72	17950
908.836	17855
908.952	17992
909.068	17889
909.184	17999
909.3	17931
909.415	17897
909.531	17931
909.647	17543
909.762	17558
909.878	17532
909.993	17665
910.108	17486
910.224	17646
910.339	17581
910.454	17535
910.57	17398
910.685	17326
910.8	17558
910.915	17455
911.03	17467
911.145	17170
911.259	17265
911.374	17128
911.489	17147
911.604	17124
911.718	16923
911.833	16915
911.947	16896
912.062	16778
912.176	16839
912.291	16915
912.405	16957
912.519	17178
912.633	17060
912.748	17006
912.862	16839
912.976	16687
913.09	16729
913.204	16759
913.318	16710
913.431	16828
913.545	16793
913.659	16790
913.772	16733
913.886	16485
914	16519
914.113	16637
914.226	16603
914.34	16535
914.453	16424
914.566	16440
914.68	16466
914.793	16417
914.906	16204
915.019	16071
915.132	16048
915.245	16131
915.358	16147
915.47	16097
915.583	16074
915.696	16143
915.809	16200
915.921	16215
916.034	16128
916.146	16078
916.259	16025
916.371	16139
916.483	16055
916.595	16078
916.708	15934
916.82	15934
916.932	15835
917.044	15827
917.156	15850
917.268	15762
917.38	15720
917.491	15709
917.603	15637
917.715	15755
917.826	15827
917.938	15778
918.049	15549
918.161	15682
918.272	15781
918.384	15751
918.495	15568
918.606	15549
918.717	15439
918.828	15580
918.939	15431
919.05	15348
919.161	15450
919.272	15249
919.383	15367
919.494	15496
919.604	15549
919.715	15462
919.826	15401
919.936	15340
920.047	15538
920.157	15481
920.267	15557
920.378	15443
920.488	15348
920.598	15614
920.708	15766
920.818	15534
920.928	15606
921.038	15759
921.148	15610
921.258	15329
921.368	15355
921.477	15089
921.587	15097
921.697	14963
921.806	15127
921.916	14967
922.025	14845
922.134	14788
922.244	14815
922.353	14807
922.462	14640
922.571	14568
922.68	14434
922.789	14393
922.898	14347
923.007	14252
923.116	14328
923.224	14415
923.333	14427
923.442	14233
923.55	14259
923.659	14271
923.767	14252
923.876	14103
923.984	14199
924.092	14111
924.201	14119
924.309	14187
924.417	14107
924.525	14012
924.633	14008
924.741	14937
924.849	13833
924.956	13967
925.064	13772
925.172	13681
925.279	13704
925.387	13811
925.494	13734
925.602	13871
925.709	13788
925.816	13681
925.924	13719
926.031	13822
926.138	13677
926.245	13734
926.352	13567
926.459	13681
926.566	13651
926.673	13597
926.779	13491
926.886	13453
926.993	13362
927.099	13244
927.206	13263
927.312	13278
927.419	13392
927.525	13202
927.631	13343
927.737	13244
927.843	13179
927.95	13061
928.056	13091
928.162	13091
928.267	13091
928.373	13674
928.479	13099
928.585	12905
928.69	13034
928.796	13042
928.901	12932
929.007	12882
929.112	12905
929.218	12890
929.323	12890
929.428	12745
929.533	13004
929.638	12745
929.743	12741
929.848	12730
929.953	12711
930.058	12593
930.163	12525
930.267	12555
930.372	12677
930.477	12536
930.581	12658
930.685	12574
930.79	12433
930.894	12353
930.998	12369
931.103	12509
931.207	12114
931.311	11996
931.415	11954
931.519	11745
931.623	11748
