Data from test_V78500241_720.txt Node
Date: Fri Mar 25 15:46:47 CST 2022
User: usil
Spectrometer: V785-0024
Trigger mode: 0
Integration Time (sec): 4.000000E-1
Scans to average: 1
Nonlinearity correction enabled: false
Boxcar width: 0
Storing dark spectrum: false
XAxis mode: Wavelengths
Number of Pixels in Spectrum: 1024
>>>>>Begin Spectral Data<<<<<
801.071	28048
801.214	27892
801.356	27774
801.499	27682
801.641	27644
801.783	27538
801.926	27682
802.068	27519
802.211	27504
802.353	27466
802.496	27260
802.638	27298
802.78	27188
802.923	27272
803.065	27272
803.208	27192
803.35	27226
803.492	27351
803.635	27466
803.777	27348
803.919	27473
804.061	27728
804.204	27538
804.346	27458
804.488	27230
804.63	27283
804.773	27294
804.915	27405
805.057	27595
805.199	27496
805.341	27549
805.483	27580
805.626	27538
805.768	27408
805.91	27603
806.052	27637
806.194	27641
806.336	27682
806.478	27686
806.62	27603
806.762	27747
806.904	27861
807.046	28200
807.188	28101
807.33	28109
807.472	27888
807.614	27892
807.756	27937
807.898	27865
808.04	27888
808.182	27865
808.324	27884
808.465	27975
808.607	28150
808.749	28295
808.891	28367
809.033	28371
809.174	28405
809.316	28295
809.458	28215
809.6	28306
809.741	28413
809.883	28481
810.025	28538
810.166	28424
810.308	28455
810.45	28447
810.591	28535
810.733	28291
810.875	28162
811.016	28112
811.158	28261
811.299	28348
811.441	28356
811.582	28508
811.724	28185
811.865	28128
812.007	28276
812.148	28295
812.29	28344
812.431	28276
812.573	28588
812.714	28664
812.855	28771
812.997	28881
813.138	29102
813.279	28900
813.421	28809
813.562	28759
813.703	28656
813.845	28565
813.986	28341
814.127	28086
814.268	27979
814.41	27987
814.551	27857
814.692	28120
814.833	27941
814.974	27903
815.115	28010
815.256	27835
815.397	27766
815.539	27907
815.68	27694
815.821	27827
815.962	27671
816.103	27747
816.244	27835
816.385	27580
816.526	27469
816.666	27534
816.807	27237
816.948	27325
817.089	27351
817.23	27367
817.371	27211
817.512	27298
817.653	27226
817.793	27180
817.934	27233
818.075	27416
818.216	27195
818.356	27085
818.497	27093
818.638	27077
818.778	27013
818.919	27093
819.06	27036
819.2	27062
819.341	27112
819.481	27275
819.622	27363
819.762	27496
819.903	27431
820.043	27382
820.184	27492
820.324	27298
820.465	27344
820.605	27359
820.746	27252
820.886	27199
821.026	27298
821.167	27462
821.307	27416
821.447	27317
821.588	27074
821.728	27009
821.868	26868
822.008	26701
822.149	26758
822.289	26640
822.429	26389
822.569	26396
822.709	26377
822.849	26275
822.99	26275
823.13	26199
823.27	26225
823.41	25963
823.55	25993
823.69	26111
823.83	26031
823.97	26130
824.11	25928
824.25	25776
824.389	25902
824.529	26077
824.669	25898
824.809	26062
824.949	25982
825.089	25906
825.228	25936
825.368	25849
825.508	25811
825.648	25780
825.787	25776
825.927	25795
826.067	25742
826.206	25708
826.346	25826
826.485	25837
826.625	25753
826.765	25860
826.904	25655
827.044	25487
827.183	25499
827.323	25499
827.462	25396
827.601	25381
827.741	25438
827.88	25590
828.02	25293
828.159	25343
828.298	25445
828.437	25518
828.577	25434
828.716	25388
828.855	25457
828.994	25156
829.134	25137
829.273	25164
829.412	25103
829.551	25099
829.69	25160
829.829	25160
829.968	25187
830.107	25282
830.246	25061
830.385	25076
830.524	25053
830.663	24909
830.802	24741
830.941	24726
831.08	24817
831.219	24715
831.357	24776
831.496	24981
831.635	24650
831.774	24722
831.913	24707
832.051	24616
832.19	24566
832.329	24665
832.467	24490
832.606	24292
832.744	24346
832.883	24365
833.022	24388
833.16	24376
833.299	24536
833.437	24509
833.576	24517
833.714	24585
833.852	24650
833.991	24414
834.129	24661
834.267	24494
834.406	24585
834.544	24532
834.682	24509
834.821	24635
834.959	24650
835.097	24437
835.235	24604
835.373	24376
835.511	24403
835.65	24361
835.788	24232
835.926	24273
836.064	24136
836.202	24110
836.34	24361
836.478	24471
836.615	24384
836.753	24334
836.891	24285
837.029	24254
837.167	24258
837.305	24121
837.443	24239
837.58	24239
837.718	24133
837.856	24167
837.993	24030
838.131	24125
838.269	23980
838.406	24095
838.544	23996
838.681	23847
838.819	23718
838.956	23634
839.094	23611
839.231	23672
839.369	23885
839.506	24011
839.643	23786
839.781	23573
839.918	23573
840.055	23646
840.193	23615
840.33	23524
840.467	23596
840.604	23684
840.742	23771
840.879	23368
841.016	23433
841.153	23440
841.29	23596
841.427	23482
841.564	23547
841.701	23543
841.838	23535
841.975	23410
842.112	23455
842.249	23463
842.385	23280
842.522	23497
842.659	23421
842.796	23280
842.933	23254
843.069	23246
843.206	23189
843.343	23254
843.479	23242
843.616	23265
843.752	23064
843.889	23159
844.025	23162
844.162	23037
844.298	23143
844.435	23048
844.571	23041
844.708	23029
844.844	23277
844.98	23136
845.117	23250
845.253	23113
845.389	22976
845.525	22930
845.661	22991
845.798	22930
845.934	22752
846.07	22733
846.206	22850
846.342	22965
846.478	22744
846.614	22675
846.75	22436
846.886	22550
847.022	22557
847.158	22523
847.294	22535
847.429	22550
847.565	22497
847.701	22675
847.837	22360
847.972	22234
848.108	22390
848.244	22318
848.379	22185
848.515	22097
848.65	22207
848.786	22124
848.921	22181
849.057	22234
849.192	22162
849.328	22116
849.463	22242
849.598	21987
849.734	21998
849.869	21888
850.004	21926
850.14	22051
850.275	21979
850.41	21861
850.545	21869
850.68	21789
850.815	21873
850.95	21842
851.085	22147
851.22	21964
851.355	21899
851.49	21739
851.625	21869
851.76	21808
851.895	21781
852.03	21724
852.165	21895
852.299	21888
852.434	21998
852.569	21869
852.703	22021
852.838	21956
852.973	21934
853.107	21892
853.242	21755
853.376	21701
853.511	21515
853.645	21587
853.78	21854
853.914	21610
854.048	21595
854.183	21762
854.317	21686
854.451	21915
854.585	21644
854.72	21667
854.854	21831
854.988	21751
855.122	21667
855.256	21603
855.39	21713
855.524	21842
855.658	21766
855.792	21625
855.926	21671
856.06	21785
856.194	21823
856.327	21663
856.461	21595
856.595	21663
856.729	21644
856.862	21762
856.996	21816
857.13	21728
857.263	21816
857.397	21770
857.53	21739
857.664	21835
857.797	21732
857.931	21759
858.064	21732
858.197	21876
858.331	21637
858.464	21614
858.597	21538
858.731	21717
858.864	21819
858.997	21663
859.13	21614
859.263	21781
859.396	21850
859.529	21743
859.662	21667
859.795	21770
859.928	21728
860.061	21865
860.194	21854
860.327	21827
860.46	21667
860.592	21804
860.725	21953
860.858	21838
860.99	21679
861.123	21618
861.256	21755
861.388	21717
861.521	22322
861.653	21599
861.786	21507
861.918	21545
862.05	21648
862.183	21622
862.315	21549
862.447	21660
862.58	21530
862.712	21386
862.844	21458
862.976	21477
863.108	21435
863.24	21956
863.372	21386
863.504	21469
863.636	21306
863.768	21477
863.9	21389
864.032	21367
864.164	21313
864.296	21408
864.428	21568
864.559	21443
864.691	21545
864.823	21386
864.954	21450
865.086	21469
865.217	21348
865.349	21173
865.48	21233
865.612	21325
865.743	21439
865.875	21272
866.006	21310
866.137	21317
866.269	21370
866.4	21329
866.531	21272
866.662	21287
866.793	21165
866.924	21351
867.055	21359
867.186	21157
867.317	21207
867.448	21287
867.579	21222
867.71	21138
867.841	21207
867.972	21207
868.103	21180
868.233	21310
868.364	21180
868.495	21283
868.625	21538
868.756	21542
868.886	21568
869.017	21401
869.147	21553
869.278	21660
869.408	21526
869.539	21473
869.669	21538
869.799	21538
869.929	21595
870.06	21564
870.19	21781
870.32	21720
870.45	21846
870.58	21956
870.71	21964
870.84	21934
870.97	21892
871.1	21861
871.23	22044
871.36	21987
871.489	21911
871.619	22135
871.749	22150
871.879	22093
872.008	22181
872.138	22154
872.267	22097
872.397	22055
872.526	22055
872.656	22002
872.785	21880
872.915	22131
873.044	22181
873.173	22093
873.303	22135
873.432	22185
873.561	22200
873.69	21979
873.819	22101
873.948	22162
874.077	22158
874.206	22067
874.335	22135
874.464	22181
874.593	22280
874.722	22386
874.851	22402
874.979	22409
875.108	22413
875.237	22238
875.365	22105
875.494	22405
875.623	22447
875.751	22318
875.88	22363
876.008	22379
876.136	22512
876.265	22694
876.393	22812
876.521	22717
876.65	22828
876.778	22729
876.906	22710
877.034	22599
877.162	22668
877.29	22729
877.418	22679
877.546	22618
877.674	22786
877.802	22584
877.93	22634
878.058	22782
878.185	22538
878.313	22634
878.441	22596
878.568	22455
878.696	22660
878.824	22596
878.951	22835
879.079	22847
879.206	22957
879.333	22869
879.461	22622
879.588	22782
879.715	22938
879.842	22850
879.97	22706
880.097	22443
880.224	22455
880.351	22557
880.478	22500
880.605	22382
880.732	22557
880.859	22812
880.986	22573
881.112	22535
881.239	22356
881.366	22261
881.493	22067
881.619	22154
881.746	22207
881.872	22074
881.999	22048
882.125	22006
882.252	22158
882.378	21968
882.505	22036
882.631	21869
882.757	21850
882.883	21865
883.01	21800
883.136	21717
883.262	21633
883.388	21671
883.514	21751
883.64	21823
883.766	21698
883.892	21618
884.018	21454
884.143	21660
884.269	21637
884.395	21302
884.52	21412
884.646	21367
884.772	21283
884.897	21310
885.023	21412
885.148	21511
885.274	21488
885.399	21454
885.524	21325
885.65	21443
885.775	21477
885.9	21329
886.025	21386
886.15	21576
886.275	21397
886.4	21317
886.525	21363
886.65	21226
886.775	21222
886.9	21564
887.025	21583
887.149	21291
887.274	21188
887.399	21085
887.523	21211
887.648	21100
887.773	20998
887.897	21249
888.021	21157
888.146	21085
888.27	21188
888.395	21268
888.519	21146
888.643	21135
888.767	21180
888.891	21058
889.015	21020
889.139	20937
889.263	20918
889.387	21077
889.511	21135
889.635	21051
889.759	20971
889.883	20838
890.006	20895
890.13	21009
890.254	20944
890.377	20868
890.501	20674
890.624	20598
890.748	20773
890.871	20606
890.995	20564
891.118	20427
891.241	20549
891.364	20503
891.488	20564
891.611	20636
891.734	20571
891.857	20571
891.98	20518
892.103	20609
892.226	20514
892.349	20324
892.471	20343
892.594	20408
892.717	20381
892.839	20412
892.962	20412
893.085	20488
893.207	20488
893.33	20324
893.452	20317
893.575	20488
893.697	20442
893.819	20575
893.941	20530
894.064	20621
894.186	20328
894.308	20332
894.43	20427
894.552	20511
894.674	20522
894.796	20351
894.918	20362
895.04	20404
895.161	20492
895.283	20438
895.405	20393
895.526	20377
895.648	20336
895.769	20473
895.891	20518
896.012	20533
896.134	20412
896.255	20526
896.376	20282
896.498	20278
896.619	20450
896.74	20370
896.861	20564
896.982	20864
897.103	20826
897.224	20674
897.345	20674
897.466	20533
897.587	20674
897.708	20746
897.828	20613
897.949	20590
898.07	20507
898.19	20556
898.311	20746
898.431	20480
898.552	20590
898.672	20583
898.792	20708
898.913	20583
899.033	20552
899.153	20480
899.273	20427
899.393	20381
899.513	20461
899.633	20339
899.753	20404
899.873	20187
899.993	20434
900.113	20332
900.232	20332
900.352	20259
900.472	20218
900.591	20168
900.711	20202
900.83	20084
900.95	20271
901.069	20301
901.189	20062
901.308	19708
901.427	19708
901.546	19715
901.665	19677
901.784	19830
901.904	19674
902.023	19548
902.141	19426
902.26	19213
902.379	19339
902.498	19187
902.617	19206
902.735	19190
902.854	19221
902.973	19038
903.091	19019
903.21	18886
903.328	18817
903.446	18886
903.565	18604
903.683	18707
903.801	18585
903.919	18623
904.038	18730
904.156	18559
904.274	18551
904.392	18467
904.51	18422
904.627	18448
904.745	18574
904.863	18471
904.981	18289
905.098	18190
905.216	18171
905.334	18106
905.451	18148
905.569	18144
905.686	18197
905.803	18228
905.921	17893
906.038	18129
906.155	17920
906.272	17855
906.389	17843
906.506	17638
906.623	17649
906.74	17729
906.857	17524
906.974	17619
907.091	17729
907.208	17813
907.324	17676
907.441	17512
907.557	17417
907.674	17303
907.79	17322
907.907	17368
908.023	17421
908.139	17288
908.256	17318
908.372	17368
908.488	17166
908.604	17151
908.72	17079
908.836	17041
908.952	17071
909.068	17132
909.184	17227
909.3	17102
909.415	17159
909.531	17052
909.647	16873
909.762	16759
909.878	16717
909.993	16816
910.108	16831
910.224	16691
910.339	16645
910.454	16710
910.57	16630
910.685	16580
910.8	16866
910.915	16763
911.03	16588
911.145	16421
911.259	16367
911.374	16329
911.489	16276
911.604	16280
911.718	16196
911.833	16223
911.947	16044
912.062	15968
912.176	16086
912.291	16242
912.405	16051
912.519	16219
912.633	16360
912.748	16196
912.862	16135
912.976	15953
913.09	15865
913.204	15876
913.318	15968
913.431	16048
913.545	15964
913.659	16040
913.772	15850
913.886	15797
914	15854
914.113	15876
914.226	15831
914.34	15766
914.453	15584
914.566	15812
914.68	15660
914.793	15534
914.906	15397
915.019	15325
915.132	15329
915.245	15359
915.358	15420
915.47	15325
915.583	15382
915.696	15317
915.809	15435
915.921	15393
916.034	15317
916.146	15184
916.259	15173
916.371	15382
916.483	15207
916.595	15154
916.708	15203
916.82	15184
916.932	15173
917.044	15085
917.156	15032
917.268	14990
917.38	15051
917.491	14952
917.603	15028
917.715	15070
917.826	15043
917.938	14872
918.049	14826
918.161	14902
918.272	15119
918.384	15032
918.495	14963
918.606	14769
918.717	14689
918.828	14777
918.939	14864
919.05	14549
919.161	14800
919.272	14495
919.383	14556
919.494	14739
919.604	14971
919.715	14731
919.826	14640
919.936	14701
920.047	14724
920.157	14762
920.267	14849
920.378	14739
920.488	14708
920.598	14845
920.708	15097
920.818	14682
920.928	14887
921.038	14933
921.148	14986
921.258	14712
921.368	14545
921.477	14423
921.587	14480
921.697	14248
921.806	14492
921.916	14278
922.025	14145
922.134	14130
922.244	14130
922.353	14020
922.462	13925
922.571	13875
922.68	13791
922.789	13674
922.898	13791
923.007	13685
923.116	13784
923.224	13628
923.333	13662
923.442	13487
923.55	13441
923.659	13491
923.767	13674
923.876	13533
923.984	13605
924.092	13438
924.201	13483
924.309	13464
924.417	13457
924.525	13365
924.633	13438
924.741	14317
924.849	13209
924.956	13392
925.064	13183
925.172	13137
925.279	13183
925.387	13099
925.494	13183
925.602	13251
925.709	13103
925.816	12985
925.924	13084
926.031	13126
926.138	13042
926.245	13103
926.352	12947
926.459	13103
926.566	13103
926.673	12939
926.779	12890
926.886	12886
926.993	12776
927.099	12665
927.206	12612
927.312	12673
927.419	12707
927.525	12677
927.631	12719
927.737	12566
927.843	12486
927.95	12525
928.056	12445
928.162	12486
928.267	12483
928.373	13228
928.479	12532
928.585	12281
928.69	12513
928.796	12544
928.901	12388
929.007	12304
929.112	12441
929.218	12384
929.323	12194
929.428	12323
929.533	12369
929.638	12190
929.743	12148
929.848	12163
929.953	12201
930.058	12060
930.163	11923
930.267	11908
930.372	12026
930.477	11847
930.581	12087
930.685	11882
930.79	11828
930.894	11771
930.998	11737
931.103	11950
931.207	11539
931.311	11455
931.415	11425
931.519	11212
931.623	11151
