Data from test_V78500241_347.txt Node
Date: Fri Mar 25 15:44:12 CST 2022
User: usil
Spectrometer: V785-0024
Trigger mode: 0
Integration Time (sec): 4.000000E-1
Scans to average: 1
Nonlinearity correction enabled: false
Boxcar width: 0
Storing dark spectrum: false
XAxis mode: Wavelengths
Number of Pixels in Spectrum: 1024
>>>>>Begin Spectral Data<<<<<
801.071	29638
801.214	29672
801.356	29436
801.499	29444
801.641	29349
801.783	29307
801.926	29368
802.068	29239
802.211	29166
802.353	29136
802.496	28904
802.638	29033
802.78	28835
802.923	28919
803.065	28862
803.208	28847
803.35	28965
803.492	29010
803.635	29056
803.777	28984
803.919	29109
804.061	29509
804.204	29170
804.346	29022
804.488	28927
804.63	29189
804.773	28972
804.915	28930
805.057	29212
805.199	29117
805.341	29159
805.483	29235
805.626	29220
805.768	29102
805.91	29136
806.052	29235
806.194	29235
806.336	29417
806.478	29181
806.62	29239
806.762	29364
806.904	29478
807.046	29737
807.188	29691
807.33	29691
807.472	29779
807.614	29619
807.756	29615
807.898	29452
808.04	29600
808.182	29551
808.324	29436
808.465	29444
808.607	29649
808.749	29813
808.891	30053
809.033	30106
809.174	29840
809.316	30011
809.458	29939
809.6	29775
809.741	30007
809.883	29946
810.025	30148
810.166	30235
810.308	30224
810.45	30057
810.591	30224
810.733	30068
810.875	29916
811.016	29714
811.158	29748
811.299	29973
811.441	30015
811.582	30129
811.724	29836
811.865	29764
812.007	29729
812.148	29992
812.29	29901
812.431	30102
812.573	30205
812.714	30342
812.855	30277
812.997	30407
813.138	30734
813.279	30528
813.421	30403
813.562	30422
813.703	30190
813.845	30129
813.986	29878
814.127	29630
814.268	29581
814.41	29585
814.551	29539
814.692	29668
814.833	29433
814.974	29516
815.115	29573
815.256	29421
815.397	29402
815.539	29436
815.68	29307
815.821	29360
815.962	29349
816.103	29395
816.244	29162
816.385	29162
816.526	29067
816.666	28946
816.807	28786
816.948	28869
817.089	29124
817.23	28900
817.371	28763
817.512	28858
817.653	28683
817.793	28645
817.934	28942
818.075	28835
818.216	28615
818.356	28790
818.497	28645
818.638	28557
818.778	28611
818.919	28569
819.06	28592
819.2	28710
819.341	28763
819.481	28736
819.622	28965
819.762	29083
819.903	29067
820.043	28987
820.184	28877
820.324	28980
820.465	28877
820.605	28888
820.746	28930
820.886	28694
821.026	28672
821.167	28725
821.307	28961
821.447	28771
821.588	28565
821.728	28580
821.868	28325
822.008	28234
822.149	28280
822.289	28135
822.429	27941
822.569	27873
822.709	27899
822.849	27751
822.99	27717
823.13	27705
823.27	27561
823.41	27523
823.55	27469
823.69	27515
823.83	27496
823.97	27427
824.11	27298
824.25	27264
824.389	27287
824.529	27287
824.669	27329
824.809	27443
824.949	27492
825.089	27268
825.228	27287
825.368	27108
825.508	27150
825.648	27226
825.787	27169
825.927	27165
826.067	27074
826.206	27291
826.346	27138
826.485	27203
826.625	27116
826.765	27389
826.904	27055
827.044	26910
827.183	26880
827.323	26777
827.462	26979
827.601	26754
827.741	26815
827.88	26910
828.02	26762
828.159	26720
828.298	26811
828.437	26910
828.577	26823
828.716	26830
828.855	26606
828.994	26503
829.134	26602
829.273	26629
829.412	26446
829.551	26415
829.69	26362
829.829	26549
829.968	26568
830.107	26545
830.246	26343
830.385	26518
830.524	26320
830.663	26161
830.802	26126
830.941	26069
831.08	26020
831.219	26134
831.357	26199
831.496	26317
831.635	26111
831.774	25986
831.913	25906
832.051	25849
832.19	25879
832.329	25849
832.467	25750
832.606	25597
832.744	25639
832.883	25704
833.022	25620
833.16	25757
833.299	25772
833.437	25746
833.576	25780
833.714	25769
833.852	25738
833.991	25712
834.129	25875
834.267	25818
834.406	25689
834.544	25704
834.682	25753
834.821	25674
834.959	25780
835.097	25559
835.235	25811
835.373	25700
835.511	25753
835.65	25499
835.788	25620
835.926	25365
836.064	25343
836.202	25339
836.34	25464
836.478	25658
836.615	25635
836.753	25731
836.891	25643
837.029	25571
837.167	25457
837.305	25369
837.443	25514
837.58	25362
837.718	25460
837.856	25403
837.993	25293
838.131	25388
838.269	25148
838.406	25221
838.544	25141
838.681	25031
838.819	24875
838.956	24798
839.094	24806
839.231	24852
839.369	24951
839.506	25194
839.643	24875
839.781	24802
839.918	24715
840.055	24654
840.193	24719
840.33	24673
840.467	24741
840.604	24700
840.742	24913
840.879	24593
841.016	24547
841.153	24555
841.29	24707
841.427	24753
841.564	24646
841.701	24589
841.838	24604
841.975	24475
842.112	24639
842.249	24418
842.385	24308
842.522	24525
842.659	24429
842.796	24315
842.933	24471
843.069	24243
843.206	24292
843.343	24384
843.479	24395
843.616	24315
843.752	24247
843.889	24022
844.025	24258
844.162	24140
844.298	24205
844.435	24045
844.571	24182
844.708	24201
844.844	24319
844.98	24384
845.117	24194
845.253	24095
845.389	24007
845.525	24015
845.661	23977
845.798	23836
845.934	23996
846.07	23817
846.206	23874
846.342	23866
846.478	23691
846.614	23608
846.75	23471
846.886	23531
847.022	23592
847.158	23676
847.294	23566
847.429	23615
847.565	23638
847.701	23581
847.837	23185
847.972	23208
848.108	23330
848.244	23250
848.379	23246
848.515	23094
848.65	23056
848.786	23079
848.921	23174
849.057	23143
849.192	23181
849.328	23159
849.463	23200
849.598	23075
849.734	22995
849.869	23029
850.004	22953
850.14	22889
850.275	22908
850.41	22771
850.545	22850
850.68	22843
850.815	22911
850.95	22793
851.085	23052
851.22	23010
851.355	22843
851.49	22869
851.625	22786
851.76	22839
851.895	22675
852.03	22793
852.165	22816
852.299	22934
852.434	22835
852.569	22828
852.703	22828
852.838	22847
852.973	22927
853.107	23010
853.242	22793
853.376	22618
853.511	22535
853.645	22630
853.78	22592
853.914	22546
854.048	22554
854.183	22626
854.317	22641
854.451	22854
854.585	22599
854.72	22455
854.854	22721
854.988	22584
855.122	22592
855.256	22485
855.39	22626
855.524	22672
855.658	22634
855.792	22557
855.926	22698
856.06	22672
856.194	22721
856.327	22535
856.461	22561
856.595	22634
856.729	22584
856.862	22660
856.996	22611
857.13	22736
857.263	22622
857.397	22797
857.53	22752
857.664	22660
857.797	22649
857.931	22592
858.064	22733
858.197	22694
858.331	22622
858.464	22512
858.597	22478
858.731	22481
858.864	22512
858.997	22569
859.13	22561
859.263	22618
859.396	22805
859.529	22519
859.662	22500
859.795	22413
859.928	22618
860.061	22679
860.194	22900
860.327	22615
860.46	22615
860.592	22664
860.725	22637
860.858	22637
860.99	22622
861.123	22519
861.256	22618
861.388	22481
861.521	23311
861.653	22500
861.786	22371
861.918	22409
862.05	22508
862.183	22660
862.315	22626
862.447	22584
862.58	22497
862.712	22382
862.844	22169
862.976	22398
863.108	22329
863.24	22592
863.372	22253
863.504	22188
863.636	22242
863.768	22272
863.9	22284
864.032	22188
864.164	22268
864.296	22226
864.428	22398
864.559	22409
864.691	22341
864.823	22265
864.954	22211
865.086	22120
865.217	22280
865.349	22051
865.48	22268
865.612	22185
865.743	22322
865.875	22158
866.006	22109
866.137	22135
866.269	22242
866.4	22105
866.531	22097
866.662	22116
866.793	22010
866.924	22112
867.055	22246
867.186	22010
867.317	22013
867.448	21956
867.579	22063
867.71	21941
867.841	21922
867.972	22048
868.103	21956
868.233	22105
868.364	22185
868.495	22204
868.625	22253
868.756	22329
868.886	22249
869.017	22276
869.147	22386
869.278	22337
869.408	22363
869.539	22284
869.669	22367
869.799	22295
869.929	22481
870.06	22344
870.19	22569
870.32	22584
870.45	22668
870.58	22607
870.71	22778
870.84	22835
870.97	22641
871.1	22626
871.23	22881
871.36	22877
871.489	22908
871.619	22942
871.749	22976
871.879	22942
872.008	23044
872.138	22949
872.267	22942
872.397	22946
872.526	22649
872.656	22736
872.785	22733
872.915	23003
873.044	23041
873.173	22896
873.303	23014
873.432	22953
873.561	22999
873.69	23003
873.819	22927
873.948	22919
874.077	22965
874.206	22805
874.335	22923
874.464	23060
874.593	23220
874.722	23025
874.851	23018
874.979	23261
875.108	23178
875.237	23079
875.365	23109
875.494	23041
875.623	23166
875.751	23071
875.88	23117
876.008	23239
876.136	23356
876.265	23581
876.393	23562
876.521	23615
876.65	23543
876.778	23501
876.906	23554
877.034	23474
877.162	23478
877.29	23436
877.418	23509
877.546	23482
877.674	23444
877.802	23425
877.93	23376
878.058	23505
878.185	23398
878.313	23265
878.441	23497
878.568	23280
878.696	23349
878.824	23478
878.951	23619
879.079	23718
879.206	23703
879.333	23718
879.461	23509
879.588	23615
879.715	23604
879.842	23847
879.97	23448
880.097	23345
880.224	23307
880.351	23254
880.478	23212
880.605	23353
880.732	23174
880.859	23490
880.986	23288
881.112	23296
881.239	23075
881.366	23003
881.493	22999
881.619	22889
881.746	22873
881.872	22938
881.999	22782
882.125	22797
882.252	22934
882.378	22801
882.505	22858
882.631	22744
882.757	22656
882.883	22694
883.01	22470
883.136	22538
883.262	22375
883.388	22379
883.514	22428
883.64	22538
883.766	22325
883.892	22382
884.018	22348
884.143	22481
884.269	22565
884.395	22310
884.52	22177
884.646	22234
884.772	22029
884.897	22044
885.023	22238
885.148	22234
885.274	22318
885.399	22310
885.524	22131
885.65	22032
885.775	22147
885.9	22200
886.025	22169
886.15	22230
886.275	22116
886.4	22128
886.525	22059
886.65	22188
886.775	22139
886.9	22253
887.025	22413
887.149	22025
887.274	21918
887.399	21964
887.523	21857
887.648	21797
887.773	21781
887.897	21987
888.021	21930
888.146	21778
888.27	21934
888.395	22147
888.519	21838
888.643	21865
888.767	21892
888.891	21728
889.015	21648
889.139	21759
889.263	21568
889.387	21717
889.511	21922
889.635	21888
889.759	21606
889.883	21622
890.006	21606
890.13	21720
890.254	21564
890.377	21755
890.501	21405
890.624	21321
890.748	21500
890.871	21317
890.995	21089
891.118	21237
891.241	21214
891.364	21230
891.488	21332
891.611	21108
891.734	21291
891.857	21370
891.98	21268
892.103	21336
892.226	21355
892.349	21222
892.471	21154
892.594	21089
892.717	21138
892.839	21165
892.962	21058
893.085	21268
893.207	21112
893.33	21001
893.452	21009
893.575	21275
893.697	21184
893.819	21370
893.941	21176
894.064	21226
894.186	20960
894.308	21020
894.43	21108
894.552	21279
894.674	21218
894.796	21001
894.918	21077
895.04	21066
895.161	21123
895.283	21089
895.405	21085
895.526	21184
895.648	21100
895.769	21104
895.891	21214
896.012	21142
896.134	21119
896.255	21180
896.376	21184
896.498	21154
896.619	21195
896.74	21135
896.861	21199
896.982	21466
897.103	21682
897.224	21481
897.345	21374
897.466	21272
897.587	21287
897.708	21424
897.828	21367
897.949	21245
898.07	21218
898.19	21348
898.311	21294
898.431	21256
898.552	21203
898.672	21393
898.792	21340
898.913	21245
899.033	21131
899.153	21093
899.273	21001
899.393	21131
899.513	21043
899.633	20986
899.753	21066
899.873	21028
899.993	21020
900.113	20895
900.232	20952
900.352	20933
900.472	20895
900.591	20765
900.711	20792
900.83	20777
900.95	20868
901.069	20956
901.189	20689
901.308	20431
901.427	20450
901.546	20267
901.665	20210
901.784	20370
901.904	20240
902.023	20172
902.141	19940
902.26	19921
902.379	19898
902.498	19932
902.617	19860
902.735	19887
902.854	19750
902.973	19753
903.091	19514
903.21	19407
903.328	19544
903.446	19377
903.565	19415
903.683	19266
903.801	19095
903.919	19202
904.038	19217
904.156	19095
904.274	19110
904.392	19031
904.51	18973
904.627	19038
904.745	19107
904.863	19129
904.981	18947
905.098	18677
905.216	18719
905.334	18692
905.451	18665
905.569	18707
905.686	18783
905.803	18616
905.921	18407
906.038	18585
906.155	18544
906.272	18426
906.389	18475
906.506	18213
906.623	18201
906.74	18232
906.857	18087
906.974	18140
907.091	18277
907.208	18330
907.324	18254
907.441	18136
907.557	18003
907.674	17931
907.79	17931
907.907	17996
908.023	17904
908.139	17996
908.256	17817
908.372	17657
908.488	17779
908.604	17672
908.72	17554
908.836	17661
908.952	17512
909.068	17657
909.184	17718
909.3	17566
909.415	17615
909.531	17672
909.647	17406
909.762	17299
909.878	17239
909.993	17284
910.108	17326
910.224	17220
910.339	17299
910.454	17105
910.57	17102
910.685	17109
910.8	17322
910.915	17239
911.03	17143
911.145	16991
911.259	16835
911.374	16881
911.489	16854
911.604	16744
911.718	16607
911.833	16675
911.947	16607
912.062	16466
912.176	16615
912.291	16687
912.405	16622
912.519	16729
912.633	16736
912.748	16626
912.862	16622
912.976	16367
913.09	16310
913.204	16375
913.318	16493
913.431	16504
913.545	16424
913.659	16500
913.772	16379
913.886	16204
914	16219
914.113	16363
914.226	16306
914.34	16329
914.453	15987
914.566	16139
914.68	16120
914.793	16082
914.906	15903
915.019	15850
915.132	15789
915.245	15797
915.358	15804
915.47	15747
915.583	15861
915.696	15751
915.809	15899
915.921	15953
916.034	15682
916.146	15663
916.259	15625
916.371	15804
916.483	15705
916.595	15603
916.708	15523
916.82	15629
916.932	15648
917.044	15549
917.156	15469
917.268	15496
917.38	15431
917.491	15447
917.603	15367
917.715	15473
917.826	15523
917.938	15336
918.049	15252
918.161	15393
918.272	15428
918.384	15397
918.495	15359
918.606	15230
918.717	15077
918.828	15066
918.939	15294
919.05	15024
919.161	15100
919.272	14883
919.383	14876
919.494	15116
919.604	15340
919.715	15116
919.826	15017
919.936	15001
920.047	15100
920.157	15055
920.267	15218
920.378	15180
920.488	15104
920.598	15138
920.708	15313
920.818	15260
920.928	15207
921.038	15302
921.148	15302
921.258	14956
921.368	14941
921.477	14811
921.587	14849
921.697	14674
921.806	14815
921.916	14670
922.025	14473
922.134	14446
922.244	14343
922.353	14545
922.462	14320
922.571	14218
922.68	14100
922.789	14001
922.898	14157
923.007	14035
923.116	14092
923.224	14020
923.333	13959
923.442	13986
923.55	13936
923.659	14008
923.767	13921
923.876	13852
923.984	13902
924.092	13788
924.201	13883
924.309	13734
924.417	13811
924.525	13647
924.633	13704
924.741	14492
924.849	13552
924.956	13586
925.064	13567
925.172	13445
925.279	13422
925.387	13537
925.494	13441
925.602	13582
925.709	13480
925.816	13384
925.924	13369
926.031	13403
926.138	13362
926.245	13445
926.352	13263
926.459	13460
926.566	13396
926.673	13339
926.779	13244
926.886	13259
926.993	12985
927.099	12985
927.206	12848
927.312	12913
927.419	12897
927.525	12928
927.631	12935
927.737	12749
927.843	12639
927.95	12681
928.056	12844
928.162	12783
928.267	12947
928.373	13346
928.479	12890
928.585	12627
928.69	12726
928.796	12821
928.901	12650
929.007	12467
929.112	12631
929.218	12555
929.323	12555
929.428	12483
929.533	12650
929.638	12467
929.743	12429
929.848	12414
929.953	12403
930.058	12342
930.163	12163
930.267	12182
930.372	12289
930.477	12091
930.581	12300
930.685	12197
930.79	12098
930.894	12114
930.998	12079
931.103	12159
931.207	11840
931.311	11623
931.415	11661
931.519	11410
931.623	11421
