Data from test_V78500241_3568.txt Node
Date: Fri Mar 25 16:06:31 CST 2022
User: usil
Spectrometer: V785-0024
Trigger mode: 0
Integration Time (sec): 4.000000E-1
Scans to average: 1
Nonlinearity correction enabled: false
Boxcar width: 0
Storing dark spectrum: false
XAxis mode: Wavelengths
Number of Pixels in Spectrum: 1024
>>>>>Begin Spectral Data<<<<<
801.071	28888
801.214	28755
801.356	28512
801.499	28382
801.641	28375
801.783	28401
801.926	28618
802.068	28215
802.211	28344
802.353	28223
802.496	28181
802.638	28166
802.78	27994
802.923	28051
803.065	27892
803.208	28067
803.35	28166
803.492	28272
803.635	28325
803.777	28295
803.919	28337
804.061	28687
804.204	28436
804.346	28318
804.488	28261
804.63	28398
804.773	28333
804.915	28481
805.057	28451
805.199	28348
805.341	28394
805.483	28645
805.626	28493
805.768	28443
805.91	28504
806.052	28508
806.194	28352
806.336	28622
806.478	28713
806.62	28375
806.762	28816
806.904	28862
807.046	28972
807.188	28999
807.33	29018
807.472	29044
807.614	28949
807.756	29025
807.898	28843
808.04	28710
808.182	28759
808.324	29022
808.465	28904
808.607	28942
808.749	29223
808.891	29273
809.033	29296
809.174	29242
809.316	29235
809.458	29299
809.6	29044
809.741	29143
809.883	29337
810.025	29429
810.166	29600
810.308	29516
810.45	29543
810.591	29356
810.733	29181
810.875	29189
811.016	29189
811.158	29193
811.299	29315
811.441	29417
811.582	29318
811.724	29216
811.865	29227
812.007	29273
812.148	29109
812.29	29296
812.431	29493
812.573	29524
812.714	29748
812.855	29859
812.997	29901
813.138	30015
813.279	29942
813.421	29798
813.562	29718
813.703	29558
813.845	29433
813.986	29181
814.127	29018
814.268	28949
814.41	28961
814.551	28999
814.692	29083
814.833	28797
814.974	28961
815.115	28961
815.256	28831
815.397	28911
815.539	28869
815.68	28698
815.821	28611
815.962	28759
816.103	28675
816.244	28584
816.385	28599
816.526	28436
816.666	28447
816.807	28147
816.948	28382
817.089	28421
817.23	28196
817.371	28181
817.512	28318
817.653	28192
817.793	28215
817.934	28268
818.075	28147
818.216	28306
818.356	28249
818.497	28017
818.638	28013
818.778	27960
818.919	27930
819.06	28196
819.2	28185
819.341	28333
819.481	28261
819.622	28443
819.762	28535
819.903	28459
820.043	28485
820.184	28371
820.324	28455
820.465	28580
820.605	28390
820.746	28314
820.886	28360
821.026	28226
821.167	28306
821.307	28470
821.447	28306
821.588	28162
821.728	28063
821.868	27903
822.008	27652
822.149	27865
822.289	27720
822.429	27462
822.569	27454
822.709	27431
822.849	27386
822.99	27222
823.13	27207
823.27	27256
823.41	27131
823.55	26960
823.69	27047
823.83	27093
823.97	27009
824.11	27005
824.25	26834
824.389	26910
824.529	26937
824.669	26754
824.809	26944
824.949	26986
825.089	26952
825.228	27009
825.368	26716
825.508	26842
825.648	26880
825.787	26849
825.927	26823
826.067	26773
826.206	26727
826.346	26807
826.485	26876
826.625	26765
826.765	26876
826.904	26777
827.044	26609
827.183	26571
827.323	26457
827.462	26606
827.601	26499
827.741	26450
827.88	26476
828.02	26374
828.159	26412
828.298	26663
828.437	26495
828.577	26400
828.716	26507
828.855	26450
828.994	26058
829.134	26134
829.273	26244
829.412	26187
829.551	26218
829.69	26119
829.829	26183
829.968	26183
830.107	26381
830.246	26183
830.385	26214
830.524	26039
830.663	25906
830.802	25959
830.941	25830
831.08	25784
831.219	26039
831.357	25849
831.496	26077
831.635	25791
831.774	25780
831.913	25704
832.051	25571
832.19	25548
832.329	25575
832.467	25426
832.606	25426
832.744	25327
832.883	25430
833.022	25403
833.16	25556
833.299	25597
833.437	25415
833.576	25525
833.714	25628
833.852	25578
833.991	25620
834.129	25666
834.267	25674
834.406	25597
834.544	25552
834.682	25552
834.821	25365
834.959	25795
835.097	25430
835.235	25624
835.373	25514
835.511	25590
835.65	25358
835.788	25487
835.926	25251
836.064	25160
836.202	25179
836.34	25320
836.478	25335
836.615	25232
836.753	25365
836.891	25392
837.029	25415
837.167	25362
837.305	25331
837.443	25244
837.58	25084
837.718	25209
837.856	25255
837.993	25187
838.131	25164
838.269	24943
838.406	25099
838.544	24962
838.681	24817
838.819	24806
838.956	24589
839.094	24677
839.231	24791
839.369	24840
839.506	24951
839.643	24882
839.781	24772
839.918	24532
840.055	24601
840.193	24646
840.33	24422
840.467	24566
840.604	24608
840.742	24783
840.879	24296
841.016	24498
841.153	24365
841.29	24582
841.427	24384
841.564	24513
841.701	24563
841.838	24559
841.975	24437
842.112	24418
842.249	24304
842.385	24270
842.522	24502
842.659	24289
842.796	24289
842.933	24220
843.069	24167
843.206	24296
843.343	24300
843.479	24330
843.616	24323
843.752	24079
843.889	24117
844.025	24247
844.162	23882
844.298	24178
844.435	24034
844.571	23950
844.708	24163
844.844	24155
844.98	24251
845.117	24159
845.253	23992
845.389	23942
845.525	23942
845.661	23878
845.798	23809
845.934	23870
846.07	23821
846.206	23935
846.342	23954
846.478	23836
846.614	23566
846.75	23535
846.886	23459
847.022	23608
847.158	23463
847.294	23608
847.429	23592
847.565	23471
847.701	23786
847.837	23223
847.972	23174
848.108	23265
848.244	23288
848.379	23200
848.515	23102
848.65	23162
848.786	23193
848.921	23147
849.057	23113
849.192	23227
849.328	23200
849.463	23022
849.598	23029
849.734	22999
849.869	22900
850.004	22972
850.14	22892
850.275	22900
850.41	22801
850.545	22767
850.68	22774
850.815	22877
850.95	22858
851.085	23124
851.22	23018
851.355	22908
851.49	22877
851.625	22877
851.76	22771
851.895	22729
852.03	22839
852.165	22797
852.299	22900
852.434	23037
852.569	22930
852.703	22904
852.838	22904
852.973	22995
853.107	22991
853.242	22847
853.376	22641
853.511	22538
853.645	22675
853.78	22797
853.914	22736
854.048	22584
854.183	22675
854.317	22721
854.451	22812
854.585	22744
854.72	22649
854.854	22782
854.988	22729
855.122	22672
855.256	22550
855.39	22694
855.524	22782
855.658	22710
855.792	22740
855.926	22767
856.06	22896
856.194	22771
856.327	22713
856.461	22569
856.595	22634
856.729	22569
856.862	22805
856.996	22717
857.13	22809
857.263	22858
857.397	22763
857.53	22752
857.664	22736
857.797	22721
857.931	22744
858.064	22683
858.197	22782
858.331	22577
858.464	22637
858.597	22580
858.731	22622
858.864	22687
858.997	22592
859.13	22637
859.263	22694
859.396	22809
859.529	22767
859.662	22615
859.795	22649
859.928	22637
860.061	22877
860.194	22942
860.327	22763
860.46	22710
860.592	22664
860.725	22923
860.858	22656
860.99	22668
861.123	22717
861.256	22523
861.388	22645
861.521	23395
861.653	22634
861.786	22451
861.918	22527
862.05	22497
862.183	22573
862.315	22755
862.447	22721
862.58	22527
862.712	22436
862.844	22356
862.976	22618
863.108	22405
863.24	22790
863.372	22360
863.504	22352
863.636	22485
863.768	22363
863.9	22405
864.032	22379
864.164	22398
864.296	22459
864.428	22527
864.559	22489
864.691	22459
864.823	22443
864.954	22352
865.086	22363
865.217	22265
865.349	22143
865.48	22261
865.612	22314
865.743	22428
865.875	22261
866.006	22177
866.137	22356
866.269	22318
866.4	22291
866.531	22207
866.662	22246
866.793	22059
866.924	22166
867.055	22116
867.186	22173
867.317	22181
867.448	22055
867.579	22192
867.71	22010
867.841	22063
867.972	22257
868.103	22158
868.233	22265
868.364	22173
868.495	22382
868.625	22447
868.756	22542
868.886	22394
869.017	22417
869.147	22478
869.278	22580
869.408	22561
869.539	22474
869.669	22493
869.799	22478
869.929	22573
870.06	22508
870.19	22793
870.32	22748
870.45	22744
870.58	22782
870.71	22782
870.84	22938
870.97	22904
871.1	22835
871.23	23022
871.36	23071
871.489	22858
871.619	23025
871.749	23098
871.879	23025
872.008	23109
872.138	23052
872.267	23159
872.397	23044
872.526	22733
872.656	22805
872.785	22892
872.915	23044
873.044	23067
873.173	23060
873.303	23117
873.432	23193
873.561	23227
873.69	23075
873.819	23048
873.948	23113
874.077	23022
874.206	23071
874.335	23022
874.464	23242
874.593	23356
874.722	23193
874.851	23246
874.979	23311
875.108	23311
875.237	23166
875.365	23109
875.494	23208
875.623	23490
875.751	23227
875.88	23273
876.008	23307
876.136	23482
876.265	23512
876.393	23756
876.521	23665
876.65	23722
876.778	23627
876.906	23585
877.034	23589
877.162	23657
877.29	23558
877.418	23604
877.546	23668
877.674	23630
877.802	23562
877.93	23672
878.058	23467
878.185	23459
878.313	23509
878.441	23657
878.568	23372
878.696	23509
878.824	23577
878.951	23642
879.079	23809
879.206	23874
879.333	23642
879.461	23604
879.588	23691
879.715	23836
879.842	23832
879.97	23653
880.097	23589
880.224	23554
880.351	23562
880.478	23486
880.605	23379
880.732	23429
880.859	23520
880.986	23463
881.112	23376
881.239	23284
881.366	23216
881.493	23083
881.619	22961
881.746	22999
881.872	23006
881.999	22987
882.125	22930
882.252	22881
882.378	22881
882.505	23056
882.631	22942
882.757	22645
882.883	22869
883.01	22698
883.136	22573
883.262	22451
883.388	22527
883.514	22622
883.64	22672
883.766	22599
883.892	22390
884.018	22489
884.143	22519
884.269	22615
884.395	22329
884.52	22272
884.646	22386
884.772	22249
884.897	22234
885.023	22238
885.148	22356
885.274	22447
885.399	22344
885.524	22242
885.65	22325
885.775	22409
885.9	22337
886.025	22462
886.15	22329
886.275	22223
886.4	22158
886.525	22158
886.65	22185
886.775	22082
886.9	22455
887.025	22493
887.149	22200
887.274	22166
887.399	21972
887.523	22082
887.648	22040
887.773	21953
887.897	22055
888.021	22105
888.146	21930
888.27	22097
888.395	22105
888.519	22143
888.643	22032
888.767	22013
888.891	21979
889.015	21831
889.139	21968
889.263	21808
889.387	21934
889.511	22025
889.635	22010
889.759	21781
889.883	21762
890.006	21873
890.13	21953
890.254	21682
890.377	21838
890.501	21614
890.624	21504
890.748	21709
890.871	21515
890.995	21405
891.118	21245
891.241	21374
891.364	21348
891.488	21519
891.611	21359
891.734	21325
891.857	21481
891.98	21420
892.103	21374
892.226	21374
892.349	21302
892.471	21154
892.594	21348
892.717	21211
892.839	21195
892.962	21230
893.085	21359
893.207	21275
893.33	21157
893.452	21268
893.575	21245
893.697	21291
893.819	21344
893.941	21424
894.064	21492
894.186	21230
894.308	21237
894.43	21340
894.552	21340
894.674	21279
894.796	21108
894.918	21180
895.04	21203
895.161	21252
895.283	21317
895.405	21108
895.526	21203
895.648	21233
895.769	21317
895.891	21169
896.012	21386
896.134	21287
896.255	21424
896.376	21100
896.498	21211
896.619	21218
896.74	21195
896.861	21355
896.982	21538
897.103	21583
897.224	21526
897.345	21378
897.466	21416
897.587	21553
897.708	21477
897.828	21416
897.949	21443
898.07	21230
898.19	21272
898.311	21671
898.431	21393
898.552	21530
898.672	21382
898.792	21458
898.913	21679
899.033	21344
899.153	21287
899.273	21188
899.393	21268
899.513	21218
899.633	21096
899.753	21180
899.873	21127
899.993	21317
900.113	21112
900.232	21142
900.352	21135
900.472	20960
900.591	20895
900.711	20963
900.83	20868
900.95	21058
901.069	21070
901.189	20849
901.308	20594
901.427	20568
901.546	20450
901.665	20526
901.784	20541
901.904	20332
902.023	20157
902.141	19917
902.26	19940
902.379	19986
902.498	19997
902.617	19917
902.735	19978
902.854	20008
902.973	19890
903.091	19723
903.21	19696
903.328	19658
903.446	19518
903.565	19559
903.683	19411
903.801	19282
903.919	19407
904.038	19285
904.156	19255
904.274	19274
904.392	19228
904.51	19088
904.627	19175
904.745	19160
904.863	19259
904.981	19038
905.098	18798
905.216	18901
905.334	18894
905.451	18863
905.569	18817
905.686	18966
905.803	18764
905.921	18616
906.038	18783
906.155	18620
906.272	18631
906.389	18555
906.506	18418
906.623	18471
906.74	18357
906.857	18273
906.974	18315
907.091	18475
907.208	18464
907.324	18414
907.441	18346
907.557	18053
907.674	18144
907.79	18049
907.907	18026
908.023	18045
908.139	18049
908.256	18121
908.372	17901
908.488	18041
908.604	17847
908.72	17821
908.836	17843
908.952	17687
909.068	17771
909.184	17961
909.3	17874
909.415	17726
909.531	17916
909.647	17661
909.762	17558
909.878	17493
909.993	17619
910.108	17474
910.224	17535
910.339	17474
910.454	17353
910.57	17429
910.685	17254
910.8	17490
910.915	17448
911.03	17307
911.145	17075
911.259	17052
911.374	16942
911.489	16995
911.604	16946
911.718	16850
911.833	16866
911.947	16736
912.062	16702
912.176	16782
912.291	16771
912.405	16869
912.519	16987
912.633	16987
912.748	16782
912.862	16733
912.976	16645
913.09	16668
913.204	16573
913.318	16519
913.431	16740
913.545	16725
913.659	16713
913.772	16599
913.886	16337
914	16382
914.113	16565
914.226	16546
914.34	16474
914.453	16257
914.566	16421
914.68	16375
914.793	16188
914.906	16185
915.019	16017
915.132	15918
915.245	16002
915.358	15991
915.47	15998
915.583	15956
915.696	15987
915.809	16200
915.921	16181
916.034	15922
916.146	15827
916.259	15899
916.371	16055
916.483	15888
916.595	15838
916.708	15831
916.82	15823
916.932	15781
917.044	15667
917.156	15675
917.268	15633
917.38	15660
917.491	15614
917.603	15606
917.715	15641
917.826	15633
917.938	15542
918.049	15397
918.161	15526
918.272	15610
918.384	15705
918.495	15526
918.606	15469
918.717	15268
918.828	15416
918.939	15386
919.05	15298
919.161	15268
919.272	15123
919.383	15252
919.494	15405
919.604	15504
919.715	15378
919.826	15192
919.936	15287
920.047	15367
920.157	15222
920.267	15435
920.378	15317
920.488	15256
920.598	15469
920.708	15564
920.818	15370
920.928	15496
921.038	15549
921.148	15492
921.258	15211
921.368	15142
921.477	15013
921.587	15005
921.697	14781
921.806	14998
921.916	14762
922.025	14648
922.134	14670
922.244	14613
922.353	14678
922.462	14514
922.571	14381
922.68	14301
922.789	14355
922.898	14275
923.007	14225
923.116	14263
923.224	14256
923.333	14161
923.442	14142
923.55	14164
923.659	14172
923.767	14164
923.876	14100
923.984	14145
924.092	13989
924.201	14043
924.309	14077
924.417	13974
924.525	13921
924.633	13875
924.741	14845
924.849	13666
924.956	13894
925.064	13704
925.172	13586
925.279	13597
925.387	13693
925.494	13704
925.602	13723
925.709	13677
925.816	13537
925.924	13658
926.031	13636
926.138	13552
926.245	13548
926.352	13529
926.459	13571
926.566	13655
926.673	13533
926.779	13373
926.886	13320
926.993	13285
927.099	13217
927.206	13171
927.312	13206
927.419	13270
927.525	13145
927.631	13202
927.737	13080
927.843	13103
927.95	12844
928.056	13038
928.162	12966
928.267	13118
928.373	13594
928.479	13057
928.585	12825
928.69	12939
928.796	12966
928.901	12890
929.007	12711
929.112	12882
929.218	12802
929.323	12738
929.428	12745
929.533	12916
929.638	12623
929.743	12692
929.848	12703
929.953	12692
930.058	12604
930.163	12414
930.267	12414
930.372	12566
930.477	12285
930.581	12536
930.685	12437
930.79	12327
930.894	12334
930.998	12171
931.103	12300
931.207	12079
931.311	11893
931.415	11866
931.519	11707
931.623	11611
