Data from test_V78500241_1630.txt Node
Date: Fri Mar 25 15:53:05 CST 2022
User: usil
Spectrometer: V785-0024
Trigger mode: 0
Integration Time (sec): 4.000000E-1
Scans to average: 1
Nonlinearity correction enabled: false
Boxcar width: 0
Storing dark spectrum: false
XAxis mode: Wavelengths
Number of Pixels in Spectrum: 1024
>>>>>Begin Spectral Data<<<<<
801.071	28059
801.214	27964
801.356	27895
801.499	27724
801.641	27679
801.783	27686
801.926	27564
802.068	27793
802.211	27583
802.353	27386
802.496	27359
802.638	27367
802.78	27374
802.923	27283
803.065	27214
803.208	27382
803.35	27355
803.492	27408
803.635	27408
803.777	27393
803.919	27739
804.061	27854
804.204	27606
804.346	27583
804.488	27374
804.63	27580
804.773	27351
804.915	27614
805.057	27679
805.199	27545
805.341	27641
805.483	27698
805.626	27720
805.768	27606
805.91	27766
806.052	27816
806.194	27618
806.336	27827
806.478	27808
806.62	27660
806.762	27781
806.904	28032
807.046	28154
807.188	28067
807.33	27941
807.472	28341
807.614	28246
807.756	28101
807.898	28059
808.04	27972
808.182	27945
808.324	27907
808.465	28055
808.607	28276
808.749	28352
808.891	28329
809.033	28512
809.174	28386
809.316	28360
809.458	28436
809.6	28204
809.741	28508
809.883	28428
810.025	28706
810.166	28500
810.308	28653
810.45	28611
810.591	28398
810.733	28443
810.875	28284
811.016	28363
811.158	28139
811.299	28356
811.441	28500
811.582	28481
811.724	28329
811.865	28291
812.007	28249
812.148	28360
812.29	28352
812.431	28557
812.573	28641
812.714	28786
812.855	28809
812.997	28968
813.138	29052
813.279	28984
813.421	28812
813.562	28774
813.703	28748
813.845	28421
813.986	28295
814.127	28116
814.268	28086
814.41	28032
814.551	28219
814.692	28086
814.833	28105
814.974	28040
815.115	28162
815.256	27876
815.397	28002
815.539	27797
815.68	27705
815.821	27656
815.962	27739
816.103	27861
816.244	27667
816.385	27603
816.526	27610
816.666	27469
816.807	27142
816.948	27378
817.089	27401
817.23	27279
817.371	27348
817.512	27485
817.653	27317
817.793	27355
817.934	27363
818.075	27367
818.216	27431
818.356	27279
818.497	27119
818.638	27074
818.778	27047
818.919	27184
819.06	27176
819.2	27192
819.341	27291
819.481	27226
819.622	27412
819.762	27660
819.903	27572
820.043	27477
820.184	27477
820.324	27473
820.465	27397
820.605	27526
820.746	27408
820.886	27268
821.026	27450
821.167	27481
821.307	27538
821.447	27325
821.588	27401
821.728	27058
821.868	26948
822.008	26940
822.149	26754
822.289	26849
822.429	26602
822.569	26408
822.709	26442
822.849	26328
822.99	26256
823.13	26278
823.27	26240
823.41	26058
823.55	26081
823.69	26187
823.83	26267
823.97	26153
824.11	25951
824.25	25753
824.389	26005
824.529	25978
824.669	26005
824.809	26050
824.949	25921
825.089	25997
825.228	26005
825.368	25852
825.508	25742
825.648	25761
825.787	25784
825.927	25811
826.067	25894
826.206	25811
826.346	25955
826.485	25925
826.625	25712
826.765	25898
826.904	25936
827.044	25662
827.183	25605
827.323	25445
827.462	25567
827.601	25537
827.741	25529
827.88	25506
828.02	25525
828.159	25643
828.298	25502
828.437	25643
828.577	25460
828.716	25586
828.855	25308
828.994	25362
829.134	25396
829.273	25209
829.412	25175
829.551	25137
829.69	25088
829.829	25187
829.968	25164
830.107	25419
830.246	25282
830.385	25015
830.524	25168
830.663	24863
830.802	24928
830.941	24829
831.08	24776
831.219	24905
831.357	24821
831.496	25061
831.635	24863
831.774	24878
831.913	24745
832.051	24578
832.19	24681
832.329	24738
832.467	24574
832.606	24391
832.744	24456
832.883	24353
833.022	24525
833.16	24471
833.299	24544
833.437	24426
833.576	24601
833.714	24604
833.852	24703
833.991	24700
834.129	24608
834.267	24635
834.406	24684
834.544	24642
834.682	24585
834.821	24452
834.959	24753
835.097	24456
835.235	24631
835.373	24536
835.511	24665
835.65	24494
835.788	24353
835.926	24235
836.064	24133
836.202	24152
836.34	24369
836.478	24399
836.615	24346
836.753	24483
836.891	24388
837.029	24384
837.167	24334
837.305	24426
837.443	24216
837.58	24171
837.718	24258
837.856	24277
837.993	24136
838.131	24235
838.269	24072
838.406	24155
838.544	24041
838.681	23923
838.819	23999
838.956	23573
839.094	23619
839.231	23718
839.369	23954
839.506	24072
839.643	23904
839.781	23566
839.918	23539
840.055	23707
840.193	23611
840.33	23596
840.467	23577
840.604	23665
840.742	23946
840.879	23531
841.016	23391
841.153	23471
841.29	23668
841.427	23581
841.564	23573
841.701	23551
841.838	23467
841.975	23474
842.112	23608
842.249	23452
842.385	23250
842.522	23627
842.659	23425
842.796	23379
842.933	23284
843.069	23280
843.206	23299
843.343	23509
843.479	23345
843.616	23292
843.752	23227
843.889	23147
844.025	23364
844.162	23090
844.298	23155
844.435	23090
844.571	23102
844.708	23105
844.844	23269
844.98	23326
845.117	23159
845.253	23109
845.389	22915
845.525	22953
845.661	22938
845.798	22877
845.934	22938
846.07	22816
846.206	22771
846.342	23033
846.478	22793
846.614	22679
846.75	22542
846.886	22470
847.022	22527
847.158	22729
847.294	22512
847.429	22561
847.565	22626
847.701	22812
847.837	22287
847.972	22257
848.108	22417
848.244	22421
848.379	22226
848.515	22261
848.65	21972
848.786	22181
848.921	22207
849.057	22128
849.192	22314
849.328	22154
849.463	22223
849.598	22010
849.734	22051
849.869	22131
850.004	21873
850.14	21895
850.275	21941
850.41	21884
850.545	21884
850.68	21789
850.815	21975
850.95	21869
851.085	22177
851.22	21972
851.355	22006
851.49	21934
851.625	21808
851.76	21781
851.895	21895
852.03	21922
852.165	21964
852.299	22101
852.434	21975
852.569	21972
852.703	21918
852.838	21934
852.973	22010
853.107	21945
853.242	21918
853.376	21701
853.511	21568
853.645	21781
853.78	21789
853.914	21774
854.048	21705
854.183	21622
854.317	21869
854.451	21991
854.585	21766
854.72	21625
854.854	21941
854.988	21797
855.122	21785
855.256	21701
855.39	21694
855.524	21838
855.658	21838
855.792	21835
855.926	21732
856.06	21736
856.194	21766
856.327	21686
856.461	21587
856.595	21633
856.729	21739
856.862	21835
856.996	21755
857.13	21778
857.263	21861
857.397	21884
857.53	21770
857.664	21869
857.797	21934
857.931	21804
858.064	21724
858.197	21857
858.331	21751
858.464	21701
858.597	21663
858.731	21641
858.864	21644
858.997	21599
859.13	21762
859.263	21774
859.396	21816
859.529	21728
859.662	21682
859.795	21800
859.928	21755
860.061	21998
860.194	22025
860.327	21850
860.46	21812
860.592	21876
860.725	21850
860.858	21918
860.99	21793
861.123	21732
861.256	21724
861.388	21873
861.521	22432
861.653	21542
861.786	21458
861.918	21610
862.05	21641
862.183	21797
862.315	21690
862.447	21705
862.58	21614
862.712	21443
862.844	21504
862.976	21583
863.108	21618
863.24	21937
863.372	21496
863.504	21469
863.636	21481
863.768	21587
863.9	21397
864.032	21329
864.164	21370
864.296	21435
864.428	21477
864.559	21568
864.691	21424
864.823	21412
864.954	21443
865.086	21428
865.217	21363
865.349	21351
865.48	21363
865.612	21294
865.743	21492
865.875	21412
866.006	21386
866.137	21435
866.269	21344
866.4	21241
866.531	21332
866.662	21256
866.793	21287
866.924	21313
867.055	21386
867.186	21321
867.317	21245
867.448	21226
867.579	21237
867.71	21222
867.841	21192
867.972	21260
868.103	21256
868.233	21283
868.364	21329
868.495	21401
868.625	21485
868.756	21595
868.886	21412
869.017	21496
869.147	21644
869.278	21671
869.408	21534
869.539	21477
869.669	21587
869.799	21488
869.929	21595
870.06	21500
870.19	21861
870.32	21865
870.45	21972
870.58	21892
870.71	22086
870.84	22124
870.97	21937
871.1	21884
871.23	22143
871.36	22048
871.489	22131
871.619	22048
871.749	22116
871.879	22196
872.008	22249
872.138	22112
872.267	22128
872.397	22010
872.526	21937
872.656	22025
872.785	22006
872.915	22128
873.044	22268
873.173	22192
873.303	22333
873.432	22230
873.561	22162
873.69	22139
873.819	22090
873.948	22318
874.077	22147
874.206	22207
874.335	22093
874.464	22280
874.593	22352
874.722	22451
874.851	22253
874.979	22485
875.108	22363
875.237	22386
875.365	22219
875.494	22268
875.623	22462
875.751	22333
875.88	22440
876.008	22516
876.136	22451
876.265	22816
876.393	22972
876.521	22858
876.65	22908
876.778	22759
876.906	22809
877.034	22630
877.162	22767
877.29	22611
877.418	22744
877.546	22744
877.674	22790
877.802	22793
877.93	22679
878.058	22725
878.185	22634
878.313	22637
878.441	22713
878.568	22542
878.696	22630
878.824	22778
878.951	22774
879.079	22820
879.206	22961
879.333	22908
879.461	22752
879.588	22915
879.715	23006
879.842	23006
879.97	22793
880.097	22588
880.224	22516
880.351	22519
880.478	22687
880.605	22462
880.732	22512
880.859	22816
880.986	22542
881.112	22538
881.239	22440
881.366	22257
881.493	22131
881.619	22063
881.746	22234
881.872	22097
881.999	22177
882.125	21937
882.252	22135
882.378	22086
882.505	22177
882.631	21873
882.757	21888
882.883	21975
883.01	21911
883.136	21835
883.262	21633
883.388	21606
883.514	21736
883.64	21888
883.766	21846
883.892	21507
884.018	21736
884.143	21804
884.269	21876
884.395	21469
884.52	21462
884.646	21496
884.772	21344
884.897	21355
885.023	21416
885.148	21389
885.274	21538
885.399	21572
885.524	21538
885.65	21526
885.775	21473
885.9	21249
886.025	21473
886.15	21496
886.275	21340
886.4	21256
886.525	21272
886.65	21310
886.775	21389
886.9	21466
887.025	21606
887.149	21386
887.274	21283
887.399	21211
887.523	21173
887.648	21161
887.773	21112
887.897	21374
888.021	21256
888.146	20994
888.27	21116
888.395	21355
888.519	21195
888.643	21218
888.767	21203
888.891	21089
889.015	20952
889.139	20971
889.263	21051
889.387	21009
889.511	21195
889.635	21150
889.759	20960
889.883	20990
890.006	20952
890.13	21093
890.254	20941
890.377	20895
890.501	20796
890.624	20705
890.748	20876
890.871	20617
890.995	20689
891.118	20579
891.241	20568
891.364	20552
891.488	20659
891.611	20450
891.734	20533
891.857	20708
891.98	20590
892.103	20549
892.226	20537
892.349	20431
892.471	20400
892.594	20480
892.717	20442
892.839	20533
892.962	20469
893.085	20590
893.207	20442
893.33	20294
893.452	20332
893.575	20473
893.697	20434
893.819	20530
893.941	20659
894.064	20678
894.186	20427
894.308	20347
894.43	20457
894.552	20659
894.674	20556
894.796	20317
894.918	20374
895.04	20377
895.161	20450
895.283	20503
895.405	20305
895.526	20446
895.648	20438
895.769	20465
895.891	20446
896.012	20514
896.134	20579
896.255	20514
896.376	20419
896.498	20480
896.619	20431
896.74	20454
896.861	20530
896.982	20724
897.103	20990
897.224	20762
897.345	20606
897.466	20556
897.587	20697
897.708	20750
897.828	20701
897.949	20750
898.07	20434
898.19	20682
898.311	20670
898.431	20560
898.552	20667
898.672	20777
898.792	20663
898.913	20644
899.033	20640
899.153	20655
899.273	20301
899.393	20343
899.513	20499
899.633	20457
899.753	20480
899.873	20275
899.993	20374
900.113	20294
900.232	20351
900.352	20351
900.472	20286
900.591	20157
900.711	20244
900.83	20073
900.95	20191
901.069	20290
901.189	20084
901.308	19959
901.427	19757
901.546	19814
901.665	19693
901.784	19780
901.904	19613
902.023	19426
902.141	19232
902.26	19369
902.379	19381
902.498	19247
902.617	19320
902.735	19247
902.854	19209
902.973	19171
903.091	18947
903.21	18875
903.328	18962
903.446	18791
903.565	18734
903.683	18757
903.801	18639
903.919	18673
904.038	18703
904.156	18498
904.274	18483
904.392	18456
904.51	18441
904.627	18544
904.745	18627
904.863	18544
904.981	18308
905.098	18095
905.216	18182
905.334	18117
905.451	18197
905.569	18205
905.686	18228
905.803	18174
905.921	18007
906.038	18133
906.155	18041
906.272	17920
906.389	17851
906.506	17672
906.623	17703
906.74	17676
906.857	17653
906.974	17570
907.091	17760
907.208	17843
907.324	17733
907.441	17570
907.557	17376
907.674	17452
907.79	17326
907.907	17360
908.023	17414
908.139	17444
908.256	17318
908.372	17223
908.488	17208
908.604	17193
908.72	17109
908.836	17060
908.952	17022
909.068	17151
909.184	17181
909.3	17086
909.415	17258
909.531	17037
909.647	16816
909.762	16873
909.878	16930
909.993	16820
910.108	16854
910.224	16744
910.339	16835
910.454	16733
910.57	16645
910.685	16588
910.8	16915
910.915	16801
911.03	16763
911.145	16447
911.259	16344
911.374	16409
911.489	16405
911.604	16333
911.718	16215
911.833	16169
911.947	16048
912.062	16055
912.176	16139
912.291	16181
912.405	16162
912.519	16405
912.633	16333
912.748	16173
912.862	16143
912.976	16040
913.09	15876
913.204	15911
913.318	16002
913.431	16181
913.545	15991
913.659	16105
913.772	16002
913.886	15778
914	15854
914.113	15850
914.226	15972
914.34	15854
914.453	15797
914.566	15800
914.68	15732
914.793	15660
914.906	15530
915.019	15321
915.132	15359
915.245	15408
915.358	15466
915.47	15549
915.583	15424
915.696	15504
915.809	15587
915.921	15511
916.034	15416
916.146	15317
916.259	15264
916.371	15393
916.483	15370
916.595	15207
916.708	15218
916.82	15222
916.932	15154
917.044	15256
917.156	15195
917.268	15097
917.38	15055
917.491	15032
917.603	14994
917.715	15131
917.826	15119
917.938	15017
918.049	14914
918.161	15074
918.272	15058
918.384	15047
918.495	14960
918.606	14956
918.717	14727
918.828	14864
918.939	14872
919.05	14701
919.161	14765
919.272	14590
919.383	14648
919.494	14834
919.604	14914
919.715	14781
919.826	14701
919.936	14842
920.047	14864
920.157	14750
920.267	15024
920.378	14800
920.488	14556
920.598	14944
920.708	15089
920.818	14952
920.928	14956
921.038	15009
921.148	15009
921.258	14674
921.368	14644
921.477	14488
921.587	14427
921.697	14339
921.806	14507
921.916	14358
922.025	14221
922.134	14164
922.244	14058
922.353	14191
922.462	14054
922.571	13879
922.68	13795
922.789	13845
922.898	13769
923.007	13651
923.116	13772
923.224	13708
923.333	13700
923.442	13712
923.55	13651
923.659	13624
923.767	13662
923.876	13506
923.984	13639
924.092	13556
924.201	13510
924.309	13605
924.417	13575
924.525	13434
924.633	13480
924.741	14229
924.849	13171
924.956	13350
925.064	13198
925.172	13137
925.279	13225
925.387	13149
925.494	13080
925.602	13381
925.709	13225
925.816	13069
925.924	13034
926.031	13259
926.138	13168
926.245	13149
926.352	13008
926.459	13149
926.566	13103
926.673	13038
926.779	12909
926.886	12928
926.993	12817
927.099	12749
927.206	12749
927.312	12707
927.419	12840
927.525	12703
927.631	12681
927.737	12578
927.843	12589
927.95	12460
928.056	12559
928.162	12578
928.267	12650
928.373	13175
928.479	12570
928.585	12433
928.69	12544
928.796	12604
928.901	12395
929.007	12300
929.112	12357
929.218	12365
929.323	12361
929.428	12289
929.533	12426
929.638	12266
929.743	12281
929.848	12319
929.953	12239
930.058	12140
930.163	11973
930.267	11939
930.372	12045
930.477	11969
930.581	12182
930.685	12072
930.79	11870
930.894	11961
930.998	11790
931.103	11969
931.207	11634
931.311	11459
931.415	11410
931.519	11239
931.623	11261
