Data from test_V78500241_66.txt Node
Date: Fri Mar 25 15:42:15 CST 2022
User: usil
Spectrometer: V785-0024
Trigger mode: 0
Integration Time (sec): 4.000000E-1
Scans to average: 1
Nonlinearity correction enabled: false
Boxcar width: 0
Storing dark spectrum: false
XAxis mode: Wavelengths
Number of Pixels in Spectrum: 1024
>>>>>Begin Spectral Data<<<<<
801.071	29901
801.214	29653
801.356	29581
801.499	29554
801.641	29444
801.783	29337
801.926	29353
802.068	29220
802.211	29140
802.353	29048
802.496	28923
802.638	28980
802.78	28961
802.923	28915
803.065	28805
803.208	28824
803.35	28999
803.492	29060
803.635	29098
803.777	29006
803.919	29197
804.061	29467
804.204	29132
804.346	28976
804.488	29140
804.63	29098
804.773	28854
804.915	29117
805.057	29113
805.199	29083
805.341	29113
805.483	29181
805.626	29159
805.768	29235
805.91	29090
806.052	29136
806.194	29113
806.336	29341
806.478	29143
806.62	29117
806.762	29334
806.904	29372
807.046	29672
807.188	29463
807.33	29516
807.472	29676
807.614	29490
807.756	29356
807.898	29258
808.04	29360
808.182	29341
808.324	29429
808.465	29520
808.607	29512
808.749	29687
808.891	29748
809.033	29779
809.174	29699
809.316	29627
809.458	29630
809.6	29737
809.741	29726
809.883	29836
810.025	29901
810.166	29908
810.308	29832
810.45	29824
810.591	29920
810.733	29668
810.875	29577
811.016	29505
811.158	29516
811.299	29817
811.441	29726
811.582	29767
811.724	29520
811.865	29646
812.007	29722
812.148	29665
812.29	29703
812.431	29783
812.573	29935
812.714	29912
812.855	30117
812.997	30174
813.138	30289
813.279	30254
813.421	30186
813.562	29984
813.703	29840
813.845	29741
813.986	29474
814.127	29193
814.268	29216
814.41	29265
814.551	29261
814.692	29254
814.833	29349
814.974	29166
815.115	29136
815.256	29044
815.397	28987
815.539	29083
815.68	28885
815.821	28725
815.962	28961
816.103	28725
816.244	28721
816.385	28611
816.526	28656
816.666	28363
816.807	28367
816.948	28363
817.089	28421
817.23	28382
817.371	28371
817.512	28356
817.653	28196
817.793	28261
817.934	28303
818.075	28238
818.216	28166
818.356	28234
818.497	28131
818.638	28105
818.778	28021
818.919	27991
819.06	27975
819.2	28101
819.341	28105
819.481	28299
819.622	28348
819.762	28466
819.903	28424
820.043	28470
820.184	28280
820.324	28390
820.465	28303
820.605	28386
820.746	28379
820.886	28139
821.026	28291
821.167	28246
821.307	28329
821.447	28291
821.588	28097
821.728	27953
821.868	27728
822.008	27694
822.149	27553
822.289	27564
822.429	27515
822.569	27256
822.709	27245
822.849	27089
822.99	27017
823.13	27093
823.27	27112
823.41	26758
823.55	26815
823.69	26887
823.83	26796
823.97	26868
824.11	26678
824.25	26507
824.389	26598
824.529	26689
824.669	26762
824.809	26746
824.949	26849
825.089	26727
825.228	26712
825.368	26518
825.508	26530
825.648	26514
825.787	26317
825.927	26526
826.067	26298
826.206	26530
826.346	26484
826.485	26495
826.625	26450
826.765	26442
826.904	26358
827.044	26237
827.183	26164
827.323	26153
827.462	26103
827.601	26168
827.741	26183
827.88	26221
828.02	25944
828.159	26115
828.298	26206
828.437	26248
828.577	26039
828.716	26130
828.855	25936
828.994	25879
829.134	25742
829.273	25674
829.412	25772
829.551	25727
829.69	25841
829.829	25841
829.968	25799
830.107	25925
830.246	25811
830.385	25662
830.524	25651
830.663	25453
830.802	25514
830.941	25403
831.08	25331
831.219	25354
831.357	25369
831.496	25521
831.635	25289
831.774	25148
831.913	25225
832.051	25038
832.19	25000
832.329	25027
832.467	24939
832.606	24985
832.744	24787
832.883	24935
833.022	24875
833.16	24935
833.299	24958
833.437	24916
833.576	24875
833.714	24844
833.852	24802
833.991	24875
834.129	24920
834.267	24848
834.406	25034
834.544	25004
834.682	24890
834.821	24760
834.959	24977
835.097	24795
835.235	24825
835.373	24764
835.511	24905
835.65	24745
835.788	24669
835.926	24612
836.064	24574
836.202	24544
836.34	24661
836.478	24684
836.615	24620
836.753	24730
836.891	24806
837.029	24772
837.167	24665
837.305	24593
837.443	24410
837.58	24544
837.718	24505
837.856	24559
837.993	24372
838.131	24612
838.269	24460
838.406	24494
838.544	24300
838.681	24224
838.819	24045
838.956	23870
839.094	23912
839.231	23980
839.369	24057
839.506	24433
839.643	24186
839.781	23954
839.918	23863
840.055	23813
840.193	23779
840.33	23767
840.467	23817
840.604	23821
840.742	24171
840.879	23661
841.016	23843
841.153	23809
841.29	23843
841.427	23847
841.564	23836
841.701	23665
841.838	23783
841.975	23501
842.112	23665
842.249	23661
842.385	23600
842.522	23851
842.659	23490
842.796	23436
842.933	23463
843.069	23376
843.206	23345
843.343	23535
843.479	23463
843.616	23619
843.752	23170
843.889	23223
844.025	23288
844.162	23189
844.298	23258
844.435	23212
844.571	23140
844.708	23296
844.844	23269
844.98	23372
845.117	23231
845.253	23200
845.389	23044
845.525	23124
845.661	23147
845.798	22930
845.934	22995
846.07	22896
846.206	22900
846.342	22991
846.478	22824
846.614	22637
846.75	22649
846.886	22523
847.022	22687
847.158	22656
847.294	22527
847.429	22603
847.565	22519
847.701	22824
847.837	22287
847.972	22341
848.108	22516
848.244	22341
848.379	22162
848.515	22192
848.65	22154
848.786	22139
848.921	22048
849.057	22192
849.192	22131
849.328	22230
849.463	22116
849.598	22109
849.734	22101
849.869	21915
850.004	21915
850.14	21884
850.275	21823
850.41	21800
850.545	21880
850.68	21835
850.815	22006
850.95	21934
851.085	21937
851.22	21941
851.355	21869
851.49	21778
851.625	21724
851.76	21941
851.895	21732
852.03	21808
852.165	21846
852.299	21930
852.434	21915
852.569	21983
852.703	21759
852.838	21960
852.973	21975
853.107	21819
853.242	21785
853.376	21580
853.511	21454
853.645	21679
853.78	21774
853.914	21629
854.048	21690
854.183	21660
854.317	21732
854.451	21888
854.585	21583
854.72	21496
854.854	21709
854.988	21549
855.122	21747
855.256	21637
855.39	21644
855.524	21720
855.658	21698
855.792	21591
855.926	21637
856.06	21648
856.194	21580
856.327	21667
856.461	21603
856.595	21515
856.729	21568
856.862	21797
856.996	21576
857.13	21694
857.263	21732
857.397	21614
857.53	21564
857.664	21637
857.797	21682
857.931	21660
858.064	21743
858.197	21564
858.331	21553
858.464	21526
858.597	21431
858.731	21542
858.864	21412
858.997	21530
859.13	21511
859.263	21530
859.396	21663
859.529	21473
859.662	21507
859.795	21492
859.928	21534
860.061	21675
860.194	21770
860.327	21656
860.46	21614
860.592	21591
860.725	21618
860.858	21587
860.99	21431
861.123	21294
861.256	21515
861.388	21519
861.521	22257
861.653	21542
861.786	21332
861.918	21477
862.05	21549
862.183	21568
862.315	21637
862.447	21549
862.58	21618
862.712	21275
862.844	21298
862.976	21424
863.108	21302
863.24	21736
863.372	21135
863.504	21176
863.636	21157
863.768	21283
863.9	21135
864.032	21165
864.164	21146
864.296	21268
864.428	21275
864.559	21332
864.691	21207
864.823	21283
864.954	21180
865.086	21135
865.217	21146
865.349	21074
865.48	21146
865.612	21161
865.743	21169
865.875	21070
866.006	21036
866.137	21032
866.269	21112
866.4	20986
866.531	20998
866.662	21070
866.793	21081
866.924	21127
867.055	20952
867.186	21070
867.317	20830
867.448	20830
867.579	21066
867.71	20880
867.841	20929
867.972	20998
868.103	20986
868.233	20956
868.364	21039
868.495	21032
868.625	21283
868.756	21226
868.886	21203
869.017	21283
869.147	21283
869.278	21298
869.408	21329
869.539	21207
869.669	21450
869.799	21332
869.929	21378
870.06	21317
870.19	21515
870.32	21466
870.45	21713
870.58	21679
870.71	21641
870.84	21827
870.97	21652
871.1	21587
871.23	21785
871.36	21865
871.489	21762
871.619	21831
871.749	21899
871.879	21907
872.008	21926
872.138	21819
872.267	21800
872.397	21698
872.526	21736
872.656	21622
872.785	21671
872.915	21975
873.044	21968
873.173	21960
873.303	21911
873.432	21915
873.561	21998
873.69	21937
873.819	21873
873.948	21835
874.077	21922
874.206	21694
874.335	21804
874.464	21979
874.593	22082
874.722	21972
874.851	22139
874.979	22143
875.108	22116
875.237	22120
875.365	21934
875.494	22070
875.623	22105
875.751	22051
875.88	22074
876.008	22166
876.136	22196
876.265	22592
876.393	22679
876.521	22565
876.65	22675
876.778	22557
876.906	22462
877.034	22428
877.162	22417
877.29	22405
877.418	22489
877.546	22314
877.674	22470
877.802	22497
877.93	22451
878.058	22432
878.185	22329
878.313	22394
878.441	22436
878.568	22306
878.696	22272
878.824	22546
878.951	22478
879.079	22653
879.206	22698
879.333	22645
879.461	22497
879.588	22557
879.715	22649
879.842	22702
879.97	22405
880.097	22344
880.224	22257
880.351	22295
880.478	22371
880.605	22257
880.732	22249
880.859	22527
880.986	22382
881.112	22299
881.239	22128
881.366	21960
881.493	21930
881.619	21857
881.746	21785
881.872	21865
881.999	21625
882.125	21854
882.252	21884
882.378	21774
882.505	21953
882.631	21823
882.757	21686
882.883	21667
883.01	21625
883.136	21599
883.262	21393
883.388	21454
883.514	21572
883.64	21576
883.766	21644
883.892	21317
884.018	21325
884.143	21538
884.269	21625
884.395	21435
884.52	21222
884.646	21329
884.772	21230
884.897	21055
885.023	21241
885.148	21241
885.274	21329
885.399	21348
885.524	21207
885.65	21230
885.775	21233
885.9	21146
886.025	21298
886.15	21336
886.275	21108
886.4	21142
886.525	21047
886.65	21077
886.775	21055
886.9	21317
887.025	21374
887.149	21165
887.274	20937
887.399	20914
887.523	20933
887.648	20918
887.773	20800
887.897	21062
888.021	20937
888.146	20838
888.27	21066
888.395	21020
888.519	21077
888.643	20975
888.767	20902
888.891	21032
889.015	20678
889.139	20811
889.263	20773
889.387	20712
889.511	20941
889.635	20819
889.759	20663
889.883	20800
890.006	20648
890.13	20735
890.254	20556
890.377	20667
890.501	20450
890.624	20328
890.748	20408
890.871	20290
890.995	20187
891.118	20122
891.241	20225
891.364	20206
891.488	20298
891.611	20347
891.734	20275
891.857	20370
891.98	20294
892.103	20328
892.226	20271
892.349	20221
892.471	20115
892.594	20122
892.717	20240
892.839	20187
892.962	20161
893.085	20286
893.207	20183
893.33	20142
893.452	20149
893.575	20237
893.697	20134
893.819	20195
893.941	20423
894.064	20328
894.186	20176
894.308	20183
894.43	20286
894.552	20298
894.674	20343
894.796	20183
894.918	20126
895.04	20035
895.161	20278
895.283	20218
895.405	20016
895.526	20210
895.648	20214
895.769	20187
895.891	20324
896.012	20305
896.134	20267
896.255	20168
896.376	20191
896.498	20229
896.619	20301
896.74	20282
896.861	20381
896.982	20594
897.103	20819
897.224	20476
897.345	20568
897.466	20301
897.587	20400
897.708	20533
897.828	20419
897.949	20336
898.07	20187
898.19	20332
898.311	20408
898.431	20362
898.552	20298
898.672	20454
898.792	20358
898.913	20476
899.033	20324
899.153	20122
899.273	20039
899.393	20096
899.513	20218
899.633	20058
899.753	20077
899.873	19974
899.993	20122
900.113	20107
900.232	20008
900.352	19974
900.472	19883
900.591	19769
900.711	19902
900.83	19814
900.95	20024
901.069	19978
901.189	19845
901.308	19628
901.427	19472
901.546	19552
901.665	19415
901.784	19468
901.904	19415
902.023	19297
902.141	19076
902.26	19015
902.379	19103
902.498	18962
902.617	18916
902.735	18973
902.854	18951
902.973	18810
903.091	18700
903.21	18658
903.328	18570
903.446	18498
903.565	18388
903.683	18540
903.801	18308
903.919	18361
904.038	18380
904.156	18232
904.274	18308
904.392	18159
904.51	18079
904.627	18155
904.745	18327
904.863	18148
904.981	17965
905.098	17737
905.216	17897
905.334	17828
905.451	17882
905.569	17821
905.686	17920
905.803	17813
905.921	17554
906.038	17657
906.155	17665
906.272	17547
906.389	17516
906.506	17425
906.623	17417
906.74	17349
906.857	17212
906.974	17242
907.091	17376
907.208	17562
907.324	17337
907.441	17356
907.557	17071
907.674	17060
907.79	16980
907.907	17010
908.023	17086
908.139	16942
908.256	17105
908.372	16961
908.488	16892
908.604	16778
908.72	16653
908.836	16831
908.952	16664
909.068	16816
909.184	16744
909.3	16733
909.415	16786
909.531	16641
909.647	16500
909.762	16409
909.878	16398
909.993	16363
910.108	16398
910.224	16363
910.339	16398
910.454	16150
910.57	16177
910.685	16139
910.8	16337
910.915	16417
911.03	16185
911.145	16055
911.259	16017
911.374	16032
911.489	15945
911.604	15755
911.718	15694
911.833	15838
911.947	15720
912.062	15690
912.176	15812
912.291	15759
912.405	15800
912.519	15899
912.633	15945
912.748	15732
912.862	15728
912.976	15538
913.09	15393
913.204	15587
913.318	15572
913.431	15614
913.545	15538
913.659	15629
913.772	15454
913.886	15306
914	15428
914.113	15374
914.226	15481
914.34	15370
914.453	15233
914.566	15408
914.68	15222
914.793	15192
914.906	15074
915.019	15055
915.132	14906
915.245	14963
915.358	15020
915.47	14963
915.583	14918
915.696	14960
915.809	15036
915.921	15066
916.034	14906
916.146	14891
916.259	14868
916.371	14941
916.483	14826
916.595	14777
916.708	14823
916.82	14689
916.932	14796
917.044	14708
917.156	14693
917.268	14568
917.38	14522
917.491	14602
917.603	14518
917.715	14598
917.826	14682
917.938	14533
918.049	14408
918.161	14469
918.272	14743
918.384	14636
918.495	14533
918.606	14404
918.717	14278
918.828	14358
918.939	14336
919.05	14240
919.161	14370
919.272	14103
919.383	14180
919.494	14355
919.604	14571
919.715	14282
919.826	14191
919.936	14267
920.047	14339
920.157	14324
920.267	14454
920.378	14313
920.488	14259
920.598	14457
920.708	14590
920.818	14480
920.928	14415
921.038	14583
921.148	14610
921.258	14298
921.368	14119
921.477	14031
921.587	14020
921.697	13887
921.806	13925
921.916	13852
922.025	13757
922.134	13719
922.244	13639
922.353	13677
922.462	13567
922.571	13403
922.68	13343
922.789	13282
922.898	13213
923.007	13213
923.116	13278
923.224	13179
923.333	13198
923.442	13156
923.55	13095
923.659	13133
923.767	13141
923.876	13061
923.984	13137
924.092	13031
924.201	13072
924.309	13080
924.417	12939
924.525	12932
924.633	13027
924.741	14012
924.849	12791
924.956	12886
925.064	12681
925.172	12627
925.279	12681
925.387	12757
925.494	12741
925.602	12844
925.709	12795
925.816	12578
925.924	12673
926.031	12749
926.138	12635
926.245	12662
926.352	12555
926.459	12566
926.566	12722
926.673	12528
926.779	12365
926.886	12464
926.993	12369
927.099	12243
927.206	12281
927.312	12262
927.419	12327
927.525	12220
927.631	12384
927.737	12247
927.843	12114
927.95	12022
928.056	12091
928.162	12152
928.267	12060
928.373	12741
928.479	12144
928.585	11878
928.69	12095
928.796	12087
928.901	12015
929.007	11840
929.112	11946
929.218	11908
929.323	11855
929.428	11775
929.533	11904
929.638	11786
929.743	11783
929.848	11843
929.953	11783
930.058	11611
930.163	11535
930.267	11478
930.372	11653
930.477	11497
930.581	11604
930.685	11547
930.79	11425
930.894	11414
930.998	11391
931.103	11421
931.207	11075
931.311	11041
931.415	10961
931.519	10721
931.623	10675
