Data from test_V78500241_2011.txt Node
Date: Fri Mar 25 15:55:43 CST 2022
User: usil
Spectrometer: V785-0024
Trigger mode: 0
Integration Time (sec): 4.000000E-1
Scans to average: 1
Nonlinearity correction enabled: false
Boxcar width: 0
Storing dark spectrum: false
XAxis mode: Wavelengths
Number of Pixels in Spectrum: 1024
>>>>>Begin Spectral Data<<<<<
801.071	28287
801.214	28436
801.356	28070
801.499	28006
801.641	28017
801.783	28025
801.926	28013
802.068	27857
802.211	27922
802.353	27823
802.496	27656
802.638	27892
802.78	27618
802.923	27530
803.065	27526
803.208	27519
803.35	27599
803.492	27701
803.635	27793
803.777	27747
803.919	27926
804.061	28143
804.204	27895
804.346	27797
804.488	27724
804.63	27774
804.773	27850
804.915	27964
805.057	27960
805.199	27819
805.341	27960
805.483	28044
805.626	28105
805.768	28029
805.91	27998
806.052	28059
806.194	27953
806.336	28181
806.478	28154
806.62	27994
806.762	28192
806.904	28238
807.046	28493
807.188	28379
807.33	28561
807.472	28679
807.614	28325
807.756	28276
807.898	28409
808.04	28268
808.182	28310
808.324	28306
808.465	28493
808.607	28599
808.749	28729
808.891	28805
809.033	28930
809.174	28607
809.316	28694
809.458	28748
809.6	28561
809.741	28767
809.883	28816
810.025	28946
810.166	28771
810.308	28896
810.45	28908
810.591	28934
810.733	28660
810.875	28767
811.016	28607
811.158	28592
811.299	28934
811.441	28911
811.582	28850
811.724	28603
811.865	28634
812.007	28622
812.148	28805
812.29	28557
812.431	28904
812.573	29041
812.714	29113
812.855	29220
812.997	29299
813.138	29402
813.279	29452
813.421	29242
813.562	29170
813.703	28987
813.845	29010
813.986	28588
814.127	28577
814.268	28371
814.41	28257
814.551	28398
814.692	28470
814.833	28394
814.974	28272
815.115	28226
815.256	28215
815.397	28253
815.539	28356
815.68	28280
815.821	28173
815.962	28238
816.103	28215
816.244	28051
816.385	28029
816.526	28067
816.666	27800
816.807	27663
816.948	27869
817.089	27850
817.23	27671
817.371	27660
817.512	27774
817.653	27610
817.793	27751
817.934	27610
818.075	27743
818.216	27755
818.356	27774
818.497	27454
818.638	27386
818.778	27408
818.919	27401
819.06	27519
819.2	27633
819.341	27644
819.481	27766
819.622	27835
819.762	27892
819.903	27835
820.043	27804
820.184	27831
820.324	27816
820.465	27808
820.605	27846
820.746	27926
820.886	27694
821.026	27838
821.167	27800
821.307	27812
821.447	27751
821.588	27644
821.728	27641
821.868	27378
822.008	27207
822.149	27226
822.289	27112
822.429	26857
822.569	26914
822.709	26792
822.849	26773
822.99	26739
823.13	26598
823.27	26537
823.41	26560
823.55	26366
823.69	26457
823.83	26450
823.97	26613
824.11	26248
824.25	26298
824.389	26305
824.529	26370
824.669	26404
824.809	26514
824.949	26438
825.089	26431
825.228	26393
825.368	26096
825.508	26168
825.648	26324
825.787	26328
825.927	26259
826.067	26157
826.206	26358
826.346	26225
826.485	26168
826.625	26263
826.765	26237
826.904	26305
827.044	26024
827.183	25951
827.323	25890
827.462	25974
827.601	25997
827.741	26001
827.88	25982
828.02	25738
828.159	25864
828.298	25887
828.437	25997
828.577	25845
828.716	26065
828.855	25822
828.994	25628
829.134	25605
829.273	25643
829.412	25552
829.551	25540
829.69	25700
829.829	25495
829.968	25757
830.107	25696
830.246	25521
830.385	25559
830.524	25495
830.663	25548
830.802	25171
830.941	25304
831.08	25099
831.219	25301
831.357	25301
831.496	25403
831.635	25187
831.774	25244
831.913	25046
832.051	24954
832.19	25076
832.329	25038
832.467	24920
832.606	24886
832.744	24981
832.883	24821
833.022	24916
833.16	24810
833.299	24913
833.437	24772
833.576	25038
833.714	25004
833.852	24973
833.991	24932
834.129	25065
834.267	24958
834.406	24856
834.544	25012
834.682	24905
834.821	24829
834.959	25065
835.097	24909
835.235	24897
835.373	24913
835.511	24894
835.65	24791
835.788	24757
835.926	24684
836.064	24700
836.202	24684
836.34	24776
836.478	24814
836.615	24700
836.753	24631
836.891	24871
837.029	24856
837.167	24620
837.305	24696
837.443	24688
837.58	24585
837.718	24616
837.856	24661
837.993	24551
838.131	24642
838.269	24479
838.406	24494
838.544	24418
838.681	24292
838.819	24190
838.956	24057
839.094	24083
839.231	24079
839.369	24232
839.506	24445
839.643	24391
839.781	24095
839.918	23939
840.055	24121
840.193	23980
840.33	23882
840.467	23878
840.604	23954
840.742	24357
840.879	23912
841.016	23904
841.153	23939
841.29	24083
841.427	24011
841.564	23999
841.701	23954
841.838	23866
841.975	23741
842.112	23809
842.249	23794
842.385	23760
842.522	23908
842.659	23828
842.796	23680
842.933	23695
843.069	23783
843.206	23665
843.343	23798
843.479	23703
843.616	23726
843.752	23478
843.889	23478
844.025	23642
844.162	23539
844.298	23642
844.435	23387
844.571	23433
844.708	23566
844.844	23577
844.98	23714
845.117	23668
845.253	23467
845.389	23391
845.525	23387
845.661	23425
845.798	23136
845.934	23356
846.07	23189
846.206	23368
846.342	23356
846.478	23239
846.614	22873
846.75	22911
846.886	23041
847.022	23052
847.158	23090
847.294	22976
847.429	22896
847.565	23052
847.701	23147
847.837	22729
847.972	22626
848.108	22763
848.244	22866
848.379	22592
848.515	22546
848.65	22577
848.786	22626
848.921	22687
849.057	22664
849.192	22565
849.328	22611
849.463	22580
849.598	22470
849.734	22428
849.869	22470
850.004	22280
850.14	22329
850.275	22276
850.41	22200
850.545	22234
850.68	22272
850.815	22367
850.95	22234
851.085	22428
851.22	22432
851.355	22394
851.49	22185
851.625	22333
851.76	22207
851.895	22295
852.03	22253
852.165	22295
852.299	22394
852.434	22379
852.569	22333
852.703	22424
852.838	22333
852.973	22344
853.107	22508
853.242	22234
853.376	22188
853.511	22090
853.645	22120
853.78	22192
853.914	22158
854.048	22025
854.183	22188
854.317	22253
854.451	22185
854.585	22013
854.72	22192
854.854	22226
854.988	22166
855.122	22131
855.256	21934
855.39	22097
855.524	22268
855.658	22181
855.792	22150
855.926	22276
856.06	22207
856.194	22246
856.327	22070
856.461	22139
856.595	22010
856.729	22051
856.862	22211
856.996	22131
857.13	22105
857.263	22310
857.397	22120
857.53	22181
857.664	22181
857.797	22177
857.931	22272
858.064	22139
858.197	22306
858.331	22147
858.464	22067
858.597	21987
858.731	22074
858.864	22070
858.997	22051
859.13	22219
859.263	22173
859.396	22246
859.529	22112
859.662	22109
859.795	22097
859.928	22120
860.061	22253
860.194	22314
860.327	22124
860.46	22200
860.592	22280
860.725	22333
860.858	22234
860.99	22025
861.123	22086
861.256	22154
861.388	22265
861.521	22908
861.653	22109
861.786	21895
861.918	21907
862.05	21918
862.183	21979
862.315	22112
862.447	22044
862.58	22105
862.712	22021
862.844	21827
862.976	21972
863.108	21972
863.24	22325
863.372	21781
863.504	21854
863.636	21850
863.768	21827
863.9	21876
864.032	21819
864.164	21774
864.296	21861
864.428	21979
864.559	22029
864.691	21930
864.823	21823
864.954	21797
865.086	21800
865.217	21861
865.349	21637
865.48	21717
865.612	21648
865.743	21888
865.875	21774
866.006	21751
866.137	21762
866.269	21766
866.4	21739
866.531	21591
866.662	21667
866.793	21633
866.924	21800
867.055	21652
867.186	21713
867.317	21580
867.448	21717
867.579	21766
867.71	21603
867.841	21595
867.972	21675
868.103	21629
868.233	21709
868.364	21766
868.495	21633
868.625	21975
868.756	21972
868.886	21968
869.017	21934
869.147	22006
869.278	21991
869.408	21972
869.539	21949
869.669	21915
869.799	22101
869.929	21930
870.06	21922
870.19	22188
870.32	22173
870.45	22207
870.58	22303
870.71	22352
870.84	22348
870.97	22318
871.1	22363
871.23	22516
871.36	22603
871.489	22455
871.619	22481
871.749	22447
871.879	22508
872.008	22569
872.138	22622
872.267	22493
872.397	22424
872.526	22398
872.656	22447
872.785	22394
872.915	22516
873.044	22592
873.173	22641
873.303	22679
873.432	22485
873.561	22672
873.69	22611
873.819	22592
873.948	22615
874.077	22550
874.206	22493
874.335	22561
874.464	22691
874.593	22694
874.722	22873
874.851	22797
874.979	22812
875.108	22721
875.237	22767
875.365	22656
875.494	22649
875.623	22896
875.751	22717
875.88	22858
876.008	22786
876.136	23052
876.265	23124
876.393	23315
876.521	23254
876.65	23303
876.778	23079
876.906	23189
877.034	23117
877.162	23136
877.29	23086
877.418	23117
877.546	23132
877.674	23044
877.802	22976
877.93	23147
878.058	23025
878.185	23025
878.313	23102
878.441	22987
878.568	23010
878.696	23029
878.824	23117
878.951	23193
879.079	23299
879.206	23307
879.333	23181
879.461	23189
879.588	23159
879.715	23280
879.842	23368
879.97	23113
880.097	22919
880.224	22911
880.351	23022
880.478	23014
880.605	22816
880.732	22793
880.859	23044
880.986	22900
881.112	22812
881.239	22763
881.366	22660
881.493	22691
881.619	22512
881.746	22668
881.872	22459
881.999	22440
882.125	22527
882.252	22497
882.378	22405
882.505	22527
882.631	22386
882.757	22169
882.883	22238
883.01	22063
883.136	22029
883.262	22051
883.388	21888
883.514	22090
883.64	22101
883.766	22078
883.892	21827
884.018	21949
884.143	22074
884.269	22162
884.395	21956
884.52	21606
884.646	21816
884.772	21759
884.897	21720
885.023	21701
885.148	21960
885.274	21895
885.399	21903
885.524	21915
885.65	21797
885.775	21876
885.9	21789
886.025	21892
886.15	21880
886.275	21736
886.4	21804
886.525	21705
886.65	21675
886.775	21667
886.9	21895
887.025	21899
887.149	21781
887.274	21637
887.399	21614
887.523	21599
887.648	21439
887.773	21473
887.897	21675
888.021	21618
888.146	21549
888.27	21720
888.395	21682
888.519	21690
888.643	21523
888.767	21603
888.891	21553
889.015	21405
889.139	21481
889.263	21256
889.387	21561
889.511	21469
889.635	21378
889.759	21412
889.883	21264
890.006	21340
890.13	21469
890.254	21230
890.377	21222
890.501	21176
890.624	21036
890.748	21180
890.871	20994
890.995	20830
891.118	20887
891.241	20941
891.364	20853
891.488	21104
891.611	20883
891.734	20868
891.857	20853
891.98	20891
892.103	20883
892.226	20842
892.349	20796
892.471	20667
892.594	20788
892.717	20826
892.839	20777
892.962	20929
893.085	20804
893.207	20941
893.33	20697
893.452	20750
893.575	20750
893.697	20712
893.819	20895
893.941	21051
894.064	20952
894.186	20716
894.308	20640
894.43	20845
894.552	20910
894.674	20918
894.796	20754
894.918	20765
895.04	20743
895.161	20864
895.283	20781
895.405	20651
895.526	20773
895.648	20632
895.769	20785
895.891	20807
896.012	20758
896.134	20872
896.255	20720
896.376	20674
896.498	20807
896.619	20746
896.74	20670
896.861	20727
896.982	21055
897.103	21192
897.224	21093
897.345	21028
897.466	21081
897.587	20861
897.708	21131
897.828	20990
897.949	20883
898.07	20785
898.19	20876
898.311	21013
898.431	21013
898.552	20967
898.672	21017
898.792	21077
898.913	20990
899.033	20804
899.153	20731
899.273	20644
899.393	20788
899.513	20705
899.633	20769
899.753	20762
899.873	20613
899.993	20773
900.113	20640
900.232	20648
900.352	20609
900.472	20541
900.591	20423
900.711	20503
900.83	20469
900.95	20560
901.069	20568
901.189	20469
901.308	20157
901.427	20100
901.546	20054
901.665	20168
901.784	20142
901.904	19894
902.023	19928
902.141	19674
902.26	19628
902.379	19506
902.498	19666
902.617	19521
902.735	19563
902.854	19518
902.973	19556
903.091	19297
903.21	19206
903.328	19217
903.446	19156
903.565	19008
903.683	19027
903.801	19046
903.919	19019
904.038	19034
904.156	18848
904.274	18852
904.392	18867
904.51	18798
904.627	18791
904.745	18806
904.863	18859
904.981	18608
905.098	18479
905.216	18536
905.334	18479
905.451	18513
905.569	18483
905.686	18441
905.803	18384
905.921	18277
906.038	18315
906.155	18224
906.272	18121
906.389	18091
906.506	18034
906.623	17908
906.74	17961
906.857	17874
906.974	17908
907.091	17977
907.208	18171
907.324	18060
907.441	17882
907.557	17741
907.674	17870
907.79	17691
907.907	17710
908.023	17638
908.139	17653
908.256	17687
908.372	17634
908.488	17596
908.604	17505
908.72	17455
908.836	17429
908.952	17425
909.068	17505
909.184	17448
909.3	17414
909.415	17471
909.531	17364
909.647	17185
909.762	17208
909.878	17083
909.993	17223
910.108	17098
910.224	17105
910.339	17159
910.454	16987
910.57	16995
910.685	16919
910.8	17132
910.915	17025
911.03	16900
911.145	16816
911.259	16706
911.374	16618
911.489	16615
911.604	16516
911.718	16390
911.833	16508
911.947	16322
912.062	16322
912.176	16481
912.291	16394
912.405	16485
912.519	16577
912.633	16649
912.748	16504
912.862	16417
912.976	16337
913.09	16078
913.204	16249
913.318	16314
913.431	16371
913.545	16318
913.659	16318
913.772	16158
913.886	16074
914	15991
914.113	16074
914.226	16215
914.34	16071
914.453	15915
914.566	15987
914.68	15892
914.793	16010
914.906	15705
915.019	15625
915.132	15682
915.245	15660
915.358	15652
915.47	15580
915.583	15564
915.696	15637
915.809	15770
915.921	15720
916.034	15584
916.146	15580
916.259	15564
916.371	15694
916.483	15545
916.595	15431
916.708	15462
916.82	15401
916.932	15359
917.044	15405
917.156	15378
917.268	15332
917.38	15317
917.491	15237
917.603	15264
917.715	15302
917.826	15473
917.938	15161
918.049	15131
918.161	15233
918.272	15340
918.384	15294
918.495	15169
918.606	15085
918.717	15020
918.828	15043
918.939	15043
919.05	14956
919.161	14891
919.272	14834
919.383	14910
919.494	15062
919.604	15192
919.715	14960
919.826	14864
919.936	14979
920.047	14998
920.157	14986
920.267	15192
920.378	14918
920.488	14899
920.598	15062
920.708	15313
920.818	15131
920.928	15100
921.038	15245
921.148	15226
921.258	14929
921.368	14796
921.477	14796
921.587	14670
921.697	14648
921.806	14708
921.916	14556
922.025	14362
922.134	14347
922.244	14172
922.353	14301
922.462	14275
922.571	14214
922.68	13989
922.789	14054
922.898	13906
923.007	13997
923.116	14058
923.224	14050
923.333	13940
923.442	13860
923.55	13742
923.659	13750
923.767	13887
923.876	13727
923.984	13757
924.092	13693
924.201	13769
924.309	13666
924.417	13670
924.525	13628
924.633	13696
924.741	14423
924.849	13346
924.956	13468
925.064	13457
925.172	13381
925.279	13365
925.387	13434
925.494	13331
925.602	13495
925.709	13320
925.816	13320
925.924	13358
926.031	13403
926.138	13282
926.245	13274
926.352	13247
926.459	13354
926.566	13327
926.673	13209
926.779	13042
926.886	13156
926.993	12958
927.099	12863
927.206	12935
927.312	12871
927.419	12935
927.525	12973
927.631	12935
927.737	12814
927.843	12783
927.95	12620
928.056	12692
928.162	12783
928.267	12692
928.373	13407
928.479	12745
928.585	12585
928.69	12741
928.796	12684
928.901	12547
929.007	12498
929.112	12585
929.218	12555
929.323	12403
929.428	12376
929.533	12521
929.638	12365
929.743	12418
929.848	12448
929.953	12369
930.058	12289
930.163	12178
930.267	12133
930.372	12361
930.477	12072
930.581	12327
930.685	12243
930.79	11988
930.894	11996
930.998	11992
931.103	12049
931.207	11718
931.311	11661
931.415	11611
931.519	11402
931.623	11372
