Data from test_V78500241_953.txt Node
Date: Fri Mar 25 15:48:24 CST 2022
User: usil
Spectrometer: V785-0024
Trigger mode: 0
Integration Time (sec): 4.000000E-1
Scans to average: 1
Nonlinearity correction enabled: false
Boxcar width: 0
Storing dark spectrum: false
XAxis mode: Wavelengths
Number of Pixels in Spectrum: 1024
>>>>>Begin Spectral Data<<<<<
801.071	28637
801.214	28569
801.356	28169
801.499	28154
801.641	28032
801.783	28135
801.926	28150
802.068	28185
802.211	28055
802.353	27964
802.496	27850
802.638	27873
802.78	27724
802.923	27808
803.065	27709
803.208	27648
803.35	27838
803.492	27781
803.635	27979
803.777	27888
803.919	27922
804.061	28352
804.204	28048
804.346	27922
804.488	28021
804.63	28051
804.773	27926
804.915	27949
805.057	28055
805.199	27953
805.341	28025
805.483	28150
805.626	28116
805.768	27907
805.91	28131
806.052	28044
806.194	28097
806.336	28363
806.478	28093
806.62	28150
806.762	28325
806.904	28337
807.046	28759
807.188	28557
807.33	28565
807.472	28588
807.614	28504
807.756	28466
807.898	28500
808.04	28367
808.182	28341
808.324	28478
808.465	28596
808.607	28641
808.749	28873
808.891	28790
809.033	29041
809.174	28900
809.316	28607
809.458	28866
809.6	28930
809.741	28953
809.883	28938
810.025	29136
810.166	29052
810.308	29113
810.45	29037
810.591	29018
810.733	28995
810.875	28767
811.016	28733
811.158	28824
811.299	28965
811.441	29033
811.582	29117
811.724	28847
811.865	28839
812.007	28873
812.148	28824
812.29	28934
812.431	29044
812.573	29102
812.714	29155
812.855	29269
812.997	29482
813.138	29615
813.279	29573
813.421	29337
813.562	29330
813.703	29197
813.845	29079
813.986	28938
814.127	28664
814.268	28554
814.41	28702
814.551	28569
814.692	28664
814.833	28516
814.974	28607
815.115	28641
815.256	28284
815.397	28531
815.539	28413
815.68	28348
815.821	28375
815.962	28367
816.103	28215
816.244	28268
816.385	28192
816.526	28097
816.666	27994
816.807	27914
816.948	27964
817.089	28059
817.23	27930
817.371	27869
817.512	27827
817.653	27926
817.793	27838
817.934	27972
818.075	27934
818.216	27838
818.356	27846
818.497	27774
818.638	27633
818.778	27622
818.919	27694
819.06	27679
819.2	27778
819.341	27797
819.481	27884
819.622	27956
819.762	28051
819.903	28341
820.043	28090
820.184	27991
820.324	27968
820.465	28021
820.605	27972
820.746	28105
820.886	27812
821.026	27968
821.167	27876
821.307	27983
821.447	27930
821.588	27804
821.728	27743
821.868	27511
822.008	27294
822.149	27325
822.289	27199
822.429	27024
822.569	27066
822.709	27070
822.849	26948
822.99	26834
823.13	26929
823.27	26823
823.41	26625
823.55	26602
823.69	26644
823.83	26701
823.97	26674
824.11	26514
824.25	26514
824.389	26552
824.529	26511
824.669	26518
824.809	26636
824.949	26533
825.089	26724
825.228	26609
825.368	26324
825.508	26492
825.648	26434
825.787	26419
825.927	26541
826.067	26438
826.206	26408
826.346	26313
826.485	26320
826.625	26522
826.765	26484
826.904	26461
827.044	26218
827.183	26164
827.323	26043
827.462	26214
827.601	26081
827.741	26012
827.88	26271
828.02	25925
828.159	26088
828.298	26153
828.437	26126
828.577	25974
828.716	26134
828.855	26024
828.994	25704
829.134	25906
829.273	25731
829.412	25841
829.551	25849
829.69	25795
829.829	25772
829.968	25887
830.107	25799
830.246	25856
830.385	25715
830.524	25666
830.663	25677
830.802	25514
830.941	25434
831.08	25392
831.219	25457
831.357	25434
831.496	25571
831.635	25392
831.774	25259
831.913	25274
832.051	25179
832.19	25259
832.329	25263
832.467	25042
832.606	24989
832.744	25019
832.883	24985
833.022	25034
833.16	25019
833.299	25110
833.437	25122
833.576	25156
833.714	25061
833.852	25217
833.991	25122
834.129	25206
834.267	25225
834.406	25027
834.544	25297
834.682	25152
834.821	25061
834.959	25365
835.097	25050
835.235	25225
835.373	25137
835.511	25057
835.65	25031
835.788	25019
835.926	24768
836.064	24700
836.202	24768
836.34	24970
836.478	24939
836.615	24909
836.753	24962
836.891	24916
837.029	24890
837.167	24844
837.305	24700
837.443	24802
837.58	24700
837.718	24856
837.856	24837
837.993	24738
838.131	24673
838.269	24570
838.406	24749
838.544	24521
838.681	24410
838.819	24418
838.956	24273
839.094	24194
839.231	24334
839.369	24502
839.506	24692
839.643	24559
839.781	24254
839.918	24159
840.055	24148
840.193	24338
840.33	24091
840.467	24091
840.604	24296
840.742	24464
840.879	24072
841.016	23984
841.153	24102
841.29	24277
841.427	24079
841.564	24167
841.701	24076
841.838	24197
841.975	24091
842.112	24068
842.249	23908
842.385	23882
842.522	24209
842.659	23939
842.796	23859
842.933	23786
843.069	23855
843.206	23874
843.343	23821
843.479	23870
843.616	23840
843.752	23741
843.889	23691
844.025	23828
844.162	23726
844.298	23638
844.435	23714
844.571	23615
844.708	23680
844.844	23775
844.98	23821
845.117	23737
845.253	23611
845.389	23649
845.525	23570
845.661	23531
845.798	23395
845.934	23440
846.07	23398
846.206	23318
846.342	23554
846.478	23398
846.614	23220
846.75	23094
846.886	23044
847.022	23128
847.158	23094
847.294	23155
847.429	23113
847.565	23265
847.701	23318
847.837	22934
847.972	22835
848.108	22949
848.244	22885
848.379	22930
848.515	22588
848.65	22592
848.786	22649
848.921	22702
849.057	22881
849.192	22713
849.328	22744
849.463	22683
849.598	22607
849.734	22497
849.869	22436
850.004	22500
850.14	22607
850.275	22489
850.41	22394
850.545	22375
850.68	22394
850.815	22523
850.95	22356
851.085	22554
851.22	22550
851.355	22535
851.49	22432
851.625	22493
851.76	22360
851.895	22356
852.03	22390
852.165	22428
852.299	22432
852.434	22538
852.569	22611
852.703	22538
852.838	22424
852.973	22451
853.107	22603
853.242	22432
853.376	22356
853.511	22242
853.645	22291
853.78	22375
853.914	22363
854.048	22280
854.183	22211
854.317	22268
854.451	22466
854.585	22310
854.72	22249
854.854	22413
854.988	22276
855.122	22341
855.256	22105
855.39	22280
855.524	22322
855.658	22466
855.792	22375
855.926	22363
856.06	22451
856.194	22493
856.327	22303
856.461	22276
856.595	22280
856.729	22325
856.862	22565
856.996	22367
857.13	22443
857.263	22360
857.397	22352
857.53	22360
857.664	22272
857.797	22329
857.931	22402
858.064	22386
858.197	22398
858.331	22207
858.464	22139
858.597	22200
858.731	22325
858.864	22265
858.997	22234
859.13	22318
859.263	22226
859.396	22428
859.529	22329
859.662	22261
859.795	22291
859.928	22314
860.061	22379
860.194	22428
860.327	22284
860.46	22386
860.592	22561
860.725	22535
860.858	22405
860.99	22314
861.123	22291
861.256	22306
861.388	22219
861.521	22824
861.653	22143
861.786	22101
861.918	22017
862.05	22177
862.183	22253
862.315	22299
862.447	22295
862.58	22211
862.712	22006
862.844	21975
862.976	22067
863.108	22048
863.24	22489
863.372	21972
863.504	22070
863.636	22013
863.768	22036
863.9	21991
864.032	21899
864.164	21998
864.296	22025
864.428	22162
864.559	21979
864.691	22013
864.823	22029
864.954	22116
865.086	21972
865.217	21899
865.349	21823
865.48	22006
865.612	21884
865.743	21991
865.875	21873
866.006	21819
866.137	21930
866.269	21915
866.4	21770
866.531	21755
866.662	21701
866.793	21808
866.924	21717
867.055	21819
867.186	21903
867.317	21827
867.448	21686
867.579	21698
867.71	21785
867.841	21656
867.972	21831
868.103	21755
868.233	21850
868.364	21766
868.495	22013
868.625	22013
868.756	22131
868.886	22059
869.017	22067
869.147	22070
869.278	22128
869.408	22021
869.539	21899
869.669	22105
869.799	22105
869.929	22105
870.06	22188
870.19	22348
870.32	22284
870.45	22379
870.58	22481
870.71	22531
870.84	22580
870.97	22390
871.1	22485
871.23	22523
871.36	22637
871.489	22542
871.619	22599
871.749	22649
871.879	22615
872.008	22637
872.138	22637
872.267	22622
872.397	22516
872.526	22432
872.656	22474
872.785	22519
872.915	22717
873.044	22752
873.173	22687
873.303	22698
873.432	22618
873.561	22786
873.69	22649
873.819	22626
873.948	22694
874.077	22767
874.206	22698
874.335	22664
874.464	22862
874.593	22915
874.722	22812
874.851	22972
874.979	22809
875.108	22892
875.237	22942
875.365	22778
875.494	22729
875.623	22858
875.751	22877
875.88	22809
876.008	23098
876.136	23041
876.265	23254
876.393	23372
876.521	23239
876.65	23318
876.778	23200
876.906	23288
877.034	23235
877.162	23311
877.29	23147
877.418	23235
877.546	23166
877.674	23178
877.802	23220
877.93	23113
878.058	23185
878.185	23037
878.313	23060
878.441	23185
878.568	23025
878.696	23151
878.824	23322
878.951	23246
879.079	23326
879.206	23490
879.333	23235
879.461	23185
879.588	23299
879.715	23436
879.842	23368
879.97	23299
880.097	23037
880.224	22930
880.351	23056
880.478	23060
880.605	22927
880.732	23067
880.859	23159
880.986	23136
881.112	22923
881.239	22820
881.366	22725
881.493	22679
881.619	22561
881.746	22733
881.872	22527
881.999	22481
882.125	22565
882.252	22672
882.378	22592
882.505	22668
882.631	22466
882.757	22379
882.883	22375
883.01	22211
883.136	22139
883.262	22143
883.388	22074
883.514	22215
883.64	22257
883.766	22097
883.892	22032
884.018	22120
884.143	22154
884.269	22329
884.395	21895
884.52	21838
884.646	21937
884.772	21812
884.897	21667
885.023	21956
885.148	21979
885.274	22070
885.399	21922
885.524	21903
885.65	21941
885.775	21937
885.9	21876
886.025	21953
886.15	21949
886.275	21812
886.4	21755
886.525	21842
886.65	21709
886.775	21774
886.9	22055
887.025	22147
887.149	21915
887.274	21591
887.399	21644
887.523	21766
887.648	21671
887.773	21610
887.897	21808
888.021	21679
888.146	21576
888.27	21682
888.395	21724
888.519	21637
888.643	21663
888.767	21595
888.891	21606
889.015	21447
889.139	21504
889.263	21389
889.387	21496
889.511	21637
889.635	21500
889.759	21348
889.883	21473
890.006	21374
890.13	21530
890.254	21351
890.377	21351
890.501	21306
890.624	21256
890.748	21211
890.871	21036
890.995	21020
891.118	20918
891.241	20933
891.364	21058
891.488	21192
891.611	20937
891.734	20967
891.857	20952
891.98	20971
892.103	20971
892.226	20963
892.349	20891
892.471	20720
892.594	20963
892.717	20914
892.839	20868
892.962	20971
893.085	20895
893.207	20796
893.33	20845
893.452	20708
893.575	20998
893.697	20876
893.819	21081
893.941	21028
894.064	21005
894.186	20857
894.308	20796
894.43	20929
894.552	20925
894.674	21024
894.796	20781
894.918	20876
895.04	20819
895.161	21009
895.283	20834
895.405	20960
895.526	20883
895.648	20861
895.769	20921
895.891	20975
896.012	20963
896.134	20876
896.255	20899
896.376	20762
896.498	20826
896.619	20826
896.74	20781
896.861	20990
896.982	21131
897.103	21294
897.224	21085
897.345	21146
897.466	20998
897.587	21222
897.708	21192
897.828	21123
897.949	20948
898.07	20807
898.19	20982
898.311	21108
898.431	21089
898.552	21138
898.672	21165
898.792	21157
898.913	21024
899.033	20944
899.153	20887
899.273	20724
899.393	20861
899.513	20925
899.633	20811
899.753	20807
899.873	20823
899.993	20853
900.113	20777
900.232	20731
900.352	20651
900.472	20568
900.591	20606
900.711	20644
900.83	20594
900.95	20617
901.069	20644
901.189	20473
901.308	20259
901.427	20195
901.546	20103
901.665	20180
901.784	20221
901.904	20027
902.023	19890
902.141	19734
902.26	19712
902.379	19753
902.498	19719
902.617	19750
902.735	19811
902.854	19666
902.973	19525
903.091	19335
903.21	19247
903.328	19350
903.446	19331
903.565	19152
903.683	19088
903.801	18985
903.919	19107
904.038	19050
904.156	18852
904.274	18970
904.392	18753
904.51	18764
904.627	18909
904.745	18966
904.863	18962
904.981	18616
905.098	18593
905.216	18578
905.334	18582
905.451	18589
905.569	18494
905.686	18601
905.803	18513
905.921	18262
906.038	18403
906.155	18448
906.272	18266
906.389	18266
906.506	18022
906.623	18049
906.74	18064
906.857	17904
906.974	17992
907.091	18106
907.208	18224
907.324	18064
907.441	17984
907.557	17764
907.674	17859
907.79	17726
907.907	17714
908.023	17767
908.139	17802
908.256	17695
908.372	17771
908.488	17623
908.604	17486
908.72	17581
908.836	17505
908.952	17482
909.068	17554
909.184	17608
909.3	17474
909.415	17520
909.531	17425
909.647	17204
909.762	17064
909.878	17185
909.993	17147
910.108	17159
910.224	17246
910.339	17200
910.454	16980
910.57	16953
910.685	16896
910.8	17105
910.915	17132
911.03	16965
911.145	16892
911.259	16694
911.374	16713
911.489	16759
911.604	16645
911.718	16615
911.833	16523
911.947	16481
912.062	16363
912.176	16508
912.291	16531
912.405	16428
912.519	16653
912.633	16607
912.748	16622
912.862	16470
912.976	16329
913.09	16185
913.204	16360
913.318	16329
913.431	16398
913.545	16390
913.659	16459
913.772	16291
913.886	16230
914	16128
914.113	16215
914.226	16234
914.34	16230
914.453	15960
914.566	16211
914.68	15975
914.793	15975
914.906	15816
915.019	15679
915.132	15591
915.245	15701
915.358	15755
915.47	15755
915.583	15682
915.696	15861
915.809	15857
915.921	15800
916.034	15644
916.146	15580
916.259	15629
916.371	15766
916.483	15660
916.595	15526
916.708	15572
916.82	15629
916.932	15584
917.044	15488
917.156	15428
917.268	15325
917.38	15382
917.491	15317
917.603	15332
917.715	15344
917.826	15408
917.938	15176
918.049	15131
918.161	15332
918.272	15416
918.384	15340
918.495	15214
918.606	15024
918.717	15051
918.828	15127
918.939	15188
919.05	14967
919.161	15097
919.272	14902
919.383	14895
919.494	15058
919.604	15287
919.715	15005
919.826	15017
919.936	14956
920.047	15062
920.157	15051
920.267	15150
920.378	14967
920.488	14956
920.598	15233
920.708	15367
920.818	15192
920.928	15150
921.038	15306
921.148	15245
921.258	15085
921.368	14872
921.477	14819
921.587	14792
921.697	14701
921.806	14792
921.916	14545
922.025	14473
922.134	14438
922.244	14347
922.353	14423
922.462	14301
922.571	14305
922.68	14130
922.789	14062
922.898	14103
923.007	14035
923.116	14100
923.224	14043
923.333	13978
923.442	13868
923.55	13822
923.659	13909
923.767	13784
923.876	13696
923.984	13879
924.092	13727
924.201	13841
924.309	13837
924.417	13693
924.525	13746
924.633	13666
924.741	14549
924.849	13491
924.956	13655
925.064	13487
925.172	13403
925.279	13445
925.387	13396
925.494	13297
925.602	13548
925.709	13403
925.816	13270
925.924	13407
926.031	13457
926.138	13297
926.245	13377
926.352	13301
926.459	13358
926.566	13426
926.673	13354
926.779	13194
926.886	13095
926.993	12985
927.099	12943
927.206	12939
927.312	12882
927.419	13046
927.525	12958
927.631	13015
927.737	12825
927.843	12817
927.95	12768
928.056	12806
928.162	12745
928.267	12848
928.373	13312
928.479	12817
928.585	12677
928.69	12753
928.796	12795
928.901	12703
929.007	12525
929.112	12654
929.218	12608
929.323	12570
929.428	12509
929.533	12677
929.638	12456
929.743	12456
929.848	12452
929.953	12464
930.058	12353
930.163	12159
930.267	12159
930.372	12342
930.477	12125
930.581	12334
930.685	12209
930.79	12064
930.894	12133
930.998	12091
931.103	12220
931.207	11863
931.311	11779
931.415	11653
931.519	11421
931.623	11474
