Data from test_V78500241_2575.txt Node
Date: Fri Mar 25 15:59:38 CST 2022
User: usil
Spectrometer: V785-0024
Trigger mode: 0
Integration Time (sec): 4.000000E-1
Scans to average: 1
Nonlinearity correction enabled: false
Boxcar width: 0
Storing dark spectrum: false
XAxis mode: Wavelengths
Number of Pixels in Spectrum: 1024
>>>>>Begin Spectral Data<<<<<
801.071	28881
801.214	28805
801.356	28588
801.499	28721
801.641	28428
801.783	28421
801.926	28466
802.068	28485
802.211	28394
802.353	28337
802.496	28150
802.638	28150
802.78	28090
802.923	28101
803.065	28059
803.208	28055
803.35	28196
803.492	28314
803.635	28325
803.777	28287
803.919	28500
804.061	28782
804.204	28569
804.346	28322
804.488	28303
804.63	28356
804.773	28382
804.915	28421
805.057	28474
805.199	28405
805.341	28447
805.483	28527
805.626	28611
805.768	28329
805.91	28569
806.052	28637
806.194	28390
806.336	28721
806.478	28596
806.62	28577
806.762	28790
806.904	28862
807.046	29025
807.188	28991
807.33	28984
807.472	29090
807.614	28946
807.756	29083
807.898	29018
808.04	28934
808.182	28908
808.324	28995
808.465	28987
808.607	29254
808.749	29258
808.891	29330
809.033	29410
809.174	29337
809.316	29383
809.458	29284
809.6	29227
809.741	29349
809.883	29421
810.025	29539
810.166	29531
810.308	29547
810.45	29562
810.591	29383
810.733	29242
810.875	29292
811.016	29307
811.158	29189
811.299	29345
811.441	29486
811.582	29482
811.724	29307
811.865	29265
812.007	29227
812.148	29284
812.29	29299
812.431	29581
812.573	29482
812.714	29596
812.855	29680
812.997	29855
813.138	29980
813.279	29882
813.421	29836
813.562	29714
813.703	29684
813.845	29448
813.986	29258
814.127	29155
814.268	28999
814.41	29018
814.551	28911
814.692	29056
814.833	28915
814.974	28888
815.115	29128
815.256	28774
815.397	28778
815.539	28919
815.68	28881
815.821	28649
815.962	28698
816.103	28668
816.244	28653
816.385	28607
816.526	28519
816.666	28371
816.807	28295
816.948	28219
817.089	28417
817.23	28276
817.371	28310
817.512	28265
817.653	28421
817.793	28185
817.934	28314
818.075	28295
818.216	28306
818.356	28200
818.497	28124
818.638	27998
818.778	28036
818.919	28101
819.06	28200
819.2	28249
819.341	28451
819.481	28428
819.622	28519
819.762	28630
819.903	28493
820.043	28386
820.184	28535
820.324	28462
820.465	28569
820.605	28470
820.746	28276
820.886	28207
821.026	28398
821.167	28379
821.307	28497
821.447	28432
821.588	28394
821.728	28116
821.868	27987
822.008	27838
822.149	27808
822.289	27713
822.429	27561
822.569	27488
822.709	27580
822.849	27256
822.99	27306
823.13	27268
823.27	27146
823.41	27123
823.55	27058
823.69	27203
823.83	27081
823.97	27127
824.11	26914
824.25	26899
824.389	26864
824.529	27096
824.669	26845
824.809	27028
824.949	27024
825.089	27070
825.228	26929
825.368	26883
825.508	26834
825.648	26830
825.787	26807
825.927	26777
826.067	26891
826.206	26967
826.346	26830
826.485	26910
826.625	26773
826.765	26868
826.904	26864
827.044	26568
827.183	26674
827.323	26602
827.462	26644
827.601	26632
827.741	26530
827.88	26655
828.02	26362
828.159	26499
828.298	26598
828.437	26617
828.577	26507
828.716	26625
828.855	26275
828.994	26225
829.134	26286
829.273	26339
829.412	26282
829.551	26142
829.69	26267
829.829	26271
829.968	26278
830.107	26191
830.246	26233
830.385	26119
830.524	26100
830.663	26183
830.802	26092
830.941	25814
831.08	25731
831.219	25944
831.357	25811
831.496	26027
831.635	25818
831.774	25632
831.913	25784
832.051	25594
832.19	25556
832.329	25605
832.467	25441
832.606	25529
832.744	25491
832.883	25464
833.022	25502
833.16	25445
833.299	25441
833.437	25518
833.576	25586
833.714	25613
833.852	25537
833.991	25582
834.129	25609
834.267	25613
834.406	25514
834.544	25479
834.682	25628
834.821	25487
834.959	25818
835.097	25483
835.235	25540
835.373	25628
835.511	25609
835.65	25339
835.788	25502
835.926	25240
836.064	25354
836.202	25362
836.34	25464
836.478	25449
836.615	25316
836.753	25445
836.891	25582
837.029	25343
837.167	25312
837.305	25293
837.443	25354
837.58	25088
837.718	25304
837.856	25228
837.993	25076
838.131	25255
838.269	25175
838.406	25118
838.544	25042
838.681	24776
838.819	24947
838.956	24703
839.094	24753
839.231	24669
839.369	24935
839.506	25031
839.643	24973
839.781	24627
839.918	24703
840.055	24688
840.193	24707
840.33	24555
840.467	24616
840.604	24783
840.742	24844
840.879	24342
841.016	24418
841.153	24471
841.29	24692
841.427	24528
841.564	24566
841.701	24654
841.838	24559
841.975	24532
842.112	24365
842.249	24338
842.385	24403
842.522	24521
842.659	24441
842.796	24353
842.933	24323
843.069	24334
843.206	24338
843.343	24475
843.479	24376
843.616	24418
843.752	24053
843.889	24091
844.025	24319
844.162	24102
844.298	24216
844.435	24144
844.571	24064
844.708	24011
844.844	24220
844.98	24334
845.117	24311
845.253	24102
845.389	24022
845.525	24034
845.661	23908
845.798	23912
845.934	23889
846.07	23703
846.206	23847
846.342	23824
846.478	23668
846.614	23524
846.75	23543
846.886	23448
847.022	23596
847.158	23653
847.294	23452
847.429	23729
847.565	23528
847.701	23745
847.837	23326
847.972	23318
848.108	23490
848.244	23356
848.379	23200
848.515	23166
848.65	23216
848.786	23128
848.921	23105
849.057	23162
849.192	23273
849.328	23242
849.463	23121
849.598	23052
849.734	23037
849.869	22927
850.004	22892
850.14	22900
850.275	22896
850.41	22835
850.545	22858
850.68	22858
850.815	22854
850.95	22908
851.085	23029
851.22	23037
851.355	22927
851.49	22904
851.625	22930
851.76	22847
851.895	22805
852.03	22831
852.165	22934
852.299	22942
852.434	22957
852.569	22915
852.703	22847
852.838	22911
852.973	22946
853.107	23037
853.242	22858
853.376	22805
853.511	22596
853.645	22683
853.78	22839
853.914	22706
854.048	22565
854.183	22702
854.317	22919
854.451	22885
854.585	22702
854.72	22786
854.854	22847
854.988	22774
855.122	22710
855.256	22698
855.39	22641
855.524	22782
855.658	22843
855.792	22649
855.926	22877
856.06	22679
856.194	22782
856.327	22786
856.461	22664
856.595	22771
856.729	22733
856.862	22839
856.996	22664
857.13	22782
857.263	22790
857.397	22805
857.53	22763
857.664	22782
857.797	22831
857.931	22866
858.064	22702
858.197	22847
858.331	22618
858.464	22622
858.597	22519
858.731	22687
858.864	22672
858.997	22607
859.13	22694
859.263	22824
859.396	22782
859.529	22717
859.662	22691
859.795	22626
859.928	22626
860.061	22919
860.194	22904
860.327	22790
860.46	22660
860.592	22892
860.725	22805
860.858	22858
860.99	22797
861.123	22645
861.256	22752
861.388	22721
861.521	23356
861.653	22672
861.786	22535
861.918	22557
862.05	22565
862.183	22687
862.315	22740
862.447	22698
862.58	22588
862.712	22489
862.844	22344
862.976	22527
863.108	22531
863.24	22892
863.372	22341
863.504	22363
863.636	22436
863.768	22386
863.9	22451
864.032	22405
864.164	22390
864.296	22512
864.428	22516
864.559	22508
864.691	22607
864.823	22409
864.954	22493
865.086	22356
865.217	22375
865.349	22226
865.48	22344
865.612	22322
865.743	22432
865.875	22375
866.006	22200
866.137	22341
866.269	22284
866.4	22314
866.531	22223
866.662	22200
866.793	22204
866.924	22284
867.055	22329
867.186	22207
867.317	22143
867.448	22188
867.579	22128
867.71	22177
867.841	22120
867.972	22280
868.103	22188
868.233	22276
868.364	22295
868.495	22356
868.625	22538
868.756	22451
868.886	22348
869.017	22470
869.147	22592
869.278	22577
869.408	22462
869.539	22466
869.669	22569
869.799	22535
869.929	22641
870.06	22573
870.19	22839
870.32	22717
870.45	22816
870.58	22782
870.71	22949
870.84	22957
870.97	22896
871.1	22866
871.23	23029
871.36	23014
871.489	22987
871.619	23060
871.749	23189
871.879	23235
872.008	23200
872.138	22995
872.267	23105
872.397	22961
872.526	22930
872.656	22911
872.785	22934
872.915	23014
873.044	23159
873.173	23098
873.303	23193
873.432	23064
873.561	23147
873.69	23223
873.819	23102
873.948	23117
874.077	23075
874.206	22991
874.335	23067
874.464	23170
874.593	23334
874.722	23227
874.851	23223
874.979	23265
875.108	23288
875.237	23349
875.365	23216
875.494	23273
875.623	23398
875.751	23246
875.88	23368
876.008	23528
876.136	23429
876.265	23676
876.393	23752
876.521	23703
876.65	23699
876.778	23691
876.906	23672
877.034	23680
877.162	23672
877.29	23524
877.418	23535
877.546	23615
877.674	23649
877.802	23596
877.93	23501
878.058	23543
878.185	23531
878.313	23539
878.441	23630
878.568	23398
878.696	23467
878.824	23737
878.951	23779
879.079	23920
879.206	23786
879.333	23805
879.461	23718
879.588	23733
879.715	23809
879.842	23904
879.97	23809
880.097	23547
880.224	23528
880.351	23535
880.478	23448
880.605	23372
880.732	23425
880.859	23653
880.986	23478
881.112	23436
881.239	23364
881.366	23200
881.493	23094
881.619	23033
881.746	22980
881.872	23010
881.999	23022
882.125	22938
882.252	22991
882.378	22968
882.505	23079
882.631	22885
882.757	22824
882.883	22900
883.01	22805
883.136	22641
883.262	22565
883.388	22428
883.514	22630
883.64	22687
883.766	22565
883.892	22523
884.018	22337
884.143	22504
884.269	22725
884.395	22466
884.52	22386
884.646	22242
884.772	22363
884.897	22150
885.023	22253
885.148	22314
885.274	22504
885.399	22428
885.524	22230
885.65	22211
885.775	22360
885.9	22223
886.025	22413
886.15	22272
886.275	22344
886.4	22166
886.525	22226
886.65	22181
886.775	22287
886.9	22451
887.025	22428
887.149	22363
887.274	22090
887.399	22128
887.523	22059
887.648	22078
887.773	21918
887.897	22093
888.021	22051
888.146	22078
888.27	22173
888.395	22112
888.519	22097
888.643	22036
888.767	22112
888.891	22040
889.015	21846
889.139	21888
889.263	21857
889.387	22078
889.511	22086
889.635	22006
889.759	21857
889.883	21873
890.006	21831
890.13	22010
890.254	21751
890.377	21770
890.501	21633
890.624	21496
890.748	21606
890.871	21466
890.995	21462
891.118	21374
891.241	21469
891.364	21496
891.488	21568
891.611	21332
891.734	21447
891.857	21485
891.98	21401
892.103	21458
892.226	21408
892.349	21340
892.471	21157
892.594	21287
892.717	21348
892.839	21367
892.962	21317
893.085	21351
893.207	21230
893.33	21283
893.452	21085
893.575	21291
893.697	21272
893.819	21355
893.941	21424
894.064	21428
894.186	21176
894.308	21260
894.43	21287
894.552	21504
894.674	21367
894.796	21154
894.918	21256
895.04	21176
895.161	21313
895.283	21226
895.405	21230
895.526	21188
895.648	21252
895.769	21336
895.891	21332
896.012	21310
896.134	21329
896.255	21306
896.376	21188
896.498	21218
896.619	21264
896.74	21321
896.861	21264
896.982	21534
897.103	21701
897.224	21530
897.345	21439
897.466	21466
897.587	21526
897.708	21667
897.828	21511
897.949	21408
898.07	21264
898.19	21431
898.311	21469
898.431	21393
898.552	21458
898.672	21504
898.792	21530
898.913	21363
899.033	21237
899.153	21310
899.273	21237
899.393	21184
899.513	21268
899.633	21192
899.753	21138
899.873	21131
899.993	21279
900.113	21192
900.232	21157
900.352	21055
900.472	21058
900.591	20975
900.711	21070
900.83	20952
900.95	21051
901.069	21135
901.189	20765
901.308	20769
901.427	20518
901.546	20564
901.665	20488
901.784	20480
901.904	20450
902.023	20358
902.141	20119
902.26	20046
902.379	20073
902.498	19928
902.617	19993
902.735	20111
902.854	20111
902.973	19955
903.091	19708
903.21	19685
903.328	19609
903.446	19559
903.565	19468
903.683	19377
903.801	19407
903.919	19327
904.038	19381
904.156	19308
904.274	19168
904.392	19129
904.51	19213
904.627	19156
904.745	19289
904.863	19232
904.981	18981
905.098	18985
905.216	18943
905.334	18981
905.451	18882
905.569	18890
905.686	18920
905.803	18943
905.921	18570
906.038	18806
906.155	18749
906.272	18612
906.389	18642
906.506	18407
906.623	18445
906.74	18475
906.857	18399
906.974	18372
907.091	18464
907.208	18464
907.324	18437
907.441	18270
907.557	18197
907.674	18205
907.79	18003
907.907	18068
908.023	18167
908.139	18186
908.256	18045
908.372	17980
908.488	17958
908.604	17843
908.72	17767
908.836	17824
908.952	17817
909.068	17958
909.184	17847
909.3	17805
909.415	17893
909.531	17817
909.647	17528
909.762	17615
909.878	17532
909.993	17539
910.108	17493
910.224	17554
910.339	17505
910.454	17474
910.57	17239
910.685	17277
910.8	17554
910.915	17524
911.03	17292
911.145	17109
911.259	17166
911.374	17071
911.489	17010
911.604	17151
911.718	16908
911.833	16763
911.947	16816
912.062	16748
912.176	16915
912.291	16900
912.405	16866
912.519	17105
912.633	17022
912.748	16862
912.862	16900
912.976	16634
913.09	16622
913.204	16630
913.318	16744
913.431	16816
913.545	16771
913.659	16679
913.772	16622
913.886	16489
914	16508
914.113	16538
914.226	16611
914.34	16592
914.453	16356
914.566	16508
914.68	16322
914.793	16356
914.906	16162
915.019	16124
915.132	15991
915.245	16082
915.358	16090
915.47	16021
915.583	16017
915.696	16082
915.809	16150
915.921	16139
916.034	16074
916.146	15991
916.259	15945
916.371	16025
916.483	15937
916.595	15926
916.708	15975
916.82	15861
916.932	15800
917.044	15724
917.156	15713
917.268	15641
917.38	15797
917.491	15660
917.603	15652
917.715	15850
917.826	15774
917.938	15549
918.049	15584
918.161	15686
918.272	15720
918.384	15823
918.495	15667
918.606	15534
918.717	15359
918.828	15469
918.939	15443
919.05	15260
919.161	15363
919.272	15237
919.383	15279
919.494	15405
919.604	15584
919.715	15294
919.826	15268
919.936	15378
920.047	15428
920.157	15382
920.267	15519
920.378	15389
920.488	15283
920.598	15629
920.708	15637
920.818	15450
920.928	15454
921.038	15641
921.148	15637
921.258	15332
921.368	15195
921.477	15112
921.587	15085
921.697	14838
921.806	15032
921.916	14948
922.025	14891
922.134	14636
922.244	14697
922.353	14705
922.462	14522
922.571	14575
922.68	14339
922.789	14377
922.898	14381
923.007	14377
923.116	14412
923.224	14309
923.333	14351
923.442	14214
923.55	14210
923.659	14176
923.767	14218
923.876	14123
923.984	14195
924.092	14005
924.201	14008
924.309	14062
924.417	14123
924.525	14020
924.633	14046
924.741	14944
924.849	13833
924.956	13883
925.064	13753
925.172	13723
925.279	13666
925.387	13632
925.494	13784
925.602	13757
925.709	13776
925.816	13723
925.924	13670
926.031	13704
926.138	13609
926.245	13624
926.352	13480
926.459	13791
926.566	13746
926.673	13544
926.779	13441
926.886	13480
926.993	13369
927.099	13316
927.206	13244
927.312	13255
927.419	13255
927.525	13225
927.631	13251
927.737	13053
927.843	13137
927.95	12958
928.056	13008
928.162	13050
928.267	13069
928.373	13601
928.479	13095
928.585	12875
928.69	13012
928.796	13053
928.901	12920
929.007	12768
929.112	12932
929.218	12848
929.323	12890
929.428	12741
929.533	12897
929.638	12639
929.743	12795
929.848	12749
929.953	12688
930.058	12593
930.163	12426
930.267	12429
930.372	12532
930.477	12388
930.581	12635
930.685	12456
930.79	12357
930.894	12292
930.998	12292
931.103	12391
931.207	12102
931.311	12034
931.415	11942
931.519	11657
931.623	11676
