Data from test_V78500241_2817.txt Node
Date: Fri Mar 25 16:01:18 CST 2022
User: usil
Spectrometer: V785-0024
Trigger mode: 0
Integration Time (sec): 4.000000E-1
Scans to average: 1
Nonlinearity correction enabled: false
Boxcar width: 0
Storing dark spectrum: false
XAxis mode: Wavelengths
Number of Pixels in Spectrum: 1024
>>>>>Begin Spectral Data<<<<<
801.071	28946
801.214	28911
801.356	28858
801.499	28615
801.641	28413
801.783	28466
801.926	28615
802.068	28596
802.211	28542
802.353	28599
802.496	28314
802.638	28314
802.78	28181
802.923	28093
803.065	28173
803.208	28265
803.35	28375
803.492	28531
803.635	28531
803.777	28615
803.919	28523
804.061	28790
804.204	28634
804.346	28588
804.488	28451
804.63	28535
804.773	28565
804.915	28706
805.057	28668
805.199	28489
805.341	28592
805.483	28759
805.626	28668
805.768	28675
805.91	28759
806.052	28744
806.194	28649
806.336	28972
806.478	28672
806.62	28774
806.762	28858
806.904	28968
807.046	29353
807.188	29166
807.33	29098
807.472	29162
807.614	29132
807.756	29166
807.898	29086
808.04	29041
808.182	29006
808.324	29090
808.465	29178
808.607	29288
808.749	29509
808.891	29505
809.033	29558
809.174	29551
809.316	29452
809.458	29421
809.6	29220
809.741	29577
809.883	29543
810.025	29676
810.166	29916
810.308	29573
810.45	29490
810.591	29608
810.733	29421
810.875	29429
811.016	29288
811.158	29417
811.299	29554
811.441	29551
811.582	29608
811.724	29372
811.865	29539
812.007	29425
812.148	29474
812.29	29653
812.431	29665
812.573	29748
812.714	29855
812.855	29973
812.997	30140
813.138	30243
813.279	30144
813.421	30045
813.562	29988
813.703	29733
813.845	29733
813.986	29516
814.127	29246
814.268	29231
814.41	29181
814.551	29193
814.692	29360
814.833	29147
814.974	29166
815.115	29124
815.256	29098
815.397	29022
815.539	29010
815.68	28968
815.821	28923
815.962	29033
816.103	28965
816.244	28961
816.385	28786
816.526	28816
816.666	28618
816.807	28485
816.948	28611
817.089	28683
817.23	28390
817.371	28531
817.512	28607
817.653	28497
817.793	28500
817.934	28523
818.075	28634
818.216	28409
818.356	28550
818.497	28360
818.638	28135
818.778	28120
818.919	28287
819.06	28367
819.2	28478
819.341	28478
819.481	28310
819.622	28622
819.762	28812
819.903	28873
820.043	28736
820.184	28603
820.324	28599
820.465	28538
820.605	28694
820.746	28603
820.886	28424
821.026	28668
821.167	28535
821.307	28729
821.447	28531
821.588	28485
821.728	28341
821.868	28154
822.008	27968
822.149	27941
822.289	28154
822.429	27644
822.569	27644
822.709	27755
822.849	27386
822.99	27450
823.13	27485
823.27	27401
823.41	27313
823.55	27192
823.69	27401
823.83	27443
823.97	27287
824.11	27203
824.25	27123
824.389	27036
824.529	27336
824.669	27157
824.809	27302
824.949	27245
825.089	27268
825.228	27150
825.368	27138
825.508	26842
825.648	27085
825.787	27218
825.927	27112
826.067	27104
826.206	26975
826.346	27127
826.485	27161
826.625	27074
826.765	27142
826.904	27009
827.044	26705
827.183	26918
827.323	26678
827.462	26807
827.601	26891
827.741	26739
827.88	26735
828.02	26571
828.159	26644
828.298	26785
828.437	26834
828.577	26712
828.716	26864
828.855	26648
828.994	26431
829.134	26511
829.273	26434
829.412	26473
829.551	26355
829.69	26358
829.829	26389
829.968	26427
830.107	26545
830.246	26400
830.385	26355
830.524	26313
830.663	26389
830.802	26111
830.941	26138
831.08	26043
831.219	26069
831.357	26122
831.496	26313
831.635	26035
831.774	25951
831.913	25955
832.051	25902
832.19	25723
832.329	25974
832.467	25795
832.606	25624
832.744	25723
832.883	25651
833.022	25677
833.16	25761
833.299	25712
833.437	25639
833.576	25925
833.714	25780
833.852	25788
833.991	25898
834.129	25887
834.267	25849
834.406	25890
834.544	25875
834.682	25746
834.821	25879
834.959	25974
835.097	25681
835.235	25803
835.373	25685
835.511	25864
835.65	25651
835.788	25582
835.926	25746
836.064	25381
836.202	25468
836.34	25590
836.478	25693
836.615	25662
836.753	25430
836.891	25578
837.029	25616
837.167	25548
837.305	25460
837.443	25453
837.58	25449
837.718	25582
837.856	25369
837.993	25369
838.131	25434
838.269	25259
838.406	25282
838.544	25209
838.681	25129
838.819	25046
838.956	24806
839.094	24863
839.231	25015
839.369	25027
839.506	25274
839.643	25034
839.781	24776
839.918	24829
840.055	25053
840.193	24768
840.33	24859
840.467	24871
840.604	24776
840.742	25050
840.879	24627
841.016	24779
841.153	24646
841.29	24814
841.427	24696
841.564	24753
841.701	24791
841.838	24711
841.975	24601
842.112	24601
842.249	24574
842.385	24502
842.522	24741
842.659	24505
842.796	24646
842.933	24589
843.069	24384
843.206	24441
843.343	24578
843.479	24540
843.616	24502
843.752	24300
843.889	24258
844.025	24551
844.162	24410
844.298	24418
844.435	24258
844.571	24270
844.708	24308
844.844	24544
844.98	24460
845.117	24521
845.253	24228
845.389	24125
845.525	24247
845.661	24167
845.798	24030
845.934	24129
846.07	24057
846.206	24049
846.342	24224
846.478	23836
846.614	23988
846.75	23684
846.886	23707
847.022	23882
847.158	23798
847.294	23843
847.429	23821
847.565	23703
847.701	24068
847.837	23684
847.972	23554
848.108	23577
848.244	23471
848.379	23212
848.515	23368
848.65	23330
848.786	23387
848.921	23288
849.057	23539
849.192	23391
849.328	23444
849.463	23364
849.598	23265
849.734	23330
849.869	23200
850.004	23147
850.14	23102
850.275	23170
850.41	23048
850.545	23067
850.68	23109
850.815	23079
850.95	23022
851.085	23239
851.22	23242
851.355	23128
851.49	23121
851.625	23197
851.76	23052
851.895	23056
852.03	22999
852.165	23166
852.299	23151
852.434	23170
852.569	23044
852.703	23056
852.838	23140
852.973	23277
853.107	23098
853.242	23098
853.376	23102
853.511	22797
853.645	22923
853.78	23006
853.914	22972
854.048	22984
854.183	22968
854.317	22980
854.451	23220
854.585	22923
854.72	22930
854.854	23155
854.988	22930
855.122	22953
855.256	22736
855.39	22930
855.524	22949
855.658	22919
855.792	23018
855.926	23014
856.06	22946
856.194	23098
856.327	22911
856.461	22896
856.595	22831
856.729	22797
856.862	22984
856.996	22953
857.13	23044
857.263	22965
857.397	23102
857.53	22889
857.664	22999
857.797	22961
857.931	23029
858.064	22755
858.197	23098
858.331	22934
858.464	22877
858.597	22812
858.731	23003
858.864	22911
858.997	22797
859.13	22858
859.263	22915
859.396	23025
859.529	22965
859.662	22778
859.795	22965
859.928	22919
860.061	23170
860.194	23037
860.327	22984
860.46	23075
860.592	23117
860.725	23064
860.858	23022
860.99	22946
861.123	22942
861.256	22889
861.388	22942
861.521	23634
861.653	22752
861.786	22698
861.918	22862
862.05	22843
862.183	22896
862.315	22908
862.447	22961
862.58	22881
862.712	22744
862.844	22577
862.976	22805
863.108	22607
863.24	22930
863.372	22630
863.504	22733
863.636	22588
863.768	22683
863.9	22645
864.032	22668
864.164	22653
864.296	22542
864.428	22694
864.559	22683
864.691	22755
864.823	22634
864.954	22557
865.086	22573
865.217	22535
865.349	22474
865.48	22523
865.612	22592
865.743	22569
865.875	22599
866.006	22470
866.137	22561
866.269	22409
866.4	22462
866.531	22523
866.662	22417
866.793	22440
866.924	22447
867.055	22527
867.186	22329
867.317	22481
867.448	22386
867.579	22546
867.71	22386
867.841	22428
867.972	22394
868.103	22413
868.233	22512
868.364	22497
868.495	22592
868.625	22611
868.756	22683
868.886	22634
869.017	22687
869.147	22771
869.278	22820
869.408	22656
869.539	22603
869.669	22752
869.799	22797
869.929	22911
870.06	22854
870.19	22908
870.32	23014
870.45	23143
870.58	23037
870.71	23136
870.84	23075
870.97	23105
871.1	23083
871.23	23261
871.36	23235
871.489	23151
871.619	23254
871.749	23239
871.879	23284
872.008	23341
872.138	23223
872.267	23383
872.397	23090
872.526	23037
872.656	23136
872.785	23071
872.915	23364
873.044	23467
873.173	23311
873.303	23436
873.432	23402
873.561	23398
873.69	23482
873.819	23254
873.948	23383
874.077	23296
874.206	23311
874.335	23200
874.464	23554
874.593	23516
874.722	23349
874.851	23520
874.979	23448
875.108	23668
875.237	23528
875.365	23364
875.494	23478
875.623	23482
875.751	23547
875.88	23497
876.008	23554
876.136	23748
876.265	23999
876.393	24011
876.521	23878
876.65	24018
876.778	23855
876.906	23741
877.034	23935
877.162	23878
877.29	23783
877.418	23950
877.546	23840
877.674	23836
877.802	23836
877.93	23901
878.058	23920
878.185	23676
878.313	23783
878.441	23840
878.568	23627
878.696	23707
878.824	23889
878.951	23851
879.079	23897
879.206	24117
879.333	23973
879.461	23851
879.588	23992
879.715	23885
879.842	24049
879.97	23874
880.097	23767
880.224	23676
880.351	23699
880.478	23687
880.605	23638
880.732	23634
880.859	23889
880.986	23680
881.112	23577
881.239	23592
881.366	23417
881.493	23296
881.619	23273
881.746	23330
881.872	23265
881.999	23178
882.125	23079
882.252	23337
882.378	23242
882.505	23288
882.631	23079
882.757	22843
882.883	23018
883.01	22831
883.136	22881
883.262	22877
883.388	22725
883.514	22831
883.64	22904
883.766	22797
883.892	22641
884.018	22660
884.143	22721
884.269	23006
884.395	22459
884.52	22493
884.646	22428
884.772	22417
884.897	22337
885.023	22634
885.148	22649
885.274	22824
885.399	22706
885.524	22443
885.65	22554
885.775	22428
885.9	22504
886.025	22531
886.15	22725
886.275	22493
886.4	22382
886.525	22459
886.65	22310
886.775	22481
886.9	22599
887.025	22580
887.149	22550
887.274	22360
887.399	22402
887.523	22276
887.648	22226
887.773	22162
887.897	22466
888.021	22360
888.146	22287
888.27	22268
888.395	22276
888.519	22230
888.643	22181
888.767	22291
888.891	22211
889.015	22067
889.139	22128
889.263	22017
889.387	22036
889.511	22238
889.635	22204
889.759	22067
889.883	21983
890.006	21983
890.13	22086
890.254	22025
890.377	21880
890.501	21804
890.624	21762
890.748	21808
890.871	21762
890.995	21595
891.118	21637
891.241	21530
891.364	21614
891.488	21774
891.611	21637
891.734	21553
891.857	21720
891.98	21667
892.103	21591
892.226	21549
892.349	21515
892.471	21355
892.594	21534
892.717	21481
892.839	21466
892.962	21370
893.085	21469
893.207	21481
893.33	21272
893.452	21378
893.575	21538
893.697	21534
893.819	21564
893.941	21644
894.064	21671
894.186	21397
894.308	21428
894.43	21625
894.552	21538
894.674	21496
894.796	21435
894.918	21504
895.04	21473
895.161	21564
895.283	21519
895.405	21397
895.526	21374
895.648	21488
895.769	21363
895.891	21408
896.012	21542
896.134	21481
896.255	21549
896.376	21359
896.498	21428
896.619	21500
896.74	21481
896.861	21534
896.982	21770
897.103	21827
897.224	21797
897.345	21576
897.466	21618
897.587	21698
897.708	21755
897.828	21709
897.949	21686
898.07	21447
898.19	21469
898.311	21629
898.431	21603
898.552	21648
898.672	21686
898.792	21759
898.913	21561
899.033	21587
899.153	21424
899.273	21340
899.393	21272
899.513	21439
899.633	21447
899.753	21416
899.873	21241
899.993	21382
900.113	21252
900.232	21336
900.352	21389
900.472	21218
900.591	21093
900.711	21108
900.83	20990
900.95	21074
901.069	21230
901.189	20948
901.308	20697
901.427	20640
901.546	20655
901.665	20743
901.784	20659
901.904	20480
902.023	20442
902.141	20309
902.26	20164
902.379	20202
902.498	20157
902.617	20199
902.735	20355
902.854	20122
902.973	20062
903.091	19890
903.21	19826
903.328	19837
903.446	19822
903.565	19651
903.683	19647
903.801	19544
903.919	19647
904.038	19597
904.156	19430
904.274	19441
904.392	19358
904.51	19377
904.627	19464
904.745	19491
904.863	19556
904.981	19198
905.098	19152
905.216	19046
905.334	19031
905.451	19046
905.569	19019
905.686	19133
905.803	18966
905.921	18943
906.038	18989
906.155	18905
906.272	18734
906.389	18844
906.506	18620
906.623	18661
906.74	18627
906.857	18399
906.974	18509
907.091	18547
907.208	18684
907.324	18681
907.441	18471
907.557	18353
907.674	18357
907.79	18201
907.907	18319
908.023	18350
908.139	18247
908.256	18216
908.372	18201
908.488	18152
908.604	18011
908.72	17988
908.836	18053
908.952	17897
909.068	18011
909.184	18053
909.3	18026
909.415	17931
909.531	17969
909.647	17676
909.762	17741
909.878	17676
909.993	17668
910.108	17611
910.224	17589
910.339	17691
910.454	17520
910.57	17566
910.685	17463
910.8	17570
910.915	17600
911.03	17539
911.145	17197
911.259	17223
911.374	17200
911.489	17162
911.604	17098
911.718	17029
911.833	16995
911.947	16908
912.062	16824
912.176	17086
912.291	17048
912.405	16999
912.519	17239
912.633	17200
912.748	16927
912.862	16927
912.976	16881
913.09	16622
913.204	16793
913.318	16717
913.431	16869
913.545	16839
913.659	16923
913.772	16740
913.886	16679
914	16752
914.113	16683
914.226	16687
914.34	16668
914.453	16474
914.566	16634
914.68	16413
914.793	16470
914.906	16207
915.019	16150
915.132	16063
915.245	16139
915.358	16158
915.47	16181
915.583	16143
915.696	16135
915.809	16261
915.921	16226
916.034	15991
916.146	16055
916.259	16036
916.371	16101
916.483	16128
916.595	16036
916.708	16078
916.82	16010
916.932	15915
917.044	15903
917.156	15926
917.268	15812
917.38	15873
917.491	15781
917.603	15751
917.715	15873
917.826	15823
917.938	15625
918.049	15644
918.161	15637
918.272	15903
918.384	15728
918.495	15709
918.606	15633
918.717	15481
918.828	15656
918.939	15610
919.05	15408
919.161	15481
919.272	15260
919.383	15340
919.494	15561
919.604	15724
919.715	15557
919.826	15325
919.936	15439
920.047	15462
920.157	15507
920.267	15644
920.378	15561
920.488	15454
920.598	15667
920.708	15660
920.818	15587
920.928	15507
921.038	15800
921.148	15629
921.258	15458
921.368	15306
921.477	15176
921.587	15272
921.697	15070
921.806	15195
921.916	15039
922.025	14826
922.134	14864
922.244	14788
922.353	14982
922.462	14708
922.571	14613
922.68	14530
922.789	14362
922.898	14400
923.007	14305
923.116	14499
923.224	14396
923.333	14438
923.442	14252
923.55	14328
923.659	14275
923.767	14313
923.876	14210
923.984	14263
924.092	14138
924.201	14233
924.309	14168
924.417	14187
924.525	14054
924.633	14039
924.741	15036
924.849	13860
924.956	14027
925.064	13807
925.172	13776
925.279	13769
925.387	13822
925.494	13723
925.602	13963
925.709	13864
925.816	13704
925.924	13765
926.031	13807
926.138	13712
926.245	13742
926.352	13636
926.459	13807
926.566	13738
926.673	13643
926.779	13521
926.886	13616
926.993	13411
927.099	13415
927.206	13308
927.312	13346
927.419	13381
927.525	13331
927.631	13335
927.737	13285
927.843	13187
927.95	13023
928.056	13133
928.162	13209
928.267	13259
928.373	13712
928.479	13149
928.585	12958
928.69	13129
928.796	13057
928.901	12924
929.007	12875
929.112	13015
929.218	12951
929.323	12890
929.428	12776
929.533	12989
929.638	12810
929.743	12802
929.848	12833
929.953	12726
930.058	12650
930.163	12509
930.267	12532
930.372	12696
930.477	12486
930.581	12734
930.685	12555
930.79	12369
930.894	12494
930.998	12403
931.103	12441
931.207	12026
931.311	12007
931.415	12060
931.519	11676
931.623	11668
