Data from test_V78500241_1196.txt Node
Date: Fri Mar 25 15:50:05 CST 2022
User: usil
Spectrometer: V785-0024
Trigger mode: 0
Integration Time (sec): 4.000000E-1
Scans to average: 1
Nonlinearity correction enabled: false
Boxcar width: 0
Storing dark spectrum: false
XAxis mode: Wavelengths
Number of Pixels in Spectrum: 1024
>>>>>Begin Spectral Data<<<<<
801.071	28557
801.214	28615
801.356	28310
801.499	28287
801.641	28147
801.783	28078
801.926	28310
802.068	28101
802.211	28029
802.353	28185
802.496	27762
802.638	27831
802.78	27842
802.923	27660
803.065	27812
803.208	27854
803.35	27865
803.492	28051
803.635	28090
803.777	27884
803.919	28070
804.061	28390
804.204	28082
804.346	28169
804.488	27972
804.63	28120
804.773	27972
804.915	28090
805.057	28090
805.199	28040
805.341	28143
805.483	28375
805.626	28295
805.768	28200
805.91	28318
806.052	28417
806.194	28173
806.336	28360
806.478	28306
806.62	28230
806.762	28565
806.904	28641
807.046	28748
807.188	28622
807.33	28721
807.472	28839
807.614	28618
807.756	28713
807.898	28569
808.04	28592
808.182	28500
808.324	28493
808.465	28656
808.607	28683
808.749	29033
808.891	29022
809.033	29132
809.174	28965
809.316	28957
809.458	28896
809.6	28740
809.741	29033
809.883	29197
810.025	29212
810.166	29273
810.308	29250
810.45	29223
810.591	28980
810.733	28908
810.875	28991
811.016	28824
811.158	28869
811.299	29006
811.441	29102
811.582	29121
811.724	28953
811.865	28984
812.007	28930
812.148	28896
812.29	29075
812.431	29075
812.573	29368
812.714	29341
812.855	29592
812.997	29467
813.138	29726
813.279	29752
813.421	29482
813.562	29383
813.703	29235
813.845	29094
813.986	28946
814.127	28820
814.268	28656
814.41	28866
814.551	28740
814.692	28736
814.833	28660
814.974	28675
815.115	28683
815.256	28527
815.397	28702
815.539	28592
815.68	28519
815.821	28398
815.962	28584
816.103	28462
816.244	28382
816.385	28322
816.526	28230
816.666	28070
816.807	28070
816.948	28059
817.089	28017
817.23	28013
817.371	27994
817.512	28078
817.653	27816
817.793	28044
817.934	28029
818.075	27964
818.216	28021
818.356	28063
818.497	27835
818.638	27599
818.778	27641
818.919	27667
819.06	27736
819.2	27880
819.341	28010
819.481	27926
819.622	28120
819.762	28371
819.903	28253
820.043	28067
820.184	28078
820.324	28143
820.465	28067
820.605	28192
820.746	28070
820.886	27960
821.026	27991
821.167	28063
821.307	28105
821.447	28006
821.588	27956
821.728	27770
821.868	27728
822.008	27561
822.149	27515
822.289	27443
822.429	27176
822.569	27203
822.709	27066
822.849	26918
822.99	26979
823.13	26971
823.27	26994
823.41	26914
823.55	26602
823.69	26788
823.83	26872
823.97	26640
824.11	26549
824.25	26575
824.389	26552
824.529	26613
824.669	26625
824.809	26769
824.949	26609
825.089	26739
825.228	26670
825.368	26587
825.508	26564
825.648	26522
825.787	26644
825.927	26446
826.067	26465
826.206	26514
826.346	26518
826.485	26526
826.625	26533
826.765	26541
826.904	26431
827.044	26320
827.183	26332
827.323	26320
827.462	26191
827.601	26343
827.741	26096
827.88	26202
828.02	26214
828.159	26240
828.298	26248
828.437	26389
828.577	26206
828.716	26370
828.855	26001
828.994	25936
829.134	26031
829.273	25986
829.412	25921
829.551	25803
829.69	25875
829.829	25879
829.968	25966
830.107	25978
830.246	26073
830.385	25852
830.524	25875
830.663	25784
830.802	25712
830.941	25647
831.08	25476
831.219	25677
831.357	25518
831.496	25890
831.635	25434
831.774	25472
831.913	25415
832.051	25350
832.19	25228
832.329	25285
832.467	25236
832.606	25133
832.744	25228
832.883	25050
833.022	25244
833.16	25190
833.299	25194
833.437	25171
833.576	25259
833.714	25301
833.852	25343
833.991	25244
834.129	25350
834.267	25346
834.406	25168
834.544	25282
834.682	25369
834.821	25187
834.959	25369
835.097	25114
835.235	25247
835.373	25327
835.511	25213
835.65	25008
835.788	25050
835.926	25061
836.064	25038
836.202	24890
836.34	25133
836.478	25160
836.615	25012
836.753	25168
836.891	25137
837.029	25069
837.167	25057
837.305	25027
837.443	24977
837.58	24844
837.718	24939
837.856	24897
837.993	24825
838.131	24966
838.269	24734
838.406	24833
838.544	24768
838.681	24502
838.819	24589
838.956	24384
839.094	24357
839.231	24509
839.369	24566
839.506	24734
839.643	24582
839.781	24540
839.918	24395
840.055	24433
840.193	24254
840.33	24239
840.467	24319
840.604	24254
840.742	24384
840.879	24087
841.016	24277
841.153	24300
841.29	24395
841.427	24205
841.564	24311
841.701	24285
841.838	24239
841.975	24136
842.112	24178
842.249	23996
842.385	24098
842.522	24270
842.659	24216
842.796	24015
842.933	24068
843.069	23965
843.206	24064
843.343	24041
843.479	24003
843.616	24098
843.752	23760
843.889	23889
844.025	24007
844.162	23813
844.298	23988
844.435	23847
844.571	23756
844.708	23836
844.844	24007
844.98	23878
845.117	23863
845.253	23726
845.389	23642
845.525	23760
845.661	23623
845.798	23608
845.934	23604
846.07	23497
846.206	23630
846.342	23630
846.478	23570
846.614	23315
846.75	23235
846.886	23277
847.022	23349
847.158	23254
847.294	23220
847.429	23356
847.565	23277
847.701	23387
847.837	22984
847.972	22873
848.108	23151
848.244	23018
848.379	22927
848.515	22869
848.65	22771
848.786	22763
848.921	22839
849.057	22923
849.192	22835
849.328	22908
849.463	22908
849.598	22771
849.734	22713
849.869	22778
850.004	22622
850.14	22683
850.275	22748
850.41	22466
850.545	22626
850.68	22626
850.815	22706
850.95	22653
851.085	22729
851.22	22736
851.355	22641
851.49	22641
851.625	22519
851.76	22596
851.895	22512
852.03	22546
852.165	22691
852.299	22550
852.434	22630
852.569	22577
852.703	22531
852.838	22527
852.973	22725
853.107	22694
853.242	22523
853.376	22447
853.511	22306
853.645	22322
853.78	22630
853.914	22481
854.048	22440
854.183	22428
854.317	22455
854.451	22554
854.585	22440
854.72	22360
854.854	22592
854.988	22348
855.122	22470
855.256	22303
855.39	22402
855.524	22466
855.658	22485
855.792	22375
855.926	22516
856.06	22599
856.194	22554
856.327	22432
856.461	22375
856.595	22405
856.729	22538
856.862	22592
856.996	22531
857.13	22512
857.263	22466
857.397	22443
857.53	22413
857.664	22538
857.797	22474
857.931	22455
858.064	22519
858.197	22500
858.331	22371
858.464	22322
858.597	22303
858.731	22451
858.864	22402
858.997	22333
859.13	22500
859.263	22474
859.396	22504
859.529	22531
859.662	22432
859.795	22226
859.928	22546
860.061	22645
860.194	22512
860.327	22417
860.46	22542
860.592	22432
860.725	22607
860.858	22611
860.99	22413
861.123	22310
861.256	22333
861.388	22394
861.521	23079
861.653	22219
861.786	22238
861.918	22291
862.05	22299
862.183	22402
862.315	22386
862.447	22421
862.58	22363
862.712	22223
862.844	22143
862.976	22272
863.108	22306
863.24	22683
863.372	22105
863.504	22124
863.636	22090
863.768	22109
863.9	22207
864.032	22002
864.164	21991
864.296	22082
864.428	22226
864.559	22207
864.691	22147
864.823	22276
864.954	22169
865.086	21972
865.217	22162
865.349	21953
865.48	21960
865.612	22017
865.743	22097
865.875	21949
866.006	21956
866.137	21918
866.269	22086
866.4	21975
866.531	22032
866.662	21892
866.793	21991
866.924	21907
867.055	22036
867.186	21941
867.317	21991
867.448	21884
867.579	21983
867.71	21854
867.841	21819
867.972	21953
868.103	21835
868.233	21945
868.364	21880
868.495	22067
868.625	22116
868.756	22379
868.886	22082
869.017	22181
869.147	22246
869.278	22261
869.408	22219
869.539	22192
869.669	22265
869.799	22276
869.929	22360
870.06	22352
870.19	22504
870.32	22497
870.45	22550
870.58	22683
870.71	22618
870.84	22603
870.97	22531
871.1	22694
871.23	22805
871.36	22721
871.489	22668
871.619	22740
871.749	22831
871.879	22869
872.008	22957
872.138	22767
872.267	22896
872.397	22675
872.526	22550
872.656	22675
872.785	22584
872.915	22729
873.044	22858
873.173	22843
873.303	22816
873.432	22904
873.561	22839
873.69	22835
873.819	22759
873.948	22866
874.077	22923
874.206	22767
874.335	22816
874.464	22889
874.593	23037
874.722	22972
874.851	23086
874.979	22972
875.108	23052
875.237	22949
875.365	22824
875.494	23006
875.623	23151
875.751	22919
875.88	23052
876.008	23136
876.136	23223
876.265	23280
876.393	23448
876.521	23391
876.65	23505
876.778	23299
876.906	23372
877.034	23280
877.162	23337
877.29	23337
877.418	23280
877.546	23364
877.674	23235
877.802	23414
877.93	23265
878.058	23349
878.185	23170
878.313	23455
878.441	23318
878.568	23121
878.696	23277
878.824	23372
878.951	23490
879.079	23520
879.206	23707
879.333	23577
879.461	23417
879.588	23440
879.715	23471
879.842	23608
879.97	23455
880.097	23151
880.224	23204
880.351	23181
880.478	23197
880.605	23071
880.732	23185
880.859	23410
880.986	23128
881.112	23185
881.239	22881
881.366	22869
881.493	22919
881.619	22577
881.746	22729
881.872	22672
881.999	22713
882.125	22672
882.252	22691
882.378	22713
882.505	22831
882.631	22459
882.757	22371
882.883	22451
883.01	22440
883.136	22310
883.262	22230
883.388	22029
883.514	22417
883.64	22504
883.766	22314
883.892	22181
884.018	22173
884.143	22299
884.269	22398
884.395	22154
884.52	21949
884.646	22109
884.772	22063
884.897	21949
885.023	22013
885.148	22120
885.274	22109
885.399	22139
885.524	22074
885.65	22097
885.775	22044
885.9	21968
886.025	22101
886.15	22109
886.275	22044
886.4	22040
886.525	22021
886.65	22059
886.775	22013
886.9	22268
887.025	22284
887.149	22063
887.274	21785
887.399	21911
887.523	21736
887.648	21789
887.773	21644
887.897	22006
888.021	21797
888.146	21785
888.27	21850
888.395	21800
888.519	21778
888.643	21800
888.767	21819
888.891	21732
889.015	21538
889.139	21629
889.263	21580
889.387	21736
889.511	21827
889.635	21736
889.759	21656
889.883	21519
890.006	21648
890.13	21633
890.254	21428
890.377	21481
890.501	21275
890.624	21268
890.748	21431
890.871	21233
890.995	21176
891.118	21180
891.241	21306
891.364	21154
891.488	21268
891.611	21230
891.734	21108
891.857	21119
891.98	21207
892.103	21252
892.226	21135
892.349	21062
892.471	20979
892.594	20933
892.717	21047
892.839	21074
892.962	21085
893.085	21192
893.207	20994
893.33	20849
893.452	20960
893.575	21127
893.697	20929
893.819	21150
893.941	21291
894.064	21211
894.186	21074
894.308	20963
894.43	20948
894.552	21127
894.674	21043
894.796	20925
894.918	21001
895.04	20994
895.161	21043
895.283	21066
895.405	20845
895.526	21119
895.648	21005
895.769	21039
895.891	21123
896.012	21055
896.134	20868
896.255	21112
896.376	20963
896.498	20963
896.619	21131
896.74	20994
896.861	21032
896.982	21237
897.103	21481
897.224	21230
897.345	21287
897.466	21089
897.587	21180
897.708	21294
897.828	21154
897.949	21173
898.07	20921
898.19	21169
898.311	21279
898.431	21070
898.552	21249
898.672	21203
898.792	21382
898.913	21203
899.033	21291
899.153	21051
899.273	20918
899.393	20921
899.513	20963
899.633	20941
899.753	20899
899.873	20857
899.993	20891
900.113	20826
900.232	20979
900.352	20853
900.472	20644
900.591	20705
900.711	20765
900.83	20674
900.95	20902
901.069	20708
901.189	20602
901.308	20309
901.427	20195
901.546	20282
901.665	20298
901.784	20374
901.904	20153
902.023	20138
902.141	19890
902.26	19826
902.379	19871
902.498	19757
902.617	19837
902.735	19788
902.854	19651
902.973	19704
903.091	19411
903.21	19556
903.328	19411
903.446	19354
903.565	19232
903.683	19198
903.801	19175
903.919	19270
904.038	19065
904.156	19027
904.274	18973
904.392	18878
904.51	18958
904.627	19012
904.745	18916
904.863	19015
904.981	18696
905.098	18612
905.216	18730
905.334	18582
905.451	18681
905.569	18620
905.686	18760
905.803	18566
905.921	18437
906.038	18536
906.155	18517
906.272	18384
906.389	18281
906.506	18292
906.623	18140
906.74	18159
906.857	18019
906.974	18034
907.091	18266
907.208	18365
907.324	18152
907.441	18053
907.557	18003
907.674	17923
907.79	17851
907.907	17923
908.023	17870
908.139	17927
908.256	17851
908.372	17786
908.488	17741
908.604	17695
908.72	17714
908.836	17695
908.952	17570
909.068	17722
909.184	17756
909.3	17516
909.415	17611
909.531	17642
909.647	17296
909.762	17353
909.878	17280
909.993	17330
910.108	17208
910.224	17174
910.339	17273
910.454	17223
910.57	17132
910.685	17037
910.8	17330
910.915	17216
911.03	17075
911.145	16949
911.259	16850
911.374	16866
911.489	16801
911.604	16687
911.718	16710
911.833	16622
911.947	16512
912.062	16455
912.176	16675
912.291	16672
912.405	16675
912.519	16767
912.633	16774
912.748	16679
912.862	16634
912.976	16440
913.09	16291
913.204	16310
913.318	16413
913.431	16500
913.545	16542
913.659	16417
913.772	16451
913.886	16348
914	16246
914.113	16356
914.226	16348
914.34	16352
914.453	16067
914.566	16223
914.68	16059
914.793	16032
914.906	15869
915.019	15854
915.132	15816
915.245	15835
915.358	15686
915.47	15770
915.583	15831
915.696	15865
915.809	15934
915.921	15888
916.034	15736
916.146	15739
916.259	15694
916.371	15766
916.483	15899
916.595	15606
916.708	15671
916.82	15671
916.932	15625
917.044	15679
917.156	15534
917.268	15507
917.38	15420
917.491	15534
917.603	15443
917.715	15504
917.826	15500
917.938	15336
918.049	15264
918.161	15355
918.272	15393
918.384	15424
918.495	15374
918.606	15195
918.717	15127
918.828	15218
918.939	15131
919.05	15032
919.161	15192
919.272	15028
919.383	15036
919.494	15291
919.604	15321
919.715	15249
919.826	15097
919.936	15100
920.047	15195
920.157	15192
920.267	15252
920.378	15192
920.488	15138
920.598	15184
920.708	15439
920.818	15283
920.928	15340
921.038	15515
921.148	15355
921.258	15070
921.368	15058
921.477	14739
921.587	14792
921.697	14758
921.806	14811
921.916	14655
922.025	14587
922.134	14469
922.244	14454
922.353	14549
922.462	14385
922.571	14294
922.68	14183
922.789	14088
922.898	14138
923.007	14035
923.116	14084
923.224	14054
923.333	14058
923.442	13978
923.55	13974
923.659	13951
923.767	14016
923.876	13776
923.984	13921
924.092	13826
924.201	13868
924.309	13791
924.417	13928
924.525	13811
924.633	13788
924.741	14518
924.849	13499
924.956	13746
925.064	13472
925.172	13464
925.279	13548
925.387	13506
925.494	13510
925.602	13655
925.709	13552
925.816	13350
925.924	13301
926.031	13518
926.138	13377
926.245	13468
926.352	13343
926.459	13632
926.566	13559
926.673	13324
926.779	13247
926.886	13247
926.993	13122
927.099	13110
927.206	12989
927.312	12951
927.419	13160
927.525	13122
927.631	13027
927.737	12989
927.843	12833
927.95	12856
928.056	12920
928.162	12897
928.267	12913
928.373	13582
928.479	12916
928.585	12707
928.69	12840
928.796	12856
928.901	12798
929.007	12585
929.112	12700
929.218	12722
929.323	12597
929.428	12654
929.533	12650
929.638	12456
929.743	12475
929.848	12635
929.953	12483
930.058	12483
930.163	12239
930.267	12296
930.372	12384
930.477	12205
930.581	12456
930.685	12251
930.79	12148
930.894	12167
930.998	12049
931.103	12289
931.207	11931
931.311	11817
931.415	11737
931.519	11535
931.623	11524
