Data from test_V78500241_3698.txt Node
Date: Fri Mar 25 16:07:25 CST 2022
User: usil
Spectrometer: V785-0024
Trigger mode: 0
Integration Time (sec): 4.000000E-1
Scans to average: 1
Nonlinearity correction enabled: false
Boxcar width: 0
Storing dark spectrum: false
XAxis mode: Wavelengths
Number of Pixels in Spectrum: 1024
>>>>>Begin Spectral Data<<<<<
801.071	28363
801.214	28417
801.356	28215
801.499	28006
801.641	28044
801.783	27964
801.926	28093
802.068	27979
802.211	27903
802.353	27816
802.496	27618
802.638	27690
802.78	27656
802.923	27686
803.065	27405
803.208	27515
803.35	27660
803.492	27835
803.635	27968
803.777	27793
803.919	27918
804.061	28166
804.204	27972
804.346	27941
804.488	27743
804.63	27842
804.773	27808
804.915	27827
805.057	27888
805.199	27907
805.341	28067
805.483	27934
805.626	28074
805.768	27998
805.91	28090
806.052	28093
806.194	28032
806.336	28303
806.478	27926
806.62	28044
806.762	28166
806.904	28242
807.046	28584
807.188	28447
807.33	28497
807.472	28485
807.614	28557
807.756	28459
807.898	28329
808.04	28409
808.182	28314
808.324	28348
808.465	28265
808.607	28401
808.749	28694
808.891	28835
809.033	28805
809.174	28717
809.316	28793
809.458	28763
809.6	28664
809.741	28828
809.883	28786
810.025	28991
810.166	28961
810.308	29083
810.45	29003
810.591	28976
810.733	28748
810.875	28630
811.016	28668
811.158	28763
811.299	28850
811.441	28854
811.582	28824
811.724	28771
811.865	28694
812.007	28816
812.148	28733
812.29	28752
812.431	28957
812.573	29044
812.714	29029
812.855	29185
812.997	29356
813.138	29573
813.279	29398
813.421	29204
813.562	29200
813.703	29044
813.845	28999
813.986	28542
814.127	28512
814.268	28398
814.41	28428
814.551	28508
814.692	28405
814.833	28341
814.974	28382
815.115	28466
815.256	28287
815.397	28265
815.539	28371
815.68	28268
815.821	28120
815.962	28230
816.103	28295
816.244	28074
816.385	28181
816.526	28017
816.666	27823
816.807	27770
816.948	27808
817.089	27797
817.23	27884
817.371	27610
817.512	27778
817.653	27720
817.793	27793
817.934	27686
818.075	27713
818.216	27713
818.356	27762
818.497	27572
818.638	27435
818.778	27389
818.919	27557
819.06	27549
819.2	27622
819.341	27675
819.481	27663
819.622	27838
819.762	28074
819.903	27854
820.043	27934
820.184	27766
820.324	27854
820.465	27987
820.605	27895
820.746	27808
820.886	27720
821.026	27789
821.167	27797
821.307	27831
821.447	27873
821.588	27652
821.728	27542
821.868	27283
822.008	27310
822.149	27264
822.289	27218
822.429	26971
822.569	26971
822.709	26880
822.849	26773
822.99	26788
823.13	26807
823.27	26758
823.41	26663
823.55	26412
823.69	26545
823.83	26587
823.97	26545
824.11	26332
824.25	26412
824.389	26244
824.529	26301
824.669	26358
824.809	26355
824.949	26374
825.089	26503
825.228	26488
825.368	26202
825.508	26115
825.648	26298
825.787	26187
825.927	26298
826.067	26263
826.206	26218
826.346	26328
826.485	26305
826.625	26161
826.765	26366
826.904	26450
827.044	25970
827.183	26054
827.323	25959
827.462	26096
827.601	26027
827.741	26058
827.88	26027
828.02	25879
828.159	25921
828.298	25978
828.437	25963
828.577	25906
828.716	26016
828.855	25913
828.994	25734
829.134	25628
829.273	25818
829.412	25742
829.551	25601
829.69	25632
829.829	25750
829.968	25807
830.107	25662
830.246	25605
830.385	25544
830.524	25499
830.663	25476
830.802	25327
830.941	25259
831.08	25171
831.219	25202
831.357	25289
831.496	25616
831.635	25327
831.774	25168
831.913	25225
832.051	25099
832.19	25126
832.329	25088
832.467	24852
832.606	24878
832.744	24905
832.883	24932
833.022	25038
833.16	24901
833.299	24962
833.437	24856
833.576	24947
833.714	25031
833.852	24947
833.991	25012
834.129	25168
834.267	25145
834.406	25080
834.544	25118
834.682	25034
834.821	24943
834.959	25091
835.097	24894
835.235	25099
835.373	25084
835.511	24867
835.65	24848
835.788	24783
835.926	24646
836.064	24597
836.202	24700
836.34	24791
836.478	24867
836.615	24837
836.753	24840
836.891	24878
837.029	24951
837.167	24840
837.305	24646
837.443	24658
837.58	24570
837.718	24749
837.856	24707
837.993	24631
838.131	24593
838.269	24498
838.406	24703
838.544	24422
838.681	24361
838.819	24281
838.956	24102
839.094	24201
839.231	24057
839.369	24353
839.506	24464
839.643	24407
839.781	24228
839.918	24015
840.055	24167
840.193	24060
840.33	23984
840.467	24102
840.604	24136
840.742	24228
840.879	23878
841.016	23988
841.153	23973
841.29	24129
841.427	24030
841.564	24064
841.701	24045
841.838	23950
841.975	24003
842.112	23999
842.249	23897
842.385	23847
842.522	24136
842.659	23893
842.796	23885
842.933	23851
843.069	23642
843.206	23657
843.343	23809
843.479	23798
843.616	23912
843.752	23581
843.889	23623
844.025	23653
844.162	23551
844.298	23710
844.435	23509
844.571	23539
844.708	23646
844.844	23794
844.98	23745
845.117	23657
845.253	23482
845.389	23440
845.525	23452
845.661	23459
845.798	23277
845.934	23280
846.07	23299
846.206	23235
846.342	23429
846.478	23204
846.614	23102
846.75	22946
846.886	23010
847.022	23025
847.158	23121
847.294	23014
847.429	22991
847.565	23162
847.701	23227
847.837	22664
847.972	22744
848.108	22843
848.244	22763
848.379	22656
848.515	22523
848.65	22637
848.786	22706
848.921	22554
849.057	22835
849.192	22698
849.328	22653
849.463	22637
849.598	22443
849.734	22573
849.869	22554
850.004	22360
850.14	22367
850.275	22421
850.41	22314
850.545	22348
850.68	22386
850.815	22398
850.95	22398
851.085	22519
851.22	22485
851.355	22440
851.49	22249
851.625	22322
851.76	22405
851.895	22268
852.03	22318
852.165	22398
852.299	22375
852.434	22485
852.569	22390
852.703	22310
852.838	22474
852.973	22580
853.107	22512
853.242	22284
853.376	22234
853.511	22025
853.645	22124
853.78	22382
853.914	22158
854.048	22158
854.183	22276
854.317	22230
854.451	22382
854.585	22200
854.72	22192
854.854	22379
854.988	22166
855.122	22268
855.256	22093
855.39	22139
855.524	22276
855.658	22219
855.792	22196
855.926	22196
856.06	22306
856.194	22291
856.327	22200
856.461	22169
856.595	22234
856.729	22185
856.862	22265
856.996	22246
857.13	22219
857.263	22348
857.397	22280
857.53	22188
857.664	22379
857.797	22101
857.931	22291
858.064	22078
858.197	22333
858.331	22185
858.464	22143
858.597	22173
858.731	22124
858.864	22116
858.997	22234
859.13	22207
859.263	22402
859.396	22169
859.529	22223
859.662	22223
859.795	22116
859.928	22230
860.061	22421
860.194	22466
860.327	22314
860.46	22242
860.592	22386
860.725	22432
860.858	22417
860.99	22306
861.123	22101
861.256	22078
861.388	22268
861.521	23022
861.653	22067
861.786	21975
861.918	22055
862.05	22040
862.183	22013
862.315	22059
862.447	22169
862.58	22147
862.712	21884
862.844	21880
862.976	22169
863.108	22112
863.24	22443
863.372	21751
863.504	21915
863.636	21804
863.768	21945
863.9	21930
864.032	21797
864.164	21880
864.296	21922
864.428	22067
864.559	21968
864.691	22010
864.823	21804
864.954	21793
865.086	21949
865.217	21778
865.349	21793
865.48	21895
865.612	21808
865.743	21915
865.875	21857
866.006	21873
866.137	21842
866.269	21865
866.4	21671
866.531	21709
866.662	21762
866.793	21808
866.924	21724
867.055	21766
867.186	21812
867.317	21667
867.448	21679
867.579	21819
867.71	21705
867.841	21762
867.972	21679
868.103	21679
868.233	21850
868.364	21793
868.495	21838
868.625	21911
868.756	21979
868.886	22010
869.017	21895
869.147	22002
869.278	22154
869.408	22070
869.539	22006
869.669	22082
869.799	22051
869.929	22082
870.06	22078
870.19	22169
870.32	22382
870.45	22432
870.58	22375
870.71	22462
870.84	22466
870.97	22341
871.1	22398
871.23	22599
871.36	22599
871.489	22474
871.619	22523
871.749	22519
871.879	22611
872.008	22809
872.138	22725
872.267	22630
872.397	22462
872.526	22466
872.656	22432
872.785	22527
872.915	22702
873.044	22630
873.173	22691
873.303	22702
873.432	22710
873.561	22691
873.69	22592
873.819	22675
873.948	22672
874.077	22588
874.206	22596
874.335	22687
874.464	22733
874.593	22911
874.722	22801
874.851	22858
874.979	22839
875.108	22957
875.237	22790
875.365	22736
875.494	22809
875.623	22873
875.751	22847
875.88	22873
876.008	22915
876.136	22961
876.265	23216
876.393	23391
876.521	23410
876.65	23250
876.778	23235
876.906	23140
877.034	23147
877.162	23174
877.29	23143
877.418	23250
877.546	23166
877.674	23121
877.802	23280
877.93	23246
878.058	23147
878.185	22968
878.313	23067
878.441	23200
878.568	22976
878.696	23170
878.824	23124
878.951	23345
879.079	23410
879.206	23410
879.333	23353
879.461	23151
879.588	23318
879.715	23341
879.842	23520
879.97	23140
880.097	23083
880.224	23037
880.351	22934
880.478	23151
880.605	23102
880.732	23056
880.859	23292
880.986	23033
881.112	23109
881.239	22824
881.366	22793
881.493	22736
881.619	22569
881.746	22535
881.872	22535
881.999	22489
882.125	22375
882.252	22557
882.378	22504
882.505	22713
882.631	22428
882.757	22253
882.883	22428
883.01	22177
883.136	22204
883.262	22070
883.388	21968
883.514	22318
883.64	22306
883.766	22124
883.892	21949
884.018	21960
884.143	22188
884.269	22211
884.395	21956
884.52	21934
884.646	22017
884.772	21857
884.897	21778
885.023	21865
885.148	21937
885.274	22090
885.399	22044
885.524	21842
885.65	21869
885.775	21812
885.9	21892
886.025	22036
886.15	21956
886.275	21816
886.4	21728
886.525	21861
886.65	21861
886.775	21850
886.9	21945
887.025	22109
887.149	21934
887.274	21656
887.399	21728
887.523	21720
887.648	21557
887.773	21534
887.897	21713
888.021	21648
888.146	21591
888.27	21747
888.395	21819
888.519	21701
888.643	21762
888.767	21842
888.891	21564
889.015	21496
889.139	21530
889.263	21412
889.387	21416
889.511	21698
889.635	21545
889.759	21405
889.883	21325
890.006	21469
890.13	21435
890.254	21393
890.377	21397
890.501	21184
890.624	21138
890.748	21180
890.871	21157
890.995	20975
891.118	20941
891.241	21077
891.364	21020
891.488	21226
891.611	21039
891.734	20887
891.857	21032
891.98	21028
892.103	21131
892.226	21047
892.349	20956
892.471	20777
892.594	20876
892.717	20887
892.839	20876
892.962	20861
893.085	21017
893.207	20830
893.33	20807
893.452	20739
893.575	20990
893.697	20830
893.819	20925
893.941	21032
894.064	20982
894.186	20769
894.308	20807
894.43	20971
894.552	20979
894.674	20937
894.796	20830
894.918	20842
895.04	20948
895.161	21001
895.283	20948
895.405	20864
895.526	20914
895.648	20804
895.769	20899
895.891	20857
896.012	21009
896.134	20765
896.255	20823
896.376	20765
896.498	20910
896.619	20952
896.74	20811
896.861	20910
896.982	21157
897.103	21321
897.224	21119
897.345	21062
897.466	21028
897.587	21028
897.708	21173
897.828	21180
897.949	20986
898.07	20849
898.19	21150
898.311	21138
898.431	21017
898.552	21123
898.672	21058
898.792	20986
898.913	21112
899.033	20979
899.153	20891
899.273	20792
899.393	20765
899.513	20735
899.633	20750
899.753	20937
899.873	20689
899.993	20868
900.113	20739
900.232	20830
900.352	20712
900.472	20629
900.591	20507
900.711	20727
900.83	20454
900.95	20575
901.069	20670
901.189	20423
901.308	20183
901.427	20107
901.546	20153
901.665	20153
901.784	20115
901.904	20088
902.023	19959
902.141	19693
902.26	19674
902.379	19738
902.498	19662
902.617	19635
902.735	19704
902.854	19734
902.973	19575
903.091	19434
903.21	19324
903.328	19441
903.446	19202
903.565	19057
903.683	19126
903.801	19065
903.919	18875
904.038	18985
904.156	18886
904.274	18951
904.392	18730
904.51	18882
904.627	18882
904.745	18909
904.863	18859
904.981	18719
905.098	18509
905.216	18441
905.334	18494
905.451	18525
905.569	18597
905.686	18574
905.803	18475
905.921	18346
906.038	18464
906.155	18350
906.272	18121
906.389	18308
906.506	17977
906.623	18121
906.74	17988
906.857	18003
906.974	17931
907.091	18148
907.208	18190
907.324	17996
907.441	17988
907.557	17821
907.674	17847
907.79	17790
907.907	17684
908.023	17722
908.139	17847
908.256	17684
908.372	17680
908.488	17695
908.604	17589
908.72	17486
908.836	17611
908.952	17452
909.068	17573
909.184	17585
909.3	17528
909.415	17410
909.531	17497
909.647	17315
909.762	17220
909.878	17242
909.993	17254
910.108	17140
910.224	17174
910.339	17197
910.454	17056
910.57	17029
910.685	17010
910.8	17231
910.915	17204
911.03	16942
911.145	16839
911.259	16816
911.374	16786
911.489	16687
911.604	16615
911.718	16504
911.833	16516
911.947	16382
912.062	16455
912.176	16504
912.291	16603
912.405	16497
912.519	16736
912.633	16733
912.748	16691
912.862	16459
912.976	16474
913.09	16192
913.204	16287
913.318	16314
913.431	16474
913.545	16344
913.659	16440
913.772	16333
913.886	16139
914	16071
914.113	16306
914.226	16185
914.34	16074
914.453	15930
914.566	16166
914.68	15934
914.793	15949
914.906	15804
915.019	15759
915.132	15671
915.245	15705
915.358	15778
915.47	15698
915.583	15648
915.696	15751
915.809	15857
915.921	15755
916.034	15652
916.146	15584
916.259	15584
916.371	15660
916.483	15644
916.595	15572
916.708	15652
916.82	15545
916.932	15545
917.044	15397
917.156	15500
917.268	15374
917.38	15359
917.491	15302
917.603	15310
917.715	15393
917.826	15412
917.938	15233
918.049	15222
918.161	15222
918.272	15420
918.384	15313
918.495	15249
918.606	15154
918.717	15017
918.828	15108
918.939	15135
919.05	14937
919.161	15062
919.272	14777
919.383	14960
919.494	15097
919.604	15207
919.715	15013
919.826	14971
919.936	14929
920.047	15138
920.157	15051
920.267	15279
920.378	15013
920.488	15001
920.598	15203
920.708	15317
920.818	15150
920.928	15192
921.038	15294
921.148	15291
921.258	14963
921.368	14948
921.477	14735
921.587	14769
921.697	14583
921.806	14849
921.916	14590
922.025	14507
922.134	14377
922.244	14343
922.353	14476
922.462	14347
922.571	14206
922.68	13978
922.789	14081
922.898	14031
923.007	14005
923.116	14043
923.224	14039
923.333	14062
923.442	13868
923.55	13860
923.659	13925
923.767	13955
923.876	13868
923.984	13986
924.092	13715
924.201	13746
924.309	13753
924.417	13742
924.525	13708
924.633	13651
924.741	14438
924.849	13495
924.956	13651
925.064	13324
925.172	13327
925.279	13400
925.387	13426
925.494	13441
925.602	13658
925.709	13358
925.816	13331
925.924	13411
926.031	13510
926.138	13369
926.245	13377
926.352	13274
926.459	13407
926.566	13480
926.673	13422
926.779	13179
926.886	13110
926.993	13088
927.099	12943
927.206	12973
927.312	12958
927.419	13038
927.525	12951
927.631	12863
927.737	12875
927.843	12821
927.95	12631
928.056	12791
928.162	12738
928.267	12779
928.373	13514
928.479	12829
928.585	12658
928.69	12760
928.796	12768
928.901	12559
929.007	12448
929.112	12582
929.218	12593
929.323	12528
929.428	12407
929.533	12547
929.638	12407
929.743	12380
929.848	12483
929.953	12502
930.058	12456
930.163	12232
930.267	12175
930.372	12323
930.477	12106
930.581	12414
930.685	12159
930.79	11980
930.894	12034
930.998	11980
931.103	12068
931.207	11786
931.311	11733
931.415	11600
931.519	11497
931.623	11429
