Data from test_V78500241_1695.txt Node
Date: Fri Mar 25 15:53:32 CST 2022
User: usil
Spectrometer: V785-0024
Trigger mode: 0
Integration Time (sec): 4.000000E-1
Scans to average: 1
Nonlinearity correction enabled: false
Boxcar width: 0
Storing dark spectrum: false
XAxis mode: Wavelengths
Number of Pixels in Spectrum: 1024
>>>>>Begin Spectral Data<<<<<
801.071	28013
801.214	27956
801.356	27625
801.499	27679
801.641	27587
801.783	27667
801.926	27572
802.068	27519
802.211	27644
802.353	27401
802.496	27363
802.638	27119
802.78	27310
802.923	27256
803.065	27108
803.208	27176
803.35	27211
803.492	27245
803.635	27420
803.777	27283
803.919	27454
804.061	27682
804.204	27614
804.346	27382
804.488	27317
804.63	27549
804.773	27310
804.915	27530
805.057	27606
805.199	27485
805.341	27542
805.483	27458
805.626	27686
805.768	27481
805.91	27614
806.052	27622
806.194	27538
806.336	27808
806.478	27561
806.62	27625
806.762	27804
806.904	27899
807.046	28131
807.188	27960
807.33	28025
807.472	28048
807.614	28063
807.756	28135
807.898	27895
808.04	27838
808.182	27793
808.324	27926
808.465	27907
808.607	27949
808.749	28276
808.891	28390
809.033	28363
809.174	28363
809.316	28276
809.458	28246
809.6	28268
809.741	28344
809.883	28417
810.025	28672
810.166	28523
810.308	28523
810.45	28382
810.591	28447
810.733	28337
810.875	28318
811.016	28063
811.158	28116
811.299	28169
811.441	28409
811.582	28379
811.724	28280
811.865	28078
812.007	28162
812.148	28242
812.29	28211
812.431	28489
812.573	28493
812.714	28599
812.855	28805
812.997	28816
813.138	28911
813.279	28915
813.421	28820
813.562	28725
813.703	28531
813.845	28466
813.986	28211
814.127	28032
814.268	27934
814.41	27983
814.551	27911
814.692	28002
814.833	27705
814.974	27873
815.115	27903
815.256	27759
815.397	27789
815.539	27842
815.68	27800
815.821	27732
815.962	27648
816.103	27614
816.244	27462
816.385	27386
816.526	27443
816.666	27264
816.807	27180
816.948	27302
817.089	27302
817.23	27272
817.371	27298
817.512	27287
817.653	27272
817.793	27119
817.934	27302
818.075	27203
818.216	27294
818.356	27256
818.497	27157
818.638	26960
818.778	26777
818.919	26906
819.06	27024
819.2	27062
819.341	27268
819.481	27249
819.622	27298
819.762	27599
819.903	27447
820.043	27332
820.184	27298
820.324	27397
820.465	27359
820.605	27382
820.746	27329
820.886	27169
821.026	27355
821.167	27226
821.307	27268
821.447	27169
821.588	27017
821.728	27051
821.868	26819
822.008	26781
822.149	26632
822.289	26720
822.429	26541
822.569	26370
822.709	26309
822.849	26195
822.99	26278
823.13	26240
823.27	26172
823.41	26069
823.55	25841
823.69	25966
823.83	26065
823.97	26005
824.11	25791
824.25	25917
824.389	25814
824.529	25841
824.669	25814
824.809	25940
824.949	25978
825.089	25871
825.228	25982
825.368	25655
825.508	25651
825.648	25674
825.787	25666
825.927	25742
826.067	25742
826.206	25814
826.346	25849
826.485	25727
826.625	25674
826.765	25826
826.904	25731
827.044	25472
827.183	25415
827.323	25365
827.462	25514
827.601	25422
827.741	25407
827.88	25460
828.02	25346
828.159	25460
828.298	25479
828.437	25495
828.577	25354
828.716	25590
828.855	25312
828.994	25145
829.134	25190
829.273	25164
829.412	25046
829.551	25088
829.69	25057
829.829	25202
829.968	25129
830.107	25118
830.246	25160
830.385	25114
830.524	24863
830.663	24973
830.802	24844
830.941	24753
831.08	24597
831.219	24768
831.357	24829
831.496	24856
831.635	24760
831.774	24673
831.913	24505
832.051	24460
832.19	24578
832.329	24509
832.467	24395
832.606	24308
832.744	24292
832.883	24277
833.022	24460
833.16	24426
833.299	24486
833.437	24467
833.576	24399
833.714	24388
833.852	24494
833.991	24456
834.129	24589
834.267	24502
834.406	24418
834.544	24448
834.682	24460
834.821	24460
834.959	24566
835.097	24437
835.235	24448
835.373	24308
835.511	24464
835.65	24285
835.788	24228
835.926	24304
836.064	24041
836.202	24167
836.34	24422
836.478	24372
836.615	24292
836.753	24117
836.891	24308
837.029	24330
837.167	24159
837.305	24174
837.443	24194
837.58	24114
837.718	24186
837.856	24174
837.993	24057
838.131	24064
838.269	24083
838.406	24022
838.544	23996
838.681	23767
838.819	23726
838.956	23585
839.094	23562
839.231	23672
839.369	23760
839.506	23984
839.643	23824
839.781	23589
839.918	23440
840.055	23516
840.193	23444
840.33	23531
840.467	23615
840.604	23604
840.742	23851
840.879	23345
841.016	23482
841.153	23425
841.29	23490
841.427	23505
841.564	23509
841.701	23322
841.838	23376
841.975	23353
842.112	23433
842.249	23337
842.385	23216
842.522	23467
842.659	23311
842.796	23155
842.933	23269
843.069	23121
843.206	23185
843.343	23258
843.479	23269
843.616	23254
843.752	23033
843.889	22972
844.025	23174
844.162	23094
844.298	23037
844.435	23079
844.571	23006
844.708	23117
844.844	23170
844.98	23189
845.117	23029
845.253	22991
845.389	22877
845.525	22729
845.661	22942
845.798	22782
845.934	22755
846.07	22672
846.206	22717
846.342	22892
846.478	22702
846.614	22653
846.75	22474
846.886	22447
847.022	22535
847.158	22717
847.294	22443
847.429	22500
847.565	22447
847.701	22615
847.837	22284
847.972	22211
848.108	22382
848.244	22253
848.379	22021
848.515	22036
848.65	21987
848.786	22101
848.921	22017
849.057	22265
849.192	22131
849.328	22063
849.463	22051
849.598	22048
849.734	21876
849.869	21842
850.004	21854
850.14	21816
850.275	21804
850.41	21679
850.545	21686
850.68	21717
850.815	21937
850.95	21713
851.085	21998
851.22	21945
851.355	21880
851.49	21930
851.625	21850
851.76	21713
851.895	21766
852.03	21747
852.165	21873
852.299	21755
852.434	21918
852.569	21850
852.703	21899
852.838	21861
852.973	21884
853.107	21934
853.242	21876
853.376	21603
853.511	21603
853.645	21542
853.78	21717
853.914	21751
854.048	21614
854.183	21622
854.317	21682
854.451	21793
854.585	21644
854.72	21682
854.854	21603
854.988	21504
855.122	21568
855.256	21652
855.39	21572
855.524	21739
855.658	21698
855.792	21667
855.926	21599
856.06	21755
856.194	21778
856.327	21713
856.461	21591
856.595	21675
856.729	21656
856.862	21698
856.996	21633
857.13	21690
857.263	21743
857.397	21679
857.53	21637
857.664	21789
857.797	21759
857.931	21880
858.064	21694
858.197	21793
858.331	21667
858.464	21637
858.597	21576
858.731	21671
858.864	21545
858.997	21625
859.13	21663
859.263	21629
859.396	21770
859.529	21637
859.662	21530
859.795	21622
859.928	21789
860.061	21747
860.194	21846
860.327	21880
860.46	21660
860.592	21880
860.725	21880
860.858	21720
860.99	21728
861.123	21606
861.256	21591
861.388	21603
861.521	22417
861.653	21618
861.786	21378
861.918	21526
862.05	21488
862.183	21576
862.315	21667
862.447	21587
862.58	21606
862.712	21405
862.844	21272
862.976	21485
863.108	21367
863.24	21941
863.372	21340
863.504	21264
863.636	21336
863.768	21329
863.9	21389
864.032	21264
864.164	21363
864.296	21374
864.428	21515
864.559	21408
864.691	21386
864.823	21408
864.954	21408
865.086	21355
865.217	21279
865.349	21192
865.48	21355
865.612	21306
865.743	21306
865.875	21123
866.006	21211
866.137	21195
866.269	21154
866.4	21230
866.531	21154
866.662	21161
866.793	21154
866.924	21150
867.055	21150
867.186	21264
867.317	21047
867.448	21127
867.579	21096
867.71	21169
867.841	21005
867.972	21218
868.103	21123
868.233	21169
868.364	21252
868.495	21249
868.625	21397
868.756	21408
868.886	21359
869.017	21443
869.147	21519
869.278	21481
869.408	21420
869.539	21332
869.669	21428
869.799	21492
869.929	21545
870.06	21504
870.19	21819
870.32	21766
870.45	21663
870.58	21903
870.71	21941
870.84	21884
870.97	21892
871.1	21831
871.23	21994
871.36	21911
871.489	21907
871.619	22021
871.749	22017
871.879	22063
872.008	22219
872.138	22093
872.267	21956
872.397	21732
872.526	21899
872.656	21747
872.785	21857
872.915	22086
873.044	22124
873.173	22112
873.303	22044
873.432	22101
873.561	22074
873.69	22124
873.819	22048
873.948	22158
874.077	22010
874.206	22010
874.335	21945
874.464	22322
874.593	22257
874.722	22325
874.851	22261
874.979	22234
875.108	22367
875.237	22379
875.365	22139
875.494	22242
875.623	22352
875.751	22249
875.88	22272
876.008	22413
876.136	22531
876.265	22615
876.393	22809
876.521	22672
876.65	22786
876.778	22580
876.906	22481
877.034	22679
877.162	22767
877.29	22588
877.418	22637
877.546	22645
877.674	22675
877.802	22630
877.93	22493
878.058	22637
878.185	22523
878.313	22634
878.441	22675
878.568	22409
878.696	22478
878.824	22615
878.951	22679
879.079	22809
879.206	22949
879.333	22812
879.461	22774
879.588	22763
879.715	22786
879.842	22847
879.97	22710
880.097	22493
880.224	22409
880.351	22470
880.478	22485
880.605	22493
880.732	22375
880.859	22752
880.986	22421
881.112	22432
881.239	22276
881.366	22093
881.493	21956
881.619	21968
881.746	22124
881.872	22032
881.999	21991
882.125	21842
882.252	22093
882.378	21842
882.505	22040
882.631	21774
882.757	21701
882.883	21797
883.01	21747
883.136	21633
883.262	21542
883.388	21504
883.514	21724
883.64	21701
883.766	21633
883.892	21431
884.018	21549
884.143	21682
884.269	21614
884.395	21393
884.52	21275
884.646	21454
884.772	21260
884.897	21336
885.023	21431
885.148	21359
885.274	21557
885.399	21367
885.524	21302
885.65	21389
885.775	21408
885.9	21321
886.025	21370
886.15	21325
886.275	21351
886.4	21294
886.525	21370
886.65	21313
886.775	21302
886.9	21348
887.025	21477
887.149	21272
887.274	21112
887.399	21036
887.523	21077
887.648	21062
887.773	21074
887.897	21077
888.021	21135
888.146	21001
888.27	21165
888.395	21233
888.519	21195
888.643	21135
888.767	21123
888.891	21024
889.015	20929
889.139	21028
889.263	20948
889.387	21081
889.511	21184
889.635	21081
889.759	20880
889.883	20902
890.006	20868
890.13	20990
890.254	20872
890.377	20895
890.501	20659
890.624	20682
890.748	20697
890.871	20564
890.995	20602
891.118	20450
891.241	20522
891.364	20431
891.488	20530
891.611	20511
891.734	20590
891.857	20571
891.98	20415
892.103	20552
892.226	20625
892.349	20317
892.471	20191
892.594	20370
892.717	20393
892.839	20305
892.962	20355
893.085	20560
893.207	20396
893.33	20267
893.452	20172
893.575	20419
893.697	20366
893.819	20526
893.941	20499
894.064	20473
894.186	20374
894.308	20370
894.43	20377
894.552	20484
894.674	20503
894.796	20313
894.918	20457
895.04	20305
895.161	20457
895.283	20492
895.405	20446
895.526	20324
895.648	20396
895.769	20385
895.891	20355
896.012	20473
896.134	20400
896.255	20526
896.376	20233
896.498	20332
896.619	20473
896.74	20362
896.861	20450
896.982	20651
897.103	20716
897.224	20617
897.345	20564
897.466	20488
897.587	20598
897.708	20788
897.828	20636
897.949	20507
898.07	20393
898.19	20511
898.311	20708
898.431	20537
898.552	20693
898.672	20636
898.792	20674
898.913	20537
899.033	20541
899.153	20419
899.273	20282
899.393	20347
899.513	20324
899.633	20336
899.753	20347
899.873	20233
899.993	20408
900.113	20351
900.232	20294
900.352	20263
900.472	20107
900.591	20077
900.711	20149
900.83	20012
900.95	20046
901.069	20263
901.189	20126
901.308	19799
901.427	19738
901.546	19594
901.665	19674
901.784	19635
901.904	19441
902.023	19365
902.141	19422
902.26	19293
902.379	19373
902.498	19179
902.617	19152
902.735	19129
902.854	19072
902.973	19118
903.091	18916
903.21	18837
903.328	18840
903.446	18779
903.565	18715
903.683	18734
903.801	18585
903.919	18623
904.038	18585
904.156	18410
904.274	18528
904.392	18460
904.51	18384
904.627	18437
904.745	18395
904.863	18483
904.981	18186
905.098	18114
905.216	18136
905.334	18106
905.451	18068
905.569	18019
905.686	18087
905.803	18011
905.921	18015
906.038	17954
906.155	17939
906.272	17752
906.389	17851
906.506	17733
906.623	17718
906.74	17676
906.857	17410
906.974	17566
907.091	17592
907.208	17745
907.324	17497
907.441	17604
907.557	17379
907.674	17368
907.79	17372
907.907	17239
908.023	17433
908.139	17353
908.256	17288
908.372	17216
908.488	17178
908.604	17094
908.72	17124
908.836	17056
908.952	17079
909.068	17029
909.184	17170
909.3	16999
909.415	17064
909.531	17064
909.647	16786
909.762	16892
909.878	16771
909.993	16713
910.108	16649
910.224	16736
910.339	16672
910.454	16615
910.57	16584
910.685	16478
910.8	16778
910.915	16683
911.03	16493
911.145	16440
911.259	16333
911.374	16367
911.489	16234
911.604	16207
911.718	16017
911.833	16166
911.947	15960
912.062	15949
912.176	16078
912.291	16177
912.405	16090
912.519	16356
912.633	16344
912.748	16204
912.862	16063
912.976	15892
913.09	15778
913.204	15941
913.318	15911
913.431	15991
913.545	15907
913.659	15975
913.772	15945
913.886	15762
914	15835
914.113	15907
914.226	15835
914.34	15682
914.453	15587
914.566	15717
914.68	15610
914.793	15614
914.906	15336
915.019	15428
915.132	15260
915.245	15291
915.358	15355
915.47	15313
915.583	15317
915.696	15279
915.809	15439
915.921	15416
916.034	15260
916.146	15260
916.259	15154
916.371	15275
916.483	15233
916.595	15218
916.708	15199
916.82	15226
916.932	15169
917.044	15043
917.156	15161
917.268	15051
917.38	15024
917.491	14937
917.603	14933
917.715	15089
917.826	15028
917.938	14937
918.049	14804
918.161	14834
918.272	14967
918.384	15058
918.495	14872
918.606	14746
918.717	14655
918.828	14826
918.939	14762
919.05	14701
919.161	14720
919.272	14446
919.383	14587
919.494	14804
919.604	14895
919.715	14712
919.826	14602
919.936	14682
920.047	14800
920.157	14716
920.267	14857
920.378	14796
920.488	14682
920.598	14868
920.708	14921
920.818	14842
920.928	14861
921.038	15017
921.148	14941
921.258	14625
921.368	14602
921.477	14473
921.587	14381
921.697	14343
921.806	14446
921.916	14332
922.025	14176
922.134	14115
922.244	14077
922.353	14123
922.462	13902
922.571	13883
922.68	13849
922.789	13757
922.898	13795
923.007	13677
923.116	13780
923.224	13723
923.333	13616
923.442	13571
923.55	13449
923.659	13559
923.767	13609
923.876	13491
923.984	13567
924.092	13407
924.201	13480
924.309	13514
924.417	13415
924.525	13426
924.633	13422
924.741	14134
924.849	13168
924.956	13346
925.064	13217
925.172	13164
925.279	13156
925.387	13152
925.494	13122
925.602	13209
925.709	13164
925.816	13084
925.924	13053
926.031	13209
926.138	13080
926.245	13099
926.352	12985
926.459	13008
926.566	13179
926.673	12977
926.779	12833
926.886	12958
926.993	12741
927.099	12707
927.206	12620
927.312	12665
927.419	12635
927.525	12673
927.631	12779
927.737	12635
927.843	12494
927.95	12422
928.056	12521
928.162	12517
928.267	12559
928.373	13122
928.479	12574
928.585	12369
928.69	12532
928.796	12467
928.901	12323
929.007	12201
929.112	12346
929.218	12338
929.323	12201
929.428	12262
929.533	12315
929.638	12205
929.743	12262
929.848	12247
929.953	12216
930.058	12011
930.163	11927
930.267	11878
930.372	12038
930.477	11813
930.581	12129
930.685	11954
930.79	11802
930.894	11908
930.998	11745
931.103	11923
931.207	11619
931.311	11429
931.415	11364
931.519	11185
931.623	11166
