Data from test_V78500241_3321.txt Node
Date: Fri Mar 25 16:04:48 CST 2022
User: usil
Spectrometer: V785-0024
Trigger mode: 0
Integration Time (sec): 4.000000E-1
Scans to average: 1
Nonlinearity correction enabled: false
Boxcar width: 0
Storing dark spectrum: false
XAxis mode: Wavelengths
Number of Pixels in Spectrum: 1024
>>>>>Begin Spectral Data<<<<<
801.071	28759
801.214	28748
801.356	28440
801.499	28421
801.641	28276
801.783	28371
801.926	28390
802.068	28306
802.211	28268
802.353	28166
802.496	28032
802.638	28040
802.78	27922
802.923	27987
803.065	27717
803.208	27865
803.35	28006
803.492	28188
803.635	28341
803.777	28128
803.919	28200
804.061	28596
804.204	28367
804.346	28185
804.488	28131
804.63	28265
804.773	28162
804.915	28337
805.057	28470
805.199	28253
805.341	28287
805.483	28337
805.626	28337
805.768	28356
805.91	28508
806.052	28428
806.194	28325
806.336	28561
806.478	28367
806.62	28421
806.762	28607
806.904	28611
807.046	28999
807.188	28862
807.33	28858
807.472	28995
807.614	28866
807.756	28908
807.898	28656
808.04	28797
808.182	28672
808.324	28691
808.465	28683
808.607	29029
808.749	29086
808.891	29178
809.033	29372
809.174	29204
809.316	29090
809.458	29075
809.6	29064
809.741	29246
809.883	29254
810.025	29402
810.166	29410
810.308	29383
810.45	29406
810.591	29345
810.733	29117
810.875	29143
811.016	29060
811.158	29094
811.299	29212
811.441	29277
811.582	29356
811.724	29136
811.865	29261
812.007	29124
812.148	29166
812.29	29239
812.431	29337
812.573	29520
812.714	29630
812.855	29752
812.997	29767
813.138	29954
813.279	29733
813.421	29691
813.562	29672
813.703	29379
813.845	29425
813.986	29105
814.127	28976
814.268	28843
814.41	28835
814.551	28824
814.692	28961
814.833	28778
814.974	28717
815.115	28873
815.256	28797
815.397	28763
815.539	28854
815.68	28550
815.821	28611
815.962	28698
816.103	28660
816.244	28721
816.385	28318
816.526	28485
816.666	28333
816.807	28215
816.948	28344
817.089	28379
817.23	28223
817.371	28204
817.512	28249
817.653	28215
817.793	28112
817.934	28124
818.075	28238
818.216	28249
818.356	28097
818.497	27998
818.638	27911
818.778	28021
818.919	27907
819.06	27934
819.2	28097
819.341	28318
819.481	28112
819.622	28287
819.762	28523
819.903	28451
820.043	28512
820.184	28295
820.324	28204
820.465	28367
820.605	28337
820.746	28344
820.886	28306
821.026	28226
821.167	28371
821.307	28348
821.447	28280
821.588	28204
821.728	28063
821.868	27808
822.008	27682
822.149	27660
822.289	27564
822.429	27401
822.569	27329
822.709	27405
822.849	27192
822.99	27252
823.13	27264
823.27	27058
823.41	27062
823.55	26826
823.69	27123
823.83	27039
823.97	26933
824.11	26830
824.25	26769
824.389	26864
824.529	26800
824.669	26769
824.809	26815
824.949	26921
825.089	26956
825.228	26834
825.368	26689
825.508	26617
825.648	26686
825.787	26708
825.927	26762
826.067	26636
826.206	26781
826.346	26762
826.485	26754
826.625	26758
826.765	26800
826.904	26777
827.044	26423
827.183	26598
827.323	26453
827.462	26374
827.601	26450
827.741	26450
827.88	26419
828.02	26393
828.159	26332
828.298	26385
828.437	26488
828.577	26351
828.716	26492
828.855	26298
828.994	26164
829.134	26065
829.273	26153
829.412	26062
829.551	26103
829.69	26111
829.829	26100
829.968	26153
830.107	26126
830.246	26271
830.385	25993
830.524	26111
830.663	25928
830.802	25731
830.941	25753
831.08	25803
831.219	25879
831.357	25719
831.496	25818
831.635	25753
831.774	25632
831.913	25738
832.051	25392
832.19	25544
832.329	25483
832.467	25316
832.606	25430
832.744	25453
832.883	25434
833.022	25236
833.16	25430
833.299	25411
833.437	25327
833.576	25499
833.714	25358
833.852	25449
833.991	25502
834.129	25552
834.267	25415
834.406	25476
834.544	25499
834.682	25392
834.821	25369
834.959	25662
835.097	25194
835.235	25263
835.373	25301
835.511	25559
835.65	25339
835.788	25308
835.926	25168
836.064	25042
836.202	25118
836.34	25278
836.478	25320
836.615	25274
836.753	25278
836.891	25403
837.029	25175
837.167	25225
837.305	25221
837.443	25179
837.58	25053
837.718	25202
837.856	25164
837.993	25034
838.131	25084
838.269	24932
838.406	25156
838.544	25008
838.681	24700
838.819	24707
838.956	24536
839.094	24582
839.231	24661
839.369	24642
839.506	24848
839.643	24711
839.781	24593
839.918	24376
840.055	24467
840.193	24521
840.33	24513
840.467	24570
840.604	24555
840.742	24711
840.879	24338
841.016	24308
841.153	24418
841.29	24601
841.427	24384
841.564	24544
841.701	24414
841.838	24429
841.975	24395
842.112	24300
842.249	24308
842.385	24030
842.522	24464
842.659	24254
842.796	24220
842.933	24220
843.069	24224
843.206	24205
843.343	24289
843.479	24330
843.616	24144
843.752	24003
843.889	24102
844.025	24133
844.162	23805
844.298	24194
844.435	24049
844.571	23969
844.708	24110
844.844	24125
844.98	24148
845.117	24102
845.253	23961
845.389	24072
845.525	23939
845.661	23836
845.798	23805
845.934	23710
846.07	23760
846.206	23722
846.342	23722
846.478	23653
846.614	23486
846.75	23417
846.886	23429
847.022	23425
847.158	23486
847.294	23471
847.429	23509
847.565	23376
847.701	23718
847.837	23090
847.972	23124
848.108	23239
848.244	23277
848.379	22999
848.515	22987
848.65	23018
848.786	23105
848.921	22965
849.057	23109
849.192	23132
849.328	23132
849.463	22968
849.598	22930
849.734	22824
849.869	22820
850.004	22774
850.14	22729
850.275	22927
850.41	22748
850.545	22634
850.68	22854
850.815	22801
850.95	22649
851.085	22919
851.22	22923
851.355	22824
851.49	22710
851.625	22862
851.76	22805
851.895	22782
852.03	22706
852.165	22858
852.299	22919
852.434	22850
852.569	22790
852.703	22812
852.838	22923
852.973	23014
853.107	22812
853.242	22790
853.376	22649
853.511	22500
853.645	22611
853.78	22672
853.914	22653
854.048	22634
854.183	22668
854.317	22519
854.451	22877
854.585	22611
854.72	22607
854.854	22748
854.988	22550
855.122	22691
855.256	22474
855.39	22649
855.524	22702
855.658	22645
855.792	22679
855.926	22641
856.06	22618
856.194	22577
856.327	22512
856.461	22474
856.595	22588
856.729	22694
856.862	22706
856.996	22630
857.13	22611
857.263	22843
857.397	22637
857.53	22557
857.664	22786
857.797	22618
857.931	22641
858.064	22561
858.197	22763
858.331	22500
858.464	22470
858.597	22592
858.731	22592
858.864	22618
858.997	22535
859.13	22569
859.263	22683
859.396	22660
859.529	22637
859.662	22641
859.795	22645
859.928	22565
860.061	22763
860.194	22824
860.327	22733
860.46	22577
860.592	22843
860.725	22854
860.858	22809
860.99	22683
861.123	22542
861.256	22596
861.388	22824
861.521	23265
861.653	22527
861.786	22459
861.918	22527
862.05	22580
862.183	22577
862.315	22462
862.447	22702
862.58	22546
862.712	22424
862.844	22261
862.976	22363
863.108	22341
863.24	22786
863.372	22242
863.504	22409
863.636	22322
863.768	22405
863.9	22261
864.032	22341
864.164	22226
864.296	22348
864.428	22329
864.559	22386
864.691	22512
864.823	22417
864.954	22341
865.086	22272
865.217	22333
865.349	22177
865.48	22139
865.612	22261
865.743	22284
865.875	22150
866.006	22226
866.137	22249
866.269	22230
866.4	22051
866.531	22238
866.662	22082
866.793	22093
866.924	22116
867.055	22341
867.186	22090
867.317	22086
867.448	21968
867.579	22158
867.71	22109
867.841	22116
867.972	22230
868.103	22044
868.233	22154
868.364	22143
868.495	22238
868.625	22405
868.756	22436
868.886	22382
869.017	22276
869.147	22607
869.278	22542
869.408	22398
869.539	22382
869.669	22421
869.799	22386
869.929	22546
870.06	22466
870.19	22713
870.32	22694
870.45	22710
870.58	22774
870.71	22831
870.84	22995
870.97	22733
871.1	22930
871.23	22919
871.36	22911
871.489	22946
871.619	22877
871.749	22991
871.879	23006
872.008	23079
872.138	22972
872.267	22995
872.397	22972
872.526	22774
872.656	22881
872.785	22733
872.915	23048
873.044	23086
873.173	23056
873.303	23033
873.432	23052
873.561	23132
873.69	22904
873.819	22911
873.948	23071
874.077	22949
874.206	22980
874.335	22968
874.464	23117
874.593	23216
874.722	23227
874.851	23227
874.979	23170
875.108	23246
875.237	23193
875.365	23117
875.494	23128
875.623	23269
875.751	23098
875.88	23204
876.008	23463
876.136	23444
876.265	23490
876.393	23741
876.521	23779
876.65	23566
876.778	23589
876.906	23493
877.034	23516
877.162	23649
877.29	23417
877.418	23661
877.546	23615
877.674	23520
877.802	23642
877.93	23570
878.058	23467
878.185	23471
878.313	23490
878.441	23592
878.568	23242
878.696	23524
878.824	23497
878.951	23672
879.079	23707
879.206	23752
879.333	23687
879.461	23596
879.588	23695
879.715	23695
879.842	23942
879.97	23695
880.097	23436
880.224	23242
880.351	23436
880.478	23429
880.605	23307
880.732	23337
880.859	23638
880.986	23516
881.112	23444
881.239	23315
881.366	23159
881.493	23056
881.619	23025
881.746	22885
881.872	22854
881.999	22854
882.125	22869
882.252	22991
882.378	22980
882.505	23006
882.631	22809
882.757	22580
882.883	22641
883.01	22599
883.136	22500
883.262	22508
883.388	22455
883.514	22615
883.64	22679
883.766	22577
883.892	22497
884.018	22360
884.143	22542
884.269	22702
884.395	22204
884.52	22226
884.646	22207
884.772	22090
884.897	22295
885.023	22261
885.148	22322
885.274	22295
885.399	22299
885.524	22272
885.65	22333
885.775	22257
885.9	22207
886.025	22481
886.15	22367
886.275	22166
886.4	22112
886.525	22219
886.65	22097
886.775	22238
886.9	22226
887.025	22432
887.149	22131
887.274	22010
887.399	21934
887.523	22010
887.648	22021
887.773	21956
887.897	21960
888.021	21926
888.146	21892
888.27	21956
888.395	22124
888.519	21979
888.643	22013
888.767	21941
888.891	21869
889.015	21827
889.139	21709
889.263	21850
889.387	21846
889.511	22013
889.635	21816
889.759	21800
889.883	21827
890.006	21918
890.13	21888
890.254	21800
890.377	21732
890.501	21610
890.624	21481
890.748	21595
890.871	21367
890.995	21249
891.118	21336
891.241	21298
891.364	21382
891.488	21462
891.611	21370
891.734	21363
891.857	21416
891.98	21462
892.103	21393
892.226	21279
892.349	21146
892.471	21116
892.594	21222
892.717	21321
892.839	21218
892.962	21233
893.085	21275
893.207	21233
893.33	21104
893.452	21077
893.575	21256
893.697	21313
893.819	21458
893.941	21504
894.064	21412
894.186	21249
894.308	21131
894.43	21272
894.552	21317
894.674	21317
894.796	21089
894.918	21146
895.04	21173
895.161	21317
895.283	21321
895.405	21150
895.526	21184
895.648	21188
895.769	21192
895.891	21085
896.012	21272
896.134	21218
896.255	21123
896.376	21203
896.498	21081
896.619	21089
896.74	21142
896.861	21264
896.982	21439
897.103	21610
897.224	21450
897.345	21447
897.466	21306
897.587	21416
897.708	21530
897.828	21443
897.949	21370
898.07	21165
898.19	21340
898.311	21408
898.431	21302
898.552	21317
898.672	21378
898.792	21542
898.913	21439
899.033	21268
899.153	21150
899.273	21070
899.393	21135
899.513	21100
899.633	21085
899.753	21119
899.873	21138
899.993	21116
900.113	20948
900.232	21108
900.352	20967
900.472	20929
900.591	20921
900.711	20963
900.83	20857
900.95	20895
901.069	20864
901.189	20777
901.308	20541
901.427	20507
901.546	20495
901.665	20454
901.784	20514
901.904	20305
902.023	20237
902.141	20115
902.26	20016
902.379	20016
902.498	20035
902.617	19875
902.735	20016
902.854	19917
902.973	19959
903.091	19704
903.21	19616
903.328	19624
903.446	19529
903.565	19464
903.683	19460
903.801	19419
903.919	19362
904.038	19297
904.156	19171
904.274	19259
904.392	19065
904.51	19145
904.627	19053
904.745	19346
904.863	19293
904.981	19023
905.098	18833
905.216	18859
905.334	18749
905.451	18798
905.569	18817
905.686	18825
905.803	18856
905.921	18585
906.038	18585
906.155	18601
906.272	18551
906.389	18532
906.506	18395
906.623	18372
906.74	18327
906.857	18232
906.974	18171
907.091	18403
907.208	18445
907.324	18403
907.441	18281
907.557	18190
907.674	18076
907.79	17992
907.907	17996
908.023	17954
908.139	18129
908.256	18053
908.372	17916
908.488	17859
908.604	17836
908.72	17756
908.836	17718
908.952	17794
909.068	17836
909.184	17920
909.3	17687
909.415	17794
909.531	17745
909.647	17493
909.762	17509
909.878	17463
909.993	17463
910.108	17452
910.224	17421
910.339	17463
910.454	17353
910.57	17288
910.685	17166
910.8	17463
910.915	17467
911.03	17200
911.145	17159
911.259	17090
911.374	17056
911.489	16889
911.604	16938
911.718	16759
911.833	16820
911.947	16710
912.062	16630
912.176	16862
912.291	16698
912.405	16889
912.519	16961
912.633	16957
912.748	16904
912.862	16786
912.976	16653
913.09	16428
913.204	16504
913.318	16653
913.431	16645
913.545	16733
913.659	16645
913.772	16538
913.886	16329
914	16386
914.113	16413
914.226	16455
914.34	16500
914.453	16287
914.566	16329
914.68	16348
914.793	16204
914.906	16006
915.019	15968
915.132	15876
915.245	15937
915.358	15930
915.47	15930
915.583	15926
915.696	16010
915.809	16139
915.921	16044
916.034	15842
916.146	15823
916.259	15819
916.371	15975
916.483	15895
916.595	15808
916.708	15728
916.82	15732
916.932	15675
917.044	15698
917.156	15698
917.268	15587
917.38	15682
917.491	15542
917.603	15530
917.715	15698
917.826	15701
917.938	15534
918.049	15496
918.161	15530
918.272	15736
918.384	15599
918.495	15488
918.606	15340
918.717	15272
918.828	15363
918.939	15363
919.05	15275
919.161	15207
919.272	15097
919.383	15066
919.494	15325
919.604	15572
919.715	15176
919.826	15173
919.936	15298
920.047	15325
920.157	15306
920.267	15389
920.378	15313
920.488	15256
920.598	15332
920.708	15466
920.818	15374
920.928	15458
921.038	15462
921.148	15496
921.258	15195
921.368	15085
921.477	15062
921.587	14982
921.697	14937
921.806	14994
921.916	14800
922.025	14705
922.134	14560
922.244	14640
922.353	14670
922.462	14552
922.571	14488
922.68	14324
922.789	14336
922.898	14218
923.007	14267
923.116	14332
923.224	14252
923.333	14267
923.442	14096
923.55	14107
923.659	14081
923.767	14123
923.876	14088
923.984	14039
924.092	13936
924.201	13928
924.309	14054
924.417	13955
924.525	13780
924.633	13860
924.741	14868
924.849	13700
924.956	13807
925.064	13719
925.172	13590
925.279	13582
925.387	13620
925.494	13639
925.602	13791
925.709	13616
925.816	13476
925.924	13636
926.031	13666
926.138	13567
926.245	13559
926.352	13468
926.459	13525
926.566	13601
926.673	13407
926.779	13426
926.886	13365
926.993	13247
927.099	13164
927.206	13141
927.312	13095
927.419	13213
927.525	13190
927.631	13168
927.737	13080
927.843	12989
927.95	12863
928.056	12924
928.162	13019
928.267	13114
928.373	13632
928.479	13031
928.585	12852
928.69	12958
928.796	12890
928.901	12817
929.007	12604
929.112	12821
929.218	12711
929.323	12642
929.428	12688
929.533	12760
929.638	12646
929.743	12601
929.848	12665
929.953	12658
930.058	12536
930.163	12334
930.267	12388
930.372	12517
930.477	12384
930.581	12612
930.685	12418
930.79	12095
930.894	12323
930.998	12216
931.103	12395
931.207	12072
931.311	11836
931.415	11874
931.519	11649
931.623	11604
