Data from test_V78500241_3408.txt Node
Date: Fri Mar 25 16:05:24 CST 2022
User: usil
Spectrometer: V785-0024
Trigger mode: 0
Integration Time (sec): 4.000000E-1
Scans to average: 1
Nonlinearity correction enabled: false
Boxcar width: 0
Storing dark spectrum: false
XAxis mode: Wavelengths
Number of Pixels in Spectrum: 1024
>>>>>Begin Spectral Data<<<<<
801.071	28634
801.214	28752
801.356	28432
801.499	28413
801.641	28394
801.783	28299
801.926	28375
802.068	28166
802.211	28249
802.353	28185
802.496	28025
802.638	28086
802.78	27956
802.923	27804
803.065	27842
803.208	27949
803.35	28029
803.492	28230
803.635	28230
803.777	28173
803.919	28112
804.061	28497
804.204	28249
804.346	28287
804.488	28097
804.63	28242
804.773	28257
804.915	28276
805.057	28462
805.199	28204
805.341	28421
805.483	28352
805.626	28356
805.768	28257
805.91	28375
806.052	28451
806.194	28215
806.336	28580
806.478	28295
806.62	28462
806.762	28489
806.904	28641
807.046	28900
807.188	28869
807.33	28896
807.472	28850
807.614	28767
807.756	28915
807.898	28615
808.04	28675
808.182	28748
808.324	28759
808.465	28812
808.607	29014
808.749	29079
808.891	29155
809.033	29296
809.174	29197
809.316	28968
809.458	29284
809.6	29018
809.741	29246
809.883	29284
810.025	29402
810.166	29299
810.308	29326
810.45	29360
810.591	29341
810.733	29204
810.875	29018
811.016	29022
811.158	28927
811.299	29227
811.441	29307
811.582	29204
811.724	29067
811.865	28934
812.007	29052
812.148	29166
812.29	29117
812.431	29246
812.573	29531
812.714	29471
812.855	29687
812.997	29672
813.138	29771
813.279	29676
813.421	29741
813.562	29623
813.703	29387
813.845	29345
813.986	29083
814.127	28801
814.268	28980
814.41	28835
814.551	28805
814.692	28957
814.833	28733
814.974	28888
815.115	28748
815.256	28793
815.397	28717
815.539	28729
815.68	28390
815.821	28557
815.962	28626
816.103	28611
816.244	28405
816.385	28337
816.526	28436
816.666	28322
816.807	28093
816.948	28329
817.089	28234
817.23	28147
817.371	28074
817.512	28036
817.653	28204
817.793	28101
817.934	28116
818.075	28082
818.216	28196
818.356	28268
818.497	28090
818.638	27869
818.778	27789
818.919	27964
819.06	27968
819.2	28097
819.341	28181
819.481	28147
819.622	28360
819.762	28500
819.903	28451
820.043	28276
820.184	28272
820.324	28185
820.465	28375
820.605	28242
820.746	28181
820.886	28074
821.026	28200
821.167	28242
821.307	28185
821.447	28261
821.588	28002
821.728	28063
821.868	27831
822.008	27587
822.149	27686
822.289	27606
822.429	27515
822.569	27336
822.709	27275
822.849	27249
822.99	27176
823.13	27161
823.27	27112
823.41	27055
823.55	26834
823.69	27009
823.83	27001
823.97	26914
824.11	26838
824.25	26754
824.389	26895
824.529	26724
824.669	26762
824.809	26819
824.949	26823
825.089	26887
825.228	26811
825.368	26693
825.508	26621
825.648	26693
825.787	26804
825.927	26739
826.067	26545
826.206	26644
826.346	26655
826.485	26823
826.625	26762
826.765	26788
826.904	26701
827.044	26370
827.183	26617
827.323	26339
827.462	26507
827.601	26332
827.741	26351
827.88	26374
828.02	26248
828.159	26366
828.298	26488
828.437	26389
828.577	26431
828.716	26473
828.855	26233
828.994	26161
829.134	26100
829.273	26027
829.412	26077
829.551	26035
829.69	26130
829.829	26062
829.968	26183
830.107	26100
830.246	26054
830.385	25951
830.524	26031
830.663	25883
830.802	25841
830.941	25826
831.08	25552
831.219	25799
831.357	25849
831.496	25887
831.635	25753
831.774	25525
831.913	25586
832.051	25479
832.19	25445
832.329	25567
832.467	25400
832.606	25320
832.744	25202
832.883	25289
833.022	25362
833.16	25358
833.299	25320
833.437	25335
833.576	25438
833.714	25434
833.852	25449
833.991	25396
834.129	25506
834.267	25415
834.406	25464
834.544	25445
834.682	25495
834.821	25327
834.959	25616
835.097	25400
835.235	25438
835.373	25445
835.511	25392
835.65	25152
835.788	25304
835.926	25187
836.064	25137
836.202	25141
836.34	25236
836.478	25346
836.615	25228
836.753	25217
836.891	25244
837.029	25194
837.167	25129
837.305	25194
837.443	25107
837.58	25171
837.718	25221
837.856	25061
837.993	25099
838.131	25206
838.269	24939
838.406	24962
838.544	24871
838.681	24681
838.819	24829
838.956	24426
839.094	24547
839.231	24483
839.369	24631
839.506	25019
839.643	24837
839.781	24544
839.918	24570
840.055	24536
840.193	24403
840.33	24334
840.467	24498
840.604	24357
840.742	24776
840.879	24186
841.016	24220
841.153	24330
841.29	24597
841.427	24391
841.564	24544
841.701	24414
841.838	24330
841.975	24365
842.112	24483
842.249	24266
842.385	24064
842.522	24486
842.659	24243
842.796	24289
842.933	24136
843.069	24121
843.206	24068
843.343	24209
843.479	24350
843.616	24129
843.752	24034
843.889	24041
844.025	24079
844.162	23832
844.298	23996
844.435	24049
844.571	23920
844.708	24018
844.844	24114
844.98	24060
845.117	24049
845.253	23897
845.389	23942
845.525	23973
845.661	23783
845.798	23638
845.934	23691
846.07	23638
846.206	23756
846.342	23901
846.478	23589
846.614	23539
846.75	23349
846.886	23417
847.022	23524
847.158	23509
847.294	23429
847.429	23376
847.565	23353
847.701	23608
847.837	23178
847.972	23071
848.108	23208
848.244	23315
848.379	23018
848.515	22999
848.65	23052
848.786	22968
848.921	23041
849.057	23090
849.192	23090
849.328	23060
849.463	22995
849.598	22908
849.734	22957
849.869	22835
850.004	22752
850.14	22824
850.275	22725
850.41	22493
850.545	22637
850.68	22717
850.815	22752
850.95	22869
851.085	22942
851.22	22927
851.355	22927
851.49	22801
851.625	22717
851.76	22771
851.895	22797
852.03	22656
852.165	22805
852.299	22778
852.434	22755
852.569	22744
852.703	22774
852.838	22812
852.973	22881
853.107	22919
853.242	22637
853.376	22611
853.511	22493
853.645	22557
853.78	22759
853.914	22573
854.048	22516
854.183	22500
854.317	22660
854.451	22672
854.585	22527
854.72	22626
854.854	22767
854.988	22470
855.122	22675
855.256	22424
855.39	22546
855.524	22740
855.658	22622
855.792	22535
855.926	22615
856.06	22653
856.194	22634
856.327	22538
856.461	22508
856.595	22516
856.729	22626
856.862	22763
856.996	22592
857.13	22771
857.263	22729
857.397	22664
857.53	22641
857.664	22603
857.797	22580
857.931	22660
858.064	22535
858.197	22584
858.331	22588
858.464	22516
858.597	22462
858.731	22725
858.864	22554
858.997	22519
859.13	22656
859.263	22592
859.396	22653
859.529	22611
859.662	22546
859.795	22584
859.928	22596
860.061	22759
860.194	22748
860.327	22618
860.46	22497
860.592	22733
860.725	22778
860.858	22744
860.99	22588
861.123	22508
861.256	22573
861.388	22516
861.521	23581
861.653	22474
861.786	22352
861.918	22466
862.05	22508
862.183	22573
862.315	22466
862.447	22561
862.58	22527
862.712	22310
862.844	22325
862.976	22371
863.108	22325
863.24	22748
863.372	22219
863.504	22272
863.636	22211
863.768	22344
863.9	22265
864.032	22177
864.164	22173
864.296	22291
864.428	22436
864.559	22295
864.691	22421
864.823	22253
864.954	22299
865.086	22211
865.217	22276
865.349	22131
865.48	22249
865.612	22310
865.743	22341
865.875	22268
866.006	22055
866.137	22268
866.269	22219
866.4	22280
866.531	22086
866.662	22017
866.793	22215
866.924	22143
867.055	22147
867.186	22223
867.317	22059
867.448	22090
867.579	22242
867.71	21930
867.841	22078
867.972	22093
868.103	22169
868.233	22219
868.364	22082
868.495	22272
868.625	22333
868.756	22417
868.886	22299
869.017	22261
869.147	22436
869.278	22310
869.408	22367
869.539	22470
869.669	22489
869.799	22382
869.929	22428
870.06	22500
870.19	22649
870.32	22519
870.45	22744
870.58	22790
870.71	22961
870.84	22763
870.97	22820
871.1	22713
871.23	22949
871.36	22908
871.489	22881
871.619	23014
871.749	22889
871.879	22930
872.008	23033
872.138	22965
872.267	22938
872.397	22885
872.526	22771
872.656	22816
872.785	22748
872.915	23037
873.044	23033
873.173	22984
873.303	23083
873.432	23044
873.561	23090
873.69	23041
873.819	22900
873.948	23044
874.077	23098
874.206	22908
874.335	22961
874.464	23136
874.593	23212
874.722	23136
874.851	23132
874.979	23208
875.108	23334
875.237	23094
875.365	23159
875.494	23197
875.623	23265
875.751	23143
875.88	23109
876.008	23280
876.136	23353
876.265	23623
876.393	23611
876.521	23703
876.65	23684
876.778	23638
876.906	23585
877.034	23554
877.162	23608
877.29	23387
877.418	23585
877.546	23501
877.674	23585
877.802	23596
877.93	23512
878.058	23505
878.185	23391
878.313	23395
878.441	23497
878.568	23307
878.696	23528
878.824	23482
878.951	23558
879.079	23710
879.206	23836
879.333	23684
879.461	23596
879.588	23646
879.715	23528
879.842	23859
879.97	23710
880.097	23284
880.224	23284
880.351	23402
880.478	23334
880.605	23254
880.732	23204
880.859	23619
880.986	23391
881.112	23326
881.239	23311
881.366	23147
881.493	22995
881.619	22923
881.746	22987
881.872	22866
881.999	22809
882.125	22946
882.252	22968
882.378	22824
882.505	22991
882.631	22736
882.757	22550
882.883	22721
883.01	22565
883.136	22588
883.262	22497
883.388	22421
883.514	22649
883.64	22538
883.766	22523
883.892	22341
884.018	22382
884.143	22470
884.269	22584
884.395	22291
884.52	22352
884.646	22246
884.772	22181
884.897	22093
885.023	22299
885.148	22257
885.274	22375
885.399	22348
885.524	22291
885.65	22128
885.775	22139
885.9	22044
886.025	22272
886.15	22276
886.275	22139
886.4	22032
886.525	22173
886.65	22207
886.775	22036
886.9	22371
887.025	22394
887.149	22128
887.274	22181
887.399	21941
887.523	21800
887.648	21876
887.773	21865
887.897	21941
888.021	22021
888.146	21953
888.27	22166
888.395	21983
888.519	22040
888.643	21987
888.767	21987
888.891	21861
889.015	21739
889.139	21903
889.263	21690
889.387	21819
889.511	21956
889.635	21956
889.759	21686
889.883	21755
890.006	21762
890.13	21873
890.254	21572
890.377	21667
890.501	21587
890.624	21614
890.748	21412
890.871	21416
890.995	21412
891.118	21188
891.241	21332
891.364	21389
891.488	21420
891.611	21279
891.734	21420
891.857	21523
891.98	21344
892.103	21218
892.226	21321
892.349	21340
892.471	21203
892.594	21188
892.717	21302
892.839	21294
892.962	21374
893.085	21367
893.207	21237
893.33	21203
893.452	21058
893.575	21313
893.697	21321
893.819	21378
893.941	21370
894.064	21359
894.186	21127
894.308	21116
894.43	21268
894.552	21439
894.674	21317
894.796	21032
894.918	21119
895.04	21275
895.161	21389
895.283	21351
895.405	21116
895.526	21104
895.648	21123
895.769	21127
895.891	21325
896.012	21241
896.134	21317
896.255	21233
896.376	21138
896.498	21192
896.619	21226
896.74	21211
896.861	21108
896.982	21507
897.103	21553
897.224	21420
897.345	21408
897.466	21310
897.587	21340
897.708	21523
897.828	21523
897.949	21420
898.07	21157
898.19	21275
898.311	21416
898.431	21279
898.552	21439
898.672	21382
898.792	21466
898.913	21504
899.033	21378
899.153	21226
899.273	21116
899.393	21211
899.513	21138
899.633	21032
899.753	21123
899.873	21089
899.993	21093
900.113	20975
900.232	21009
900.352	21074
900.472	20986
900.591	20845
900.711	20906
900.83	20880
900.95	20921
901.069	20861
901.189	20739
901.308	20537
901.427	20484
901.546	20526
901.665	20454
901.784	20393
901.904	20358
902.023	20244
902.141	20043
902.26	20012
902.379	20024
902.498	19944
902.617	19925
902.735	20008
902.854	19989
902.973	19864
903.091	19643
903.21	19643
903.328	19571
903.446	19491
903.565	19415
903.683	19415
903.801	19274
903.919	19453
904.038	19316
904.156	19308
904.274	19266
904.392	19263
904.51	19129
904.627	19118
904.745	19232
904.863	19278
904.981	19034
905.098	18802
905.216	18814
905.334	18787
905.451	18875
905.569	18848
905.686	18802
905.803	18840
905.921	18555
906.038	18711
906.155	18696
906.272	18475
906.389	18467
906.506	18319
906.623	18376
906.74	18205
906.857	18266
906.974	18296
907.091	18342
907.208	18483
907.324	18437
907.441	18136
907.557	18155
907.674	18022
907.79	18041
907.907	18045
908.023	18083
908.139	17950
908.256	18034
908.372	17996
908.488	17859
908.604	17950
908.72	17745
908.836	17703
908.952	17813
909.068	17889
909.184	17885
909.3	17802
909.415	17790
909.531	17748
909.647	17543
909.762	17455
909.878	17341
909.993	17611
910.108	17429
910.224	17455
910.339	17337
910.454	17341
910.57	17311
910.685	17143
910.8	17421
910.915	17497
911.03	17296
911.145	17037
911.259	17045
911.374	17045
911.489	16999
911.604	16835
911.718	16645
911.833	16850
911.947	16740
912.062	16641
912.176	16862
912.291	16835
912.405	16706
912.519	16930
912.633	16965
912.748	16858
912.862	16847
912.976	16634
913.09	16516
913.204	16577
913.318	16660
913.431	16668
913.545	16645
913.659	16630
913.772	16516
913.886	16470
914	16466
914.113	16516
914.226	16455
914.34	16421
914.453	16303
914.566	16531
914.68	16268
914.793	16261
914.906	16169
915.019	16067
915.132	15960
915.245	15945
915.358	16051
915.47	16032
915.583	15956
915.696	15880
915.809	16169
915.921	16086
916.034	15899
916.146	15770
916.259	15918
916.371	15941
916.483	15907
916.595	15781
916.708	15819
916.82	15789
916.932	15751
917.044	15785
917.156	15728
917.268	15603
917.38	15648
917.491	15629
917.603	15534
917.715	15755
917.826	15572
917.938	15496
918.049	15431
918.161	15534
918.272	15759
918.384	15701
918.495	15458
918.606	15454
918.717	15310
918.828	15336
918.939	15397
919.05	15291
919.161	15348
919.272	15131
919.383	15085
919.494	15420
919.604	15443
919.715	15344
919.826	15199
919.936	15154
920.047	15336
920.157	15401
920.267	15450
920.378	15359
920.488	15245
920.598	15370
920.708	15500
920.818	15477
920.928	15408
921.038	15629
921.148	15549
921.258	15154
921.368	15100
921.477	15036
921.587	15017
921.697	14921
921.806	14967
921.916	14906
922.025	14716
922.134	14693
922.244	14473
922.353	14670
922.462	14507
922.571	14423
922.68	14320
922.789	14366
922.898	14298
923.007	14183
923.116	14305
923.224	14267
923.333	14180
923.442	14073
923.55	14020
923.659	14065
923.767	14229
923.876	14012
923.984	14157
924.092	13951
924.201	13936
924.309	13974
924.417	13940
924.525	13883
924.633	13932
924.741	14739
924.849	13674
924.956	13852
925.064	13685
925.172	13578
925.279	13537
925.387	13700
925.494	13708
925.602	13757
925.709	13658
925.816	13487
925.924	13605
926.031	13636
926.138	13624
926.245	13708
926.352	13563
926.459	13693
926.566	13571
926.673	13476
926.779	13343
926.886	13362
926.993	13236
927.099	13198
927.206	13072
927.312	13099
927.419	13221
927.525	13228
927.631	13274
927.737	13080
927.843	13156
927.95	12894
928.056	12966
928.162	13031
928.267	13042
928.373	13460
928.479	13084
928.585	12772
928.69	12897
928.796	12943
928.901	12798
929.007	12753
929.112	12909
929.218	12821
929.323	12654
929.428	12757
929.533	12821
929.638	12608
929.743	12726
929.848	12688
929.953	12623
930.058	12540
930.163	12369
930.267	12429
930.372	12555
930.477	12330
930.581	12566
930.685	12441
930.79	12262
930.894	12266
930.998	12247
931.103	12323
931.207	11954
931.311	11901
931.415	11882
931.519	11570
931.623	11528
