Data from test_V78500241_3007.txt Node
Date: Fri Mar 25 16:02:37 CST 2022
User: usil
Spectrometer: V785-0024
Trigger mode: 0
Integration Time (sec): 4.000000E-1
Scans to average: 1
Nonlinearity correction enabled: false
Boxcar width: 0
Storing dark spectrum: false
XAxis mode: Wavelengths
Number of Pixels in Spectrum: 1024
>>>>>Begin Spectral Data<<<<<
801.071	28618
801.214	28748
801.356	28500
801.499	28341
801.641	28192
801.783	28371
801.926	28185
802.068	28291
802.211	28154
802.353	28219
802.496	28070
802.638	28044
802.78	27991
802.923	27785
803.065	27857
803.208	27975
803.35	27949
803.492	28074
803.635	28249
803.777	28120
803.919	28272
804.061	28569
804.204	28276
804.346	28181
804.488	28059
804.63	28253
804.773	28196
804.915	28356
805.057	28382
805.199	28253
805.341	28424
805.483	28234
805.626	28303
805.768	28200
805.91	28405
806.052	28390
806.194	28432
806.336	28538
806.478	28382
806.62	28291
806.762	28443
806.904	28660
807.046	28965
807.188	28942
807.33	28927
807.472	28843
807.614	28797
807.756	28748
807.898	28721
808.04	28691
808.182	28592
808.324	28717
808.465	28698
808.607	29010
808.749	28968
808.891	29170
809.033	29208
809.174	29170
809.316	29079
809.458	29128
809.6	29113
809.741	29246
809.883	29242
810.025	29296
810.166	29395
810.308	29425
810.45	29277
810.591	29254
810.733	29189
810.875	29102
811.016	28923
811.158	29006
811.299	29181
811.441	29197
811.582	29223
811.724	28919
811.865	29033
812.007	29041
812.148	28999
812.29	29246
812.431	29406
812.573	29398
812.714	29524
812.855	29733
812.997	29714
813.138	29771
813.279	29813
813.421	29638
813.562	29509
813.703	29528
813.845	29258
813.986	29147
814.127	28942
814.268	28740
814.41	28782
814.551	28793
814.692	28923
814.833	28767
814.974	28778
815.115	28858
815.256	28675
815.397	28615
815.539	28603
815.68	28615
815.821	28603
815.962	28603
816.103	28725
816.244	28451
816.385	28413
816.526	28360
816.666	28219
816.807	28154
816.948	28166
817.089	28386
817.23	28070
817.371	28116
817.512	28166
817.653	28021
817.793	28082
817.934	28063
818.075	28021
818.216	28044
818.356	27972
818.497	27975
818.638	27914
818.778	27804
818.919	27781
819.06	27960
819.2	28105
819.341	28112
819.481	28120
819.622	28401
819.762	28424
819.903	28337
820.043	28432
820.184	28306
820.324	28166
820.465	28314
820.605	28230
820.746	28276
820.886	28219
821.026	28185
821.167	28147
821.307	28303
821.447	28124
821.588	28048
821.728	27854
821.868	27816
822.008	27660
822.149	27656
822.289	27523
822.429	27348
822.569	27306
822.709	27260
822.849	27104
822.99	27230
823.13	27055
823.27	27039
823.41	26994
823.55	26716
823.69	26956
823.83	27020
823.97	26925
824.11	26583
824.25	26785
824.389	26686
824.529	26998
824.669	26701
824.809	26956
824.949	26891
825.089	26861
825.228	26880
825.368	26689
825.508	26644
825.648	26701
825.787	26758
825.927	26686
826.067	26575
826.206	26613
826.346	26651
826.485	26750
826.625	26590
826.765	26644
826.904	26674
827.044	26465
827.183	26587
827.323	26278
827.462	26457
827.601	26423
827.741	26309
827.88	26400
828.02	26240
828.159	26343
828.298	26377
828.437	26358
828.577	26278
828.716	26377
828.855	26180
828.994	26096
829.134	25989
829.273	26062
829.412	26020
829.551	26005
829.69	25966
829.829	26050
829.968	26005
830.107	26157
830.246	26172
830.385	26084
830.524	26008
830.663	25765
830.802	25738
830.941	25655
831.08	25533
831.219	25826
831.357	25742
831.496	25830
831.635	25750
831.774	25674
831.913	25575
832.051	25499
832.19	25396
832.329	25415
832.467	25190
832.606	25343
832.744	25194
832.883	25316
833.022	25278
833.16	25301
833.299	25362
833.437	25247
833.576	25343
833.714	25308
833.852	25426
833.991	25476
834.129	25407
834.267	25533
834.406	25518
834.544	25327
834.682	25392
834.821	25426
834.959	25499
835.097	25312
835.235	25403
835.373	25426
835.511	25301
835.65	25190
835.788	25388
835.926	25183
836.064	24973
836.202	25099
836.34	25236
836.478	25297
836.615	25133
836.753	25202
836.891	25206
837.029	25137
837.167	25209
837.305	25160
837.443	25027
837.58	24920
837.718	25133
837.856	24966
837.993	25008
838.131	25000
838.269	24856
838.406	25031
838.544	24779
838.681	24604
838.819	24620
838.956	24403
839.094	24490
839.231	24441
839.369	24612
839.506	25038
839.643	24753
839.781	24502
839.918	24403
840.055	24490
840.193	24509
840.33	24422
840.467	24445
840.604	24559
840.742	24608
840.879	24323
841.016	24391
841.153	24213
841.29	24513
841.427	24365
841.564	24479
841.701	24536
841.838	24262
841.975	24216
842.112	24220
842.249	24323
842.385	24060
842.522	24414
842.659	24163
842.796	24136
842.933	24239
843.069	23984
843.206	24125
843.343	24110
843.479	24148
843.616	24114
843.752	23977
843.889	23748
844.025	24117
844.162	23893
844.298	24022
844.435	23847
844.571	23901
844.708	23996
844.844	24049
844.98	24114
845.117	24079
845.253	23817
845.389	23680
845.525	23904
845.661	23722
845.798	23589
845.934	23627
846.07	23726
846.206	23729
846.342	23794
846.478	23638
846.614	23395
846.75	23254
846.886	23349
847.022	23455
847.158	23448
847.294	23433
847.429	23554
847.565	23410
847.701	23649
847.837	23204
847.972	23075
848.108	23220
848.244	23136
848.379	23071
848.515	22957
848.65	22980
848.786	22923
848.921	22961
849.057	23098
849.192	23037
849.328	23060
849.463	22942
849.598	22885
849.734	22904
849.869	22953
850.004	22649
850.14	22675
850.275	22664
850.41	22557
850.545	22607
850.68	22778
850.815	22744
850.95	22828
851.085	22801
851.22	22873
851.355	22774
851.49	22694
851.625	22725
851.76	22744
851.895	22725
852.03	22672
852.165	22763
852.299	22698
852.434	22858
852.569	22778
852.703	22664
852.838	22805
852.973	22862
853.107	22915
853.242	22710
853.376	22599
853.511	22402
853.645	22500
853.78	22626
853.914	22679
854.048	22535
854.183	22584
854.317	22733
854.451	22740
854.585	22577
854.72	22607
854.854	22653
854.988	22459
855.122	22557
855.256	22447
855.39	22512
855.524	22755
855.658	22698
855.792	22561
855.926	22565
856.06	22778
856.194	22656
856.327	22607
856.461	22618
856.595	22519
856.729	22443
856.862	22736
856.996	22615
857.13	22721
857.263	22668
857.397	22615
857.53	22466
857.664	22615
857.797	22717
857.931	22729
858.064	22592
858.197	22717
858.331	22656
858.464	22462
858.597	22489
858.731	22596
858.864	22569
858.997	22588
859.13	22577
859.263	22531
859.396	22588
859.529	22527
859.662	22440
859.795	22497
859.928	22615
860.061	22866
860.194	22797
860.327	22580
860.46	22603
860.592	22683
860.725	22809
860.858	22740
860.99	22653
861.123	22523
861.256	22622
861.388	22535
861.521	23455
861.653	22390
861.786	22527
861.918	22352
862.05	22497
862.183	22398
862.315	22466
862.447	22611
862.58	22611
862.712	22386
862.844	22219
862.976	22455
863.108	22375
863.24	22656
863.372	22310
863.504	22215
863.636	22329
863.768	22405
863.9	22204
864.032	22306
864.164	22325
864.296	22318
864.428	22394
864.559	22474
864.691	22409
864.823	22284
864.954	22128
865.086	22284
865.217	22139
865.349	22173
865.48	22143
865.612	22139
865.743	22287
865.875	22181
866.006	22204
866.137	22196
866.269	22265
866.4	22070
866.531	22002
866.662	22070
866.793	22002
866.924	22017
867.055	22150
867.186	22173
867.317	22036
867.448	22109
867.579	22131
867.71	22017
867.841	22040
867.972	22086
868.103	22067
868.233	22188
868.364	21994
868.495	22238
868.625	22207
868.756	22322
868.886	22280
869.017	22466
869.147	22398
869.278	22440
869.408	22253
869.539	22303
869.669	22337
869.799	22421
869.929	22382
870.06	22405
870.19	22759
870.32	22588
870.45	22691
870.58	22603
870.71	22892
870.84	22820
870.97	22752
871.1	22759
871.23	22824
871.36	22862
871.489	22771
871.619	22790
871.749	22953
871.879	22900
872.008	22984
872.138	22915
872.267	22999
872.397	22797
872.526	22668
872.656	22786
872.785	22873
872.915	22919
873.044	22923
873.173	22923
873.303	22946
873.432	23075
873.561	23044
873.69	22892
873.819	23003
873.948	23022
874.077	23006
874.206	22900
874.335	22946
874.464	23060
874.593	23159
874.722	23105
874.851	23231
874.979	23155
875.108	23113
875.237	23109
875.365	23010
875.494	23086
875.623	23178
875.751	23136
875.88	23284
876.008	23303
876.136	23258
876.265	23566
876.393	23661
876.521	23657
876.65	23566
876.778	23467
876.906	23543
877.034	23531
877.162	23372
877.29	23376
877.418	23566
877.546	23543
877.674	23558
877.802	23429
877.93	23512
878.058	23516
878.185	23307
878.313	23493
878.441	23398
878.568	23292
878.696	23410
878.824	23440
878.951	23501
879.079	23604
879.206	23707
879.333	23592
879.461	23573
879.588	23600
879.715	23642
879.842	23729
879.97	23497
880.097	23425
880.224	23414
880.351	23402
880.478	23254
880.605	23170
880.732	23337
880.859	23554
880.986	23379
881.112	23322
881.239	23185
881.366	23014
881.493	22927
881.619	22972
881.746	22934
881.872	22923
881.999	22805
882.125	22782
882.252	22869
882.378	22854
882.505	23044
882.631	22702
882.757	22531
882.883	22584
883.01	22531
883.136	22485
883.262	22382
883.388	22424
883.514	22569
883.64	22523
883.766	22375
883.892	22322
884.018	22390
884.143	22500
884.269	22451
884.395	22306
884.52	22131
884.646	22329
884.772	22074
884.897	21960
885.023	22280
885.148	22120
885.274	22382
885.399	22169
885.524	22051
885.65	22105
885.775	22257
885.9	22070
886.025	22238
886.15	22158
886.275	22086
886.4	22109
886.525	22131
886.65	22074
886.775	22105
886.9	22295
887.025	22375
887.149	22143
887.274	21983
887.399	21895
887.523	21945
887.648	21804
887.773	21876
887.897	22097
888.021	21983
888.146	21907
888.27	22116
888.395	22017
888.519	22048
888.643	21903
888.767	21991
888.891	21842
889.015	21884
889.139	21755
889.263	21739
889.387	21732
889.511	21873
889.635	21949
889.759	21641
889.883	21667
890.006	21694
890.13	21831
890.254	21705
890.377	21679
890.501	21443
890.624	21336
890.748	21568
890.871	21344
890.995	21279
891.118	21241
891.241	21310
891.364	21355
891.488	21378
891.611	21325
891.734	21306
891.857	21317
891.98	21310
892.103	21249
892.226	21233
892.349	21131
892.471	21009
892.594	21127
892.717	21058
892.839	21233
892.962	21199
893.085	21233
893.207	21180
893.33	21070
893.452	21135
893.575	21355
893.697	21195
893.819	21359
893.941	21287
894.064	21306
894.186	21077
894.308	21024
894.43	21291
894.552	21374
894.674	21135
894.796	21001
894.918	21089
895.04	21028
895.161	21138
895.283	21165
895.405	21211
895.526	21154
895.648	21165
895.769	21161
895.891	21294
896.012	21291
896.134	21237
896.255	21085
896.376	21070
896.498	21169
896.619	21218
896.74	21146
896.861	21146
896.982	21428
897.103	21526
897.224	21321
897.345	21325
897.466	21279
897.587	21245
897.708	21439
897.828	21454
897.949	21348
898.07	21188
898.19	21249
898.311	21374
898.431	21302
898.552	21127
898.672	21386
898.792	21367
898.913	21344
899.033	21154
899.153	21077
899.273	20990
899.393	21005
899.513	21074
899.633	21001
899.753	21066
899.873	21039
899.993	21013
900.113	21070
900.232	21024
900.352	20876
900.472	20891
900.591	20918
900.711	20777
900.83	20674
900.95	20963
901.069	21005
901.189	20663
901.308	20537
901.427	20336
901.546	20488
901.665	20408
901.784	20446
901.904	20358
902.023	20202
902.141	20046
902.26	19887
902.379	20024
902.498	19898
902.617	19788
902.735	20039
902.854	19837
902.973	19776
903.091	19552
903.21	19533
903.328	19521
903.446	19563
903.565	19438
903.683	19407
903.801	19160
903.919	19365
904.038	19304
904.156	19171
904.274	19183
904.392	19122
904.51	19110
904.627	19008
904.745	19274
904.863	19228
904.981	19000
905.098	18821
905.216	18734
905.334	18810
905.451	18741
905.569	18787
905.686	18703
905.803	18810
905.921	18597
906.038	18525
906.155	18627
906.272	18528
906.389	18502
906.506	18426
906.623	18323
906.74	18216
906.857	18235
906.974	18194
907.091	18342
907.208	18372
907.324	18224
907.441	18197
907.557	18026
907.674	17988
907.79	17961
907.907	18068
908.023	17977
908.139	18117
908.256	17942
908.372	17790
908.488	17927
908.604	17752
908.72	17722
908.836	17737
908.952	17714
909.068	17748
909.184	17775
909.3	17836
909.415	17767
909.531	17699
909.647	17452
909.762	17467
909.878	17231
909.993	17429
910.108	17345
910.224	17474
910.339	17330
910.454	17212
910.57	17235
910.685	17231
910.8	17372
910.915	17356
911.03	17322
911.145	17048
911.259	17018
911.374	16946
911.489	16930
911.604	16946
911.718	16847
911.833	16778
911.947	16622
912.062	16618
912.176	16778
912.291	16858
912.405	16687
912.519	16946
912.633	16968
912.748	16717
912.862	16645
912.976	16580
913.09	16462
913.204	16565
913.318	16538
913.431	16599
913.545	16618
913.659	16649
913.772	16470
913.886	16344
914	16310
914.113	16337
914.226	16489
914.34	16322
914.453	16246
914.566	16402
914.68	16299
914.793	16150
914.906	15964
915.019	16006
915.132	15831
915.245	15934
915.358	15907
915.47	15998
915.583	15937
915.696	15937
915.809	15983
915.921	15998
916.034	15873
916.146	15793
916.259	15762
916.371	15945
916.483	15888
916.595	15739
916.708	15732
916.82	15724
916.932	15743
917.044	15827
917.156	15641
917.268	15648
917.38	15553
917.491	15515
917.603	15530
917.715	15576
917.826	15686
917.938	15378
918.049	15420
918.161	15580
918.272	15526
918.384	15591
918.495	15435
918.606	15348
918.717	15184
918.828	15397
918.939	15298
919.05	15275
919.161	15317
919.272	15108
919.383	15230
919.494	15283
919.604	15397
919.715	15329
919.826	15104
919.936	15249
920.047	15165
920.157	15207
920.267	15447
920.378	15408
920.488	15268
920.598	15412
920.708	15584
920.818	15378
920.928	15306
921.038	15523
921.148	15355
921.258	15176
921.368	15024
921.477	14948
921.587	14921
921.697	14788
921.806	14910
921.916	14883
922.025	14644
922.134	14571
922.244	14602
922.353	14621
922.462	14434
922.571	14381
922.68	14362
922.789	14259
922.898	14385
923.007	14294
923.116	14294
923.224	14111
923.333	14161
923.442	14008
923.55	14050
923.659	14016
923.767	14130
923.876	14024
923.984	14020
924.092	13955
924.201	13894
924.309	13959
924.417	13917
924.525	13845
924.633	13837
924.741	14689
924.849	13693
924.956	13849
925.064	13693
925.172	13590
925.279	13632
925.387	13666
925.494	13578
925.602	13677
925.709	13575
925.816	13548
925.924	13529
926.031	13620
926.138	13548
926.245	13552
926.352	13400
926.459	13518
926.566	13616
926.673	13369
926.779	13362
926.886	13392
926.993	13168
927.099	13255
927.206	13061
927.312	13065
927.419	13137
927.525	13137
927.631	13129
927.737	13088
927.843	13038
927.95	12875
928.056	12989
928.162	12878
928.267	13053
928.373	13567
928.479	12996
928.585	12760
928.69	12886
928.796	12909
928.901	12848
929.007	12688
929.112	12783
929.218	12722
929.323	12741
929.428	12722
929.533	12681
929.638	12642
929.743	12627
929.848	12616
929.953	12627
930.058	12528
930.163	12346
930.267	12296
930.372	12407
930.477	12235
930.581	12544
930.685	12296
930.79	12266
930.894	12178
930.998	12178
931.103	12342
931.207	11961
931.311	11893
931.415	11786
931.519	11657
931.623	11501
