Data from test_V78500241_2699.txt Node
Date: Fri Mar 25 16:00:29 CST 2022
User: usil
Spectrometer: V785-0024
Trigger mode: 0
Integration Time (sec): 4.000000E-1
Scans to average: 1
Nonlinearity correction enabled: false
Boxcar width: 0
Storing dark spectrum: false
XAxis mode: Wavelengths
Number of Pixels in Spectrum: 1024
>>>>>Begin Spectral Data<<<<<
801.071	28527
801.214	28672
801.356	28405
801.499	28363
801.641	28185
801.783	28287
801.926	28310
802.068	28363
802.211	28063
802.353	28082
802.496	27884
802.638	27949
802.78	27991
802.923	27975
803.065	27755
803.208	27838
803.35	27964
803.492	28021
803.635	28048
803.777	28082
803.919	28093
804.061	28440
804.204	28287
804.346	28036
804.488	28131
804.63	28166
804.773	28223
804.915	28211
805.057	28207
805.199	28249
805.341	28284
805.483	28242
805.626	28341
805.768	28246
805.91	28363
806.052	28382
806.194	28238
806.336	28615
806.478	28386
806.62	28261
806.762	28401
806.904	28592
807.046	28839
807.188	28656
807.33	28820
807.472	28877
807.614	28687
807.756	28991
807.898	28660
808.04	28622
808.182	28554
808.324	28729
808.465	28687
808.607	28946
808.749	29044
808.891	29083
809.033	29189
809.174	29128
809.316	29067
809.458	29181
809.6	28892
809.741	29178
809.883	29197
810.025	29299
810.166	29334
810.308	29322
810.45	29273
810.591	29231
810.733	28965
810.875	29151
811.016	28957
811.158	28862
811.299	29136
811.441	29212
811.582	29121
811.724	28965
811.865	29006
812.007	29071
812.148	29189
812.29	28949
812.431	29170
812.573	29311
812.714	29387
812.855	29577
812.997	29570
813.138	29668
813.279	29653
813.421	29551
813.562	29573
813.703	29200
813.845	29250
813.986	28961
814.127	28812
814.268	28900
814.41	28858
814.551	28752
814.692	28885
814.833	28672
814.974	28653
815.115	28713
815.256	28626
815.397	28466
815.539	28557
815.68	28459
815.821	28557
815.962	28535
816.103	28531
816.244	28535
816.385	28147
816.526	28200
816.666	28135
816.807	28135
816.948	28249
817.089	28097
817.23	28147
817.371	28112
817.512	28036
817.653	28070
817.793	27983
817.934	28032
818.075	27918
818.216	27979
818.356	28177
818.497	27968
818.638	27823
818.778	27774
818.919	27831
819.06	27888
819.2	27892
819.341	28101
819.481	28055
819.622	28128
819.762	28398
819.903	28455
820.043	28333
820.184	28200
820.324	28177
820.465	28322
820.605	28173
820.746	28219
820.886	28059
821.026	28139
821.167	28101
821.307	28211
821.447	28147
821.588	27968
821.728	27804
821.868	27622
822.008	27485
822.149	27603
822.289	27492
822.429	27214
822.569	27222
822.709	27214
822.849	27157
822.99	27096
823.13	26971
823.27	26929
823.41	26796
823.55	26906
823.69	27039
823.83	26826
823.97	26758
824.11	26590
824.25	26530
824.389	26758
824.529	26830
824.669	26716
824.809	26826
824.949	26762
825.089	26910
825.228	26613
825.368	26613
825.508	26541
825.648	26594
825.787	26678
825.927	26636
826.067	26590
826.206	26488
826.346	26648
826.485	26644
826.625	26632
826.765	26750
826.904	26754
827.044	26476
827.183	26309
827.323	26252
827.462	26408
827.601	26355
827.741	26252
827.88	26347
828.02	26103
828.159	26305
828.298	26339
828.437	26294
828.577	26157
828.716	26358
828.855	26240
828.994	26084
829.134	26050
829.273	26073
829.412	25890
829.551	25890
829.69	25898
829.829	26043
829.968	25951
830.107	25932
830.246	25978
830.385	25955
830.524	25978
830.663	25723
830.802	25738
830.941	25582
831.08	25518
831.219	25704
831.357	25575
831.496	25784
831.635	25651
831.774	25525
831.913	25483
832.051	25472
832.19	25483
832.329	25464
832.467	25228
832.606	25274
832.744	25213
832.883	25156
833.022	25145
833.16	25343
833.299	25346
833.437	25255
833.576	25377
833.714	25339
833.852	25388
833.991	25411
834.129	25445
834.267	25335
834.406	25346
834.544	25400
834.682	25430
834.821	25343
834.959	25430
835.097	25141
835.235	25540
835.373	25285
835.511	25308
835.65	25213
835.788	25225
835.926	24985
836.064	24821
836.202	25012
836.34	25148
836.478	25190
836.615	25209
836.753	25034
836.891	25304
837.029	25065
837.167	25061
837.305	25023
837.443	25076
837.58	24981
837.718	25053
837.856	24989
837.993	24939
838.131	24958
838.269	24829
838.406	24913
838.544	24722
838.681	24505
838.819	24696
838.956	24399
839.094	24460
839.231	24433
839.369	24631
839.506	24863
839.643	24597
839.781	24410
839.918	24437
840.055	24540
840.193	24418
840.33	24289
840.467	24327
840.604	24380
840.742	24471
840.879	24098
841.016	24102
841.153	24243
841.29	24452
841.427	24388
841.564	24517
841.701	24388
841.838	24334
841.975	24209
842.112	24300
842.249	24194
842.385	24205
842.522	24235
842.659	24262
842.796	24018
842.933	24095
843.069	23999
843.206	24076
843.343	24228
843.479	24114
843.616	24095
843.752	23923
843.889	23980
844.025	23999
844.162	23927
844.298	24030
844.435	23961
844.571	23722
844.708	23969
844.844	23916
844.98	23961
845.117	23916
845.253	23828
845.389	23779
845.525	23882
845.661	23866
845.798	23661
845.934	23684
846.07	23691
846.206	23577
846.342	23752
846.478	23581
846.614	23364
846.75	23216
846.886	23387
847.022	23406
847.158	23299
847.294	23265
847.429	23429
847.565	23356
847.701	23444
847.837	23121
847.972	23056
848.108	23151
848.244	23064
848.379	22934
848.515	22972
848.65	22911
848.786	22911
848.921	22885
849.057	22965
849.192	23041
849.328	22847
849.463	22828
849.598	22953
849.734	22869
849.869	22790
850.004	22607
850.14	22622
850.275	22698
850.41	22672
850.545	22569
850.68	22599
850.815	22812
850.95	22691
851.085	22968
851.22	22740
851.355	22786
851.49	22573
851.625	22523
851.76	22713
851.895	22584
852.03	22653
852.165	22717
852.299	22733
852.434	22691
852.569	22752
852.703	22679
852.838	22713
852.973	22900
853.107	22733
853.242	22694
853.376	22660
853.511	22413
853.645	22538
853.78	22527
853.914	22546
854.048	22417
854.183	22402
854.317	22474
854.451	22523
854.585	22565
854.72	22577
854.854	22656
854.988	22451
855.122	22451
855.256	22409
855.39	22436
855.524	22580
855.658	22459
855.792	22455
855.926	22489
856.06	22565
856.194	22569
856.327	22527
856.461	22462
856.595	22325
856.729	22523
856.862	22455
856.996	22341
857.13	22527
857.263	22451
857.397	22649
857.53	22303
857.664	22447
857.797	22637
857.931	22577
858.064	22459
858.197	22634
858.331	22413
858.464	22402
858.597	22398
858.731	22577
858.864	22470
858.997	22440
859.13	22314
859.263	22455
859.396	22603
859.529	22459
859.662	22493
859.795	22440
859.928	22489
860.061	22466
860.194	22736
860.327	22607
860.46	22554
860.592	22618
860.725	22649
860.858	22812
860.99	22428
861.123	22306
861.256	22436
861.388	22554
861.521	23159
861.653	22329
861.786	22223
861.918	22280
862.05	22306
862.183	22497
862.315	22470
862.447	22489
862.58	22390
862.712	22261
862.844	22101
862.976	22230
863.108	22196
863.24	22679
863.372	22150
863.504	22207
863.636	22318
863.768	22291
863.9	22074
864.032	22101
864.164	22128
864.296	22185
864.428	22382
864.559	22287
864.691	22196
864.823	22181
864.954	22154
865.086	22101
865.217	22207
865.349	21994
865.48	22131
865.612	22032
865.743	22219
865.875	22097
866.006	22173
866.137	21987
866.269	22029
866.4	22067
866.531	22036
866.662	21972
866.793	21991
866.924	21945
867.055	21964
867.186	21922
867.317	21972
867.448	21789
867.579	21903
867.71	21975
867.841	21987
867.972	22021
868.103	21991
868.233	21960
868.364	21972
868.495	22090
868.625	22185
868.756	22436
868.886	22086
869.017	22322
869.147	22303
869.278	22291
869.408	22303
869.539	22200
869.669	22337
869.799	22265
869.929	22276
870.06	22322
870.19	22554
870.32	22417
870.45	22630
870.58	22592
870.71	22634
870.84	22812
870.97	22713
871.1	22672
871.23	22793
871.36	22828
871.489	22713
871.619	22691
871.749	22858
871.879	22915
872.008	23014
872.138	22847
872.267	22698
872.397	22752
872.526	22748
872.656	22729
872.785	22713
872.915	22778
873.044	22923
873.173	22919
873.303	22999
873.432	22793
873.561	22991
873.69	22923
873.819	22778
873.948	22869
874.077	22885
874.206	22774
874.335	22824
874.464	22889
874.593	23025
874.722	23071
874.851	23136
874.979	23102
875.108	22915
875.237	23014
875.365	22957
875.494	23048
875.623	23212
875.751	23067
875.88	22968
876.008	23178
876.136	23227
876.265	23478
876.393	23558
876.521	23524
876.65	23524
876.778	23471
876.906	23410
877.034	23387
877.162	23364
877.29	23383
877.418	23387
877.546	23368
877.674	23387
877.802	23406
877.93	23383
878.058	23436
878.185	23379
878.313	23474
878.441	23345
878.568	23174
878.696	23425
878.824	23429
878.951	23497
879.079	23577
879.206	23646
879.333	23497
879.461	23467
879.588	23558
879.715	23562
879.842	23798
879.97	23501
880.097	23280
880.224	23231
880.351	23493
880.478	23250
880.605	23246
880.732	23185
880.859	23433
880.986	23231
881.112	23208
881.239	23071
881.366	22942
881.493	22976
881.619	22805
881.746	22816
881.872	22839
881.999	22774
882.125	22679
882.252	22862
882.378	22843
882.505	22801
882.631	22733
882.757	22611
882.883	22622
883.01	22417
883.136	22478
883.262	22402
883.388	22287
883.514	22405
883.64	22557
883.766	22428
883.892	22363
884.018	22280
884.143	22512
884.269	22546
884.395	22223
884.52	22150
884.646	22169
884.772	22013
884.897	21979
885.023	22055
885.148	22204
885.274	22268
885.399	22314
885.524	22116
885.65	22192
885.775	22093
885.9	22154
886.025	22413
886.15	22196
886.275	22177
886.4	22017
886.525	22154
886.65	22021
886.775	22082
886.9	22196
887.025	22234
887.149	22154
887.274	21987
887.399	21930
887.523	21994
887.648	21827
887.773	21762
887.897	21983
888.021	21937
888.146	21747
888.27	21911
888.395	22078
888.519	21865
888.643	21838
888.767	21892
888.891	21728
889.015	21599
889.139	21717
889.263	21618
889.387	21781
889.511	21911
889.635	21797
889.759	21778
889.883	21789
890.006	21641
890.13	21705
890.254	21637
890.377	21568
890.501	21454
890.624	21321
890.748	21507
890.871	21317
890.995	21272
891.118	21199
891.241	21283
891.364	21180
891.488	21382
891.611	21272
891.734	21161
891.857	21370
891.98	21310
892.103	21245
892.226	21298
892.349	21066
892.471	20994
892.594	21165
892.717	21150
892.839	21062
892.962	21104
893.085	21108
893.207	21127
893.33	20990
893.452	21108
893.575	21192
893.697	21165
893.819	21207
893.941	21393
894.064	21260
894.186	21058
894.308	21108
894.43	21222
894.552	21203
894.674	21161
894.796	21036
894.918	20990
895.04	21112
895.161	21123
895.283	21138
895.405	20998
895.526	21055
895.648	21009
895.769	21237
895.891	21203
896.012	21272
896.134	21051
896.255	21112
896.376	21047
896.498	21100
896.619	21146
896.74	21093
896.861	21272
896.982	21359
897.103	21564
897.224	21408
897.345	21233
897.466	21283
897.587	21169
897.708	21431
897.828	21264
897.949	21241
898.07	21173
898.19	21275
898.311	21329
898.431	21313
898.552	21310
898.672	21359
898.792	21298
898.913	21306
899.033	21131
899.153	21074
899.273	21032
899.393	20963
899.513	21116
899.633	20971
899.753	20952
899.873	21032
899.993	21020
900.113	20910
900.232	20956
900.352	20948
900.472	20861
900.591	20621
900.711	20788
900.83	20701
900.95	20960
901.069	20921
901.189	20663
901.308	20434
901.427	20351
901.546	20461
901.665	20351
901.784	20336
901.904	20248
902.023	20278
902.141	20020
902.26	19921
902.379	19928
902.498	19765
902.617	19734
902.735	19925
902.854	19811
902.973	19784
903.091	19616
903.21	19556
903.328	19472
903.446	19468
903.565	19270
903.683	19308
903.801	19198
903.919	19339
904.038	19278
904.156	19088
904.274	19179
904.392	18996
904.51	18989
904.627	19053
904.745	19015
904.863	19217
904.981	18871
905.098	18692
905.216	18703
905.334	18787
905.451	18726
905.569	18715
905.686	18787
905.803	18753
905.921	18604
906.038	18540
906.155	18555
906.272	18410
906.389	18437
906.506	18197
906.623	18190
906.74	18254
906.857	18079
906.974	18209
907.091	18380
907.208	18323
907.324	18304
907.441	18148
907.557	17950
907.674	17908
907.79	17836
907.907	17912
908.023	18034
908.139	17897
908.256	17969
908.372	17889
908.488	17878
908.604	17714
908.72	17707
908.836	17661
908.952	17703
909.068	17779
909.184	17859
909.3	17653
909.415	17653
909.531	17562
909.647	17318
909.762	17345
909.878	17364
909.993	17379
910.108	17421
910.224	17318
910.339	17345
910.454	17147
910.57	17204
910.685	17109
910.8	17395
910.915	17326
911.03	17258
911.145	17094
911.259	16968
911.374	17003
911.489	16866
911.604	16843
911.718	16702
911.833	16694
911.947	16622
912.062	16546
912.176	16702
912.291	16706
912.405	16698
912.519	16885
912.633	16850
912.748	16721
912.862	16687
912.976	16523
913.09	16386
913.204	16493
913.318	16565
913.431	16497
913.545	16573
913.659	16630
913.772	16508
913.886	16417
914	16291
914.113	16337
914.226	16424
914.34	16356
914.453	16120
914.566	16356
914.68	16234
914.793	16048
914.906	16002
915.019	15869
915.132	15876
915.245	15831
915.358	15842
915.47	15873
915.583	15869
915.696	15838
915.809	15937
915.921	15998
916.034	15880
916.146	15793
916.259	15797
916.371	15819
916.483	15831
916.595	15785
916.708	15705
916.82	15698
916.932	15671
917.044	15614
917.156	15618
917.268	15488
917.38	15629
917.491	15492
917.603	15519
917.715	15435
917.826	15534
917.938	15389
918.049	15378
918.161	15466
918.272	15618
918.384	15515
918.495	15336
918.606	15283
918.717	15180
918.828	15230
918.939	15241
919.05	15032
919.161	15188
919.272	15176
919.383	15112
919.494	15321
919.604	15393
919.715	15203
919.826	15070
919.936	15214
920.047	15279
920.157	15165
920.267	15344
920.378	15306
920.488	15192
920.598	15332
920.708	15545
920.818	15329
920.928	15298
921.038	15447
921.148	15367
921.258	15188
921.368	15017
921.477	14876
921.587	14944
921.697	14739
921.806	14979
921.916	14861
922.025	14689
922.134	14518
922.244	14419
922.353	14556
922.462	14446
922.571	14267
922.68	14275
922.789	14187
922.898	14259
923.007	14107
923.116	14256
923.224	14218
923.333	14119
923.442	14073
923.55	13993
923.659	13940
923.767	14111
923.876	14012
923.984	14020
924.092	13830
924.201	13970
924.309	13963
924.417	13928
924.525	13830
924.633	13921
924.741	14895
924.849	13666
924.956	13845
925.064	13639
925.172	13510
925.279	13525
925.387	13628
925.494	13559
925.602	13655
925.709	13597
925.816	13449
925.924	13472
926.031	13651
926.138	13537
926.245	13495
926.352	13419
926.459	13480
926.566	13521
926.673	13480
926.779	13331
926.886	13343
926.993	13088
927.099	13095
927.206	13099
927.312	13023
927.419	13095
927.525	13190
927.631	13152
927.737	13065
927.843	12966
927.95	12806
928.056	12890
928.162	12977
928.267	13008
928.373	13533
928.479	13050
928.585	12814
928.69	12844
928.796	12894
928.901	12817
929.007	12627
929.112	12779
929.218	12802
929.323	12692
929.428	12616
929.533	12738
929.638	12559
929.743	12719
929.848	12589
929.953	12426
930.058	12467
930.163	12369
930.267	12289
930.372	12528
930.477	12365
930.581	12509
930.685	12258
930.79	12194
930.894	12163
930.998	12155
931.103	12342
931.207	11984
931.311	11733
931.415	11764
931.519	11539
931.623	11615
