Data from test_V78500241_2914.txt Node
Date: Fri Mar 25 16:01:59 CST 2022
User: usil
Spectrometer: V785-0024
Trigger mode: 0
Integration Time (sec): 4.000000E-1
Scans to average: 1
Nonlinearity correction enabled: false
Boxcar width: 0
Storing dark spectrum: false
XAxis mode: Wavelengths
Number of Pixels in Spectrum: 1024
>>>>>Begin Spectral Data<<<<<
801.071	28653
801.214	28763
801.356	28596
801.499	28295
801.641	28379
801.783	28371
801.926	28310
802.068	28409
802.211	28318
802.353	28276
802.496	28158
802.638	28078
802.78	27994
802.923	27892
803.065	27972
803.208	27922
803.35	28048
803.492	28219
803.635	28295
803.777	28253
803.919	28337
804.061	28721
804.204	28337
804.346	28261
804.488	28291
804.63	28219
804.773	28265
804.915	28417
805.057	28561
805.199	28219
805.341	28405
805.483	28466
805.626	28341
805.768	28367
805.91	28432
806.052	28512
806.194	28386
806.336	28683
806.478	28432
806.62	28421
806.762	28584
806.904	28809
807.046	29060
807.188	28900
807.33	28968
807.472	28877
807.614	28900
807.756	28824
807.898	28698
808.04	28672
808.182	28755
808.324	28729
808.465	28706
808.607	28991
808.749	29025
808.891	29288
809.033	29436
809.174	29200
809.316	29067
809.458	29299
809.6	29056
809.741	29261
809.883	29143
810.025	29455
810.166	29436
810.308	29299
810.45	29288
810.591	29189
810.733	29079
810.875	29208
811.016	29246
811.158	29022
811.299	29235
811.441	29402
811.582	29364
811.724	29124
811.865	29048
812.007	29113
812.148	29193
812.29	29185
812.431	29311
812.573	29482
812.714	29592
812.855	29832
812.997	29882
813.138	29904
813.279	29687
813.421	29714
813.562	29524
813.703	29516
813.845	29292
813.986	29136
814.127	28877
814.268	28824
814.41	28885
814.551	28854
814.692	28946
814.833	28816
814.974	28885
815.115	28965
815.256	28828
815.397	28577
815.539	28763
815.68	28675
815.821	28702
815.962	28588
816.103	28664
816.244	28649
816.385	28470
816.526	28318
816.666	28215
816.807	28200
816.948	28284
817.089	28276
817.23	28253
817.371	28234
817.512	28204
817.653	28192
817.793	28059
817.934	28070
818.075	28276
818.216	28166
818.356	28154
818.497	28166
818.638	27994
818.778	27960
818.919	27934
819.06	28025
819.2	28067
819.341	28173
819.481	28173
819.622	28139
819.762	28459
819.903	28440
820.043	28390
820.184	28386
820.324	28428
820.465	28440
820.605	28325
820.746	28337
820.886	28162
821.026	28325
821.167	28204
821.307	28337
821.447	28177
821.588	28139
821.728	27987
821.868	27705
822.008	27789
822.149	27682
822.289	27568
822.429	27454
822.569	27412
822.709	27310
822.849	27199
822.99	27096
823.13	27096
823.27	27055
823.41	26921
823.55	26940
823.69	27028
823.83	27039
823.97	26876
824.11	26796
824.25	26804
824.389	26864
824.529	26895
824.669	26781
824.809	26979
824.949	26982
825.089	26819
825.228	26982
825.368	26492
825.508	26663
825.648	26590
825.787	26716
825.927	26788
826.067	26621
826.206	26640
826.346	26842
826.485	26724
826.625	26727
826.765	26785
826.904	26872
827.044	26469
827.183	26514
827.323	26415
827.462	26625
827.601	26419
827.741	26431
827.88	26476
828.02	26294
828.159	26473
828.298	26385
828.437	26511
828.577	26396
828.716	26339
828.855	26320
828.994	26130
829.134	26145
829.273	26259
829.412	26096
829.551	26035
829.69	26035
829.829	26020
829.968	26275
830.107	26210
830.246	26149
830.385	26168
830.524	26046
830.663	25887
830.802	25803
830.941	25670
831.08	25715
831.219	25685
831.357	25780
831.496	25974
831.635	25765
831.774	25738
831.913	25552
832.051	25575
832.19	25518
832.329	25483
832.467	25483
832.606	25304
832.744	25438
832.883	25343
833.022	25350
833.16	25316
833.299	25343
833.437	25449
833.576	25479
833.714	25499
833.852	25556
833.991	25575
834.129	25662
834.267	25388
834.406	25491
834.544	25388
834.682	25525
834.821	25460
834.959	25651
835.097	25400
835.235	25499
835.373	25502
835.511	25476
835.65	25312
835.788	25346
835.926	25171
836.064	24996
836.202	25114
836.34	25175
836.478	25362
836.615	25190
836.753	25278
836.891	25312
837.029	25301
837.167	25110
837.305	25183
837.443	25065
837.58	25015
837.718	25088
837.856	25084
837.993	25126
838.131	25175
838.269	24973
838.406	24939
838.544	24894
838.681	24707
838.819	24719
838.956	24559
839.094	24589
839.231	24764
839.369	24745
839.506	25031
839.643	24814
839.781	24585
839.918	24521
840.055	24574
840.193	24509
840.33	24551
840.467	24494
840.604	24612
840.742	24837
840.879	24372
841.016	24369
841.153	24311
841.29	24597
841.427	24441
841.564	24342
841.701	24490
841.838	24464
841.975	24414
842.112	24407
842.249	24205
842.385	24262
842.522	24479
842.659	24437
842.796	24216
842.933	24247
843.069	24213
843.206	24201
843.343	24285
843.479	24243
843.616	24289
843.752	23961
843.889	24087
844.025	24079
844.162	24041
844.298	24163
844.435	23870
844.571	24018
844.708	23950
844.844	24064
844.98	24311
845.117	24026
845.253	23973
845.389	23847
845.525	23866
845.661	23771
845.798	23790
845.934	23745
846.07	23809
846.206	23630
846.342	23889
846.478	23718
846.614	23535
846.75	23337
846.886	23406
847.022	23619
847.158	23452
847.294	23531
847.429	23490
847.565	23368
847.701	23726
847.837	23117
847.972	23025
848.108	23193
848.244	23204
848.379	23033
848.515	23052
848.65	23200
848.786	22991
848.921	23029
849.057	23113
849.192	23143
849.328	23086
849.463	23014
849.598	22869
849.734	23003
849.869	22961
850.004	22733
850.14	22854
850.275	22653
850.41	22641
850.545	22831
850.68	22740
850.815	22911
850.95	22816
851.085	23147
851.22	22938
851.355	22809
851.49	22831
851.625	22725
851.76	22896
851.895	22664
852.03	22755
852.165	22820
852.299	22934
852.434	22862
852.569	22908
852.703	22812
852.838	22850
852.973	22961
853.107	22934
853.242	22702
853.376	22466
853.511	22523
853.645	22550
853.78	22706
853.914	22599
854.048	22508
854.183	22592
854.317	22721
854.451	22866
854.585	22622
854.72	22668
854.854	22675
854.988	22523
855.122	22588
855.256	22489
855.39	22557
855.524	22675
855.658	22736
855.792	22759
855.926	22588
856.06	22656
856.194	22687
856.327	22584
856.461	22580
856.595	22672
856.729	22603
856.862	22702
856.996	22561
857.13	22733
857.263	22679
857.397	22721
857.53	22584
857.664	22637
857.797	22664
857.931	22752
858.064	22725
858.197	22634
858.331	22504
858.464	22493
858.597	22485
858.731	22596
858.864	22584
858.997	22512
859.13	22668
859.263	22706
859.396	22717
859.529	22664
859.662	22664
859.795	22485
859.928	22523
860.061	22774
860.194	22896
860.327	22668
860.46	22607
860.592	22809
860.725	22778
860.858	22733
860.99	22675
861.123	22538
861.256	22489
861.388	22664
861.521	23299
861.653	22596
861.786	22523
861.918	22417
862.05	22546
862.183	22577
862.315	22531
862.447	22580
862.58	22447
862.712	22207
862.844	22253
862.976	22436
863.108	22447
863.24	22771
863.372	22348
863.504	22341
863.636	22352
863.768	22394
863.9	22166
864.032	22223
864.164	22261
864.296	22337
864.428	22478
864.559	22356
864.691	22421
864.823	22497
864.954	22226
865.086	22325
865.217	22192
865.349	22128
865.48	22143
865.612	22272
865.743	22265
865.875	22196
866.006	22226
866.137	22154
866.269	22181
866.4	22226
866.531	22219
866.662	22166
866.793	22070
866.924	22223
867.055	22192
867.186	22093
867.317	22173
867.448	22097
867.579	22219
867.71	22177
867.841	22143
867.972	22147
868.103	22124
868.233	22223
868.364	22131
868.495	22230
868.625	22546
868.756	22432
868.886	22333
869.017	22390
869.147	22508
869.278	22542
869.408	22322
869.539	22413
869.669	22485
869.799	22356
869.929	22577
870.06	22512
870.19	22771
870.32	22679
870.45	22698
870.58	22675
870.71	22812
870.84	22892
870.97	22748
871.1	22854
871.23	22793
871.36	22885
871.489	22953
871.619	22942
871.749	23048
871.879	23037
872.008	23136
872.138	22911
872.267	22904
872.397	22980
872.526	22790
872.656	22820
872.785	22835
872.915	22873
873.044	22987
873.173	23094
873.303	23041
873.432	23178
873.561	23174
873.69	23071
873.819	22991
873.948	23090
874.077	22953
874.206	23029
874.335	23037
874.464	23086
874.593	23254
874.722	23242
874.851	23235
874.979	23227
875.108	23200
875.237	23159
875.365	23140
875.494	23166
875.623	23299
875.751	23162
875.88	23159
876.008	23345
876.136	23334
876.265	23604
876.393	23722
876.521	23798
876.65	23619
876.778	23634
876.906	23592
877.034	23524
877.162	23642
877.29	23486
877.418	23630
877.546	23623
877.674	23547
877.802	23490
877.93	23482
878.058	23482
878.185	23429
878.313	23566
878.441	23433
878.568	23318
878.696	23509
878.824	23471
878.951	23642
879.079	23786
879.206	23767
879.333	23684
879.461	23661
879.588	23668
879.715	23707
879.842	23710
879.97	23581
880.097	23493
880.224	23395
880.351	23387
880.478	23288
880.605	23292
880.732	23383
880.859	23748
880.986	23284
881.112	23337
881.239	23159
881.366	23067
881.493	23151
881.619	22965
881.746	22919
881.872	22980
881.999	22976
882.125	22934
882.252	22946
882.378	22927
882.505	22877
882.631	22736
882.757	22721
882.883	22721
883.01	22447
883.136	22561
883.262	22440
883.388	22447
883.514	22752
883.64	22630
883.766	22508
883.892	22223
884.018	22348
884.143	22596
884.269	22580
884.395	22322
884.52	22192
884.646	22185
884.772	22242
884.897	22166
885.023	22284
885.148	22204
885.274	22379
885.399	22402
885.524	22230
885.65	22200
885.775	22314
885.9	22143
886.025	22337
886.15	22181
886.275	22215
886.4	22090
886.525	22257
886.65	22154
886.775	22280
886.9	22230
887.025	22424
887.149	22181
887.274	22044
887.399	21918
887.523	22048
887.648	22017
887.773	21778
887.897	21998
888.021	22112
888.146	21899
888.27	21979
888.395	22013
888.519	21937
888.643	22086
888.767	22067
888.891	21987
889.015	21739
889.139	21762
889.263	21736
889.387	21854
889.511	22036
889.635	21930
889.759	21709
889.883	21880
890.006	21857
890.13	21838
890.254	21713
890.377	21739
890.501	21477
890.624	21530
890.748	21557
890.871	21515
890.995	21321
891.118	21188
891.241	21485
891.364	21302
891.488	21469
891.611	21344
891.734	21310
891.857	21344
891.98	21382
892.103	21283
892.226	21367
892.349	21310
892.471	21062
892.594	21367
892.717	21184
892.839	21173
892.962	21138
893.085	21192
893.207	21135
893.33	21157
893.452	21176
893.575	21192
893.697	21047
893.819	21412
893.941	21389
894.064	21367
894.186	21074
894.308	21176
894.43	21264
894.552	21325
894.674	21241
894.796	21195
894.918	21135
895.04	21131
895.161	21176
895.283	21138
895.405	21085
895.526	21131
895.648	21184
895.769	21317
895.891	21199
896.012	21359
896.134	21252
896.255	21093
896.376	21157
896.498	21203
896.619	21256
896.74	21256
896.861	21161
896.982	21481
897.103	21576
897.224	21462
897.345	21401
897.466	21218
897.587	21439
897.708	21408
897.828	21401
897.949	21344
898.07	21218
898.19	21275
898.311	21485
898.431	21378
898.552	21310
898.672	21485
898.792	21386
898.913	21393
899.033	21325
899.153	21173
899.273	21127
899.393	21142
899.513	21188
899.633	21112
899.753	21051
899.873	21020
899.993	21051
900.113	21047
900.232	21013
900.352	21077
900.472	20925
900.591	20796
900.711	20971
900.83	20762
900.95	20948
901.069	20956
901.189	20796
901.308	20533
901.427	20408
901.546	20374
901.665	20511
901.784	20488
901.904	20313
902.023	20092
902.141	20111
902.26	20027
902.379	19955
902.498	20054
902.617	19925
902.735	19925
902.854	19875
902.973	19883
903.091	19544
903.21	19693
903.328	19537
903.446	19601
903.565	19415
903.683	19434
903.801	19289
903.919	19400
904.038	19320
904.156	19221
904.274	19213
904.392	19145
904.51	19031
904.627	19160
904.745	19206
904.863	19270
904.981	18932
905.098	18886
905.216	18779
905.334	18890
905.451	18787
905.569	18730
905.686	18867
905.803	18867
905.921	18601
906.038	18627
906.155	18688
906.272	18502
906.389	18536
906.506	18342
906.623	18407
906.74	18391
906.857	18262
906.974	18243
907.091	18369
907.208	18410
907.324	18403
907.441	18224
907.557	18076
907.674	18068
907.79	18060
907.907	17984
908.023	17988
908.139	18125
908.256	17996
908.372	17912
908.488	17874
908.604	17748
908.72	17828
908.836	17817
908.952	17684
909.068	17878
909.184	17870
909.3	17870
909.415	17790
909.531	17760
909.647	17551
909.762	17440
909.878	17573
909.993	17524
910.108	17501
910.224	17448
910.339	17318
910.454	17337
910.57	17193
910.685	17216
910.8	17474
910.915	17398
911.03	17246
911.145	17143
911.259	17010
911.374	17014
911.489	17018
911.604	17010
911.718	16755
911.833	16866
911.947	16668
912.062	16618
912.176	16778
912.291	16767
912.405	16771
912.519	17003
912.633	16942
912.748	16782
912.862	16733
912.976	16596
913.09	16474
913.204	16462
913.318	16611
913.431	16668
913.545	16656
913.659	16672
913.772	16535
913.886	16462
914	16394
914.113	16421
914.226	16493
914.34	16402
914.453	16299
914.566	16538
914.68	16196
914.793	16207
914.906	16059
915.019	15964
915.132	16021
915.245	16025
915.358	16040
915.47	15968
915.583	16006
915.696	15972
915.809	16055
915.921	16154
916.034	15911
916.146	15812
916.259	15937
916.371	15945
916.483	15915
916.595	15781
916.708	15857
916.82	15732
916.932	15759
917.044	15781
917.156	15755
917.268	15644
917.38	15656
917.491	15587
917.603	15561
917.715	15682
917.826	15587
917.938	15549
918.049	15363
918.161	15515
918.272	15530
918.384	15682
918.495	15431
918.606	15412
918.717	15340
918.828	15420
918.939	15466
919.05	15218
919.161	15348
919.272	15127
919.383	15165
919.494	15310
919.604	15477
919.715	15291
919.826	15173
919.936	15222
920.047	15435
920.157	15252
920.267	15416
920.378	15359
920.488	15127
920.598	15435
920.708	15614
920.818	15340
920.928	15359
921.038	15557
921.148	15618
921.258	15207
921.368	15089
921.477	15036
921.587	14971
921.697	14815
921.806	14933
921.916	14925
922.025	14689
922.134	14648
922.244	14594
922.353	14720
922.462	14533
922.571	14492
922.68	14290
922.789	14343
922.898	14248
923.007	14252
923.116	14290
923.224	14313
923.333	14244
923.442	14062
923.55	14111
923.659	14096
923.767	14046
923.876	13989
923.984	14062
924.092	13997
924.201	14062
924.309	14043
924.417	13997
924.525	13928
924.633	13917
924.741	14750
924.849	13727
924.956	13776
925.064	13715
925.172	13643
925.279	13559
925.387	13613
925.494	13651
925.602	13731
925.709	13742
925.816	13540
925.924	13677
926.031	13639
926.138	13540
926.245	13674
926.352	13590
926.459	13537
926.566	13685
926.673	13476
926.779	13350
926.886	13354
926.993	13190
927.099	13133
927.206	13072
927.312	13194
927.419	13198
927.525	13179
927.631	13217
927.737	13031
927.843	13031
927.95	12890
928.056	12970
928.162	13015
928.267	13034
928.373	13586
928.479	12977
928.585	12779
928.69	12947
928.796	13000
928.901	12753
929.007	12677
929.112	12871
929.218	12810
929.323	12776
929.428	12753
929.533	12779
929.638	12707
929.743	12612
929.848	12646
929.953	12627
930.058	12521
930.163	12395
930.267	12399
930.372	12547
930.477	12258
930.581	12521
930.685	12403
930.79	12239
930.894	12251
930.998	12224
931.103	12399
931.207	12041
931.311	11965
931.415	11885
931.519	11562
931.623	11570
