Data from test_V78500241_946.txt Node
Date: Fri Mar 25 15:48:21 CST 2022
User: usil
Spectrometer: V785-0024
Trigger mode: 0
Integration Time (sec): 4.000000E-1
Scans to average: 1
Nonlinearity correction enabled: false
Boxcar width: 0
Storing dark spectrum: false
XAxis mode: Wavelengths
Number of Pixels in Spectrum: 1024
>>>>>Begin Spectral Data<<<<<
801.071	28462
801.214	28508
801.356	28314
801.499	28200
801.641	28086
801.783	28044
801.926	28063
802.068	28120
802.211	28067
802.353	27884
802.496	27747
802.638	27831
802.78	27641
802.923	27610
803.065	27679
803.208	27770
803.35	27793
803.492	27804
803.635	27972
803.777	27842
803.919	28093
804.061	28215
804.204	28032
804.346	28124
804.488	27861
804.63	28048
804.773	27892
804.915	27994
805.057	28188
805.199	28010
805.341	28086
805.483	28147
805.626	28162
805.768	28097
805.91	28131
806.052	28169
806.194	28143
806.336	28371
806.478	28169
806.62	28200
806.762	28215
806.904	28474
807.046	28584
807.188	28538
807.33	28698
807.472	28755
807.614	28603
807.756	28455
807.898	28401
808.04	28322
808.182	28474
808.324	28421
808.465	28489
808.607	28729
808.749	28862
808.891	28847
809.033	29003
809.174	28850
809.316	28839
809.458	28816
809.6	28759
809.741	29010
809.883	29075
810.025	29044
810.166	29102
810.308	29064
810.45	29128
810.591	29102
810.733	28965
810.875	28885
811.016	28736
811.158	28957
811.299	29056
811.441	28965
811.582	28934
811.724	28888
811.865	28881
812.007	28816
812.148	28812
812.29	28793
812.431	29174
812.573	29212
812.714	29318
812.855	29280
812.997	29585
813.138	29604
813.279	29520
813.421	29490
813.562	29436
813.703	29250
813.845	29197
813.986	28774
814.127	28603
814.268	28573
814.41	28508
814.551	28424
814.692	28634
814.833	28554
814.974	28573
815.115	28607
815.256	28379
815.397	28440
815.539	28375
815.68	28428
815.821	28451
815.962	28318
816.103	28428
816.244	28204
816.385	28238
816.526	28154
816.666	28002
816.807	27884
816.948	27991
817.089	27953
817.23	27892
817.371	27819
817.512	27850
817.653	27850
817.793	27812
817.934	27793
818.075	27876
818.216	27892
818.356	27945
818.497	27831
818.638	27557
818.778	27667
818.919	27641
819.06	27656
819.2	27736
819.341	27888
819.481	27880
819.622	27998
819.762	28154
819.903	28299
820.043	28017
820.184	28055
820.324	28006
820.465	28029
820.605	27972
820.746	28051
820.886	27892
821.026	27880
821.167	28017
821.307	28063
821.447	27953
821.588	27766
821.728	27622
821.868	27606
822.008	27435
822.149	27306
822.289	27367
822.429	27131
822.569	27039
822.709	26948
822.849	26845
822.99	26880
823.13	26910
823.27	26655
823.41	26697
823.55	26609
823.69	26826
823.83	26686
823.97	26682
824.11	26450
824.25	26450
824.389	26625
824.529	26625
824.669	26583
824.809	26568
824.949	26697
825.089	26587
825.228	26617
825.368	26347
825.508	26256
825.648	26473
825.787	26377
825.927	26530
826.067	26370
826.206	26347
826.346	26480
826.485	26495
826.625	26549
826.765	26476
826.904	26362
827.044	26180
827.183	26202
827.323	26180
827.462	26320
827.601	26134
827.741	26035
827.88	26084
828.02	25970
828.159	26244
828.298	26107
828.437	26081
828.577	26229
828.716	26278
828.855	26020
828.994	25875
829.134	25822
829.273	25982
829.412	25723
829.551	25811
829.69	25906
829.829	25879
829.968	25868
830.107	25917
830.246	25837
830.385	25807
830.524	25776
830.663	25594
830.802	25586
830.941	25499
831.08	25468
831.219	25464
831.357	25460
831.496	25750
831.635	25479
831.774	25384
831.913	25453
832.051	25274
832.19	25251
832.329	25202
832.467	25202
832.606	25126
832.744	25228
832.883	25141
833.022	25034
833.16	25118
833.299	25061
833.437	25133
833.576	25251
833.714	25168
833.852	25331
833.991	25350
834.129	25365
834.267	25289
834.406	25187
834.544	25209
834.682	25099
834.821	25236
834.959	25381
835.097	25072
835.235	25190
835.373	25202
835.511	25103
835.65	25008
835.788	25031
835.926	24897
836.064	24932
836.202	24863
836.34	25031
836.478	25088
836.615	24958
836.753	24981
836.891	25008
837.029	25023
837.167	25023
837.305	24924
837.443	24894
837.58	24833
837.718	24966
837.856	24909
837.993	24890
838.131	24890
838.269	24783
838.406	24597
838.544	24601
838.681	24456
838.819	24460
838.956	24254
839.094	24319
839.231	24353
839.369	24369
839.506	24658
839.643	24540
839.781	24369
839.918	24190
840.055	24289
840.193	24235
840.33	24262
840.467	24285
840.604	24216
840.742	24540
840.879	24076
841.016	24209
841.153	24079
841.29	24357
841.427	24273
841.564	24216
841.701	24315
841.838	24167
841.975	24087
842.112	24060
842.249	24083
842.385	24064
842.522	24129
842.659	24057
842.796	23863
842.933	23901
843.069	23878
843.206	23920
843.343	23939
843.479	23920
843.616	23920
843.752	23790
843.889	23642
844.025	23874
844.162	23722
844.298	23794
844.435	23775
844.571	23577
844.708	23710
844.844	23863
844.98	23935
845.117	23863
845.253	23695
845.389	23691
845.525	23710
845.661	23615
845.798	23592
845.934	23535
846.07	23490
846.206	23459
846.342	23474
846.478	23402
846.614	23223
846.75	23227
846.886	23151
847.022	23265
847.158	23189
847.294	23242
847.429	23102
847.565	23185
847.701	23524
847.837	22923
847.972	22885
848.108	22930
848.244	23098
848.379	22771
848.515	22763
848.65	22729
848.786	22805
848.921	22828
849.057	22793
849.192	22824
849.328	22831
849.463	22885
849.598	22672
849.734	22656
849.869	22580
850.004	22550
850.14	22554
850.275	22462
850.41	22561
850.545	22538
850.68	22402
850.815	22519
850.95	22531
851.085	22645
851.22	22615
851.355	22451
851.49	22584
851.625	22497
851.76	22489
851.895	22451
852.03	22588
852.165	22535
852.299	22691
852.434	22626
852.569	22687
852.703	22554
852.838	22588
852.973	22725
853.107	22706
853.242	22474
853.376	22356
853.511	22314
853.645	22402
853.78	22481
853.914	22436
854.048	22261
854.183	22371
854.317	22447
854.451	22481
854.585	22238
854.72	22325
854.854	22421
854.988	22280
855.122	22413
855.256	22280
855.39	22375
855.524	22417
855.658	22455
855.792	22443
855.926	22352
856.06	22462
856.194	22500
856.327	22306
856.461	22352
856.595	22325
856.729	22424
856.862	22344
856.996	22440
857.13	22436
857.263	22447
857.397	22485
857.53	22295
857.664	22280
857.797	22390
857.931	22596
858.064	22303
858.197	22470
858.331	22337
858.464	22306
858.597	22299
858.731	22337
858.864	22162
858.997	22371
859.13	22413
859.263	22390
859.396	22223
859.529	22371
859.662	22287
859.795	22436
859.928	22306
860.061	22405
860.194	22565
860.327	22432
860.46	22367
860.592	22382
860.725	22550
860.858	22459
860.99	22299
861.123	22306
861.256	22386
861.388	22478
861.521	22961
861.653	22306
861.786	22154
861.918	22078
862.05	22280
862.183	22280
862.315	22219
862.447	22341
862.58	22154
862.712	22070
862.844	21956
862.976	22185
863.108	22059
863.24	22519
863.372	22078
863.504	22078
863.636	21994
863.768	22143
863.9	22044
864.032	21960
864.164	21964
864.296	22162
864.428	22101
864.559	22112
864.691	22101
864.823	22029
864.954	22032
865.086	22063
865.217	21960
865.349	21781
865.48	22044
865.612	21705
865.743	22040
865.875	21911
866.006	21960
866.137	21934
866.269	21941
866.4	21972
866.531	21755
866.662	21797
866.793	21766
866.924	21827
867.055	21892
867.186	21926
867.317	21857
867.448	21789
867.579	21747
867.71	21724
867.841	21732
867.972	21857
868.103	21873
868.233	21797
868.364	21812
868.495	21983
868.625	22074
868.756	22150
868.886	22063
869.017	22090
869.147	22154
869.278	22276
869.408	22173
869.539	22078
869.669	22150
869.799	22158
869.929	22223
870.06	22082
870.19	22360
870.32	22417
870.45	22489
870.58	22504
870.71	22504
870.84	22569
870.97	22573
871.1	22561
871.23	22592
871.36	22653
871.489	22668
871.619	22611
871.749	22641
871.879	22759
872.008	22854
872.138	22645
872.267	22740
872.397	22713
872.526	22626
872.656	22481
872.785	22474
872.915	22721
873.044	22877
873.173	22828
873.303	22771
873.432	22717
873.561	22862
873.69	22656
873.819	22763
873.948	22801
874.077	22850
874.206	22691
874.335	22645
874.464	22824
874.593	22957
874.722	22904
874.851	22976
874.979	22972
875.108	22972
875.237	22896
875.365	22923
875.494	23029
875.623	22953
875.751	22984
875.88	22976
876.008	23041
876.136	23067
876.265	23299
876.393	23463
876.521	23334
876.65	23326
876.778	23364
876.906	23360
877.034	23307
877.162	23273
877.29	23261
877.418	23326
877.546	23223
877.674	23235
877.802	23341
877.93	23284
878.058	23189
878.185	23098
878.313	23208
878.441	23212
878.568	23136
878.696	23239
878.824	23273
878.951	23307
879.079	23520
879.206	23467
879.333	23497
879.461	23303
879.588	23277
879.715	23444
879.842	23581
879.97	23349
880.097	23022
880.224	23159
880.351	23204
880.478	23105
880.605	23029
880.732	23181
880.859	23307
880.986	23105
881.112	23147
881.239	23003
881.366	22748
881.493	22660
881.619	22687
881.746	22698
881.872	22679
881.999	22599
882.125	22573
882.252	22660
882.378	22630
882.505	22706
882.631	22516
882.757	22291
882.883	22436
883.01	22436
883.136	22348
883.262	22238
883.388	22238
883.514	22322
883.64	22398
883.766	22090
883.892	22101
884.018	22010
884.143	22223
884.269	22375
884.395	22131
884.52	21884
884.646	21903
884.772	21926
884.897	21876
885.023	21922
885.148	22017
885.274	22010
885.399	21964
885.524	21937
885.65	21987
885.775	21838
885.9	21922
886.025	22158
886.15	22017
886.275	21869
886.4	21987
886.525	21861
886.65	21854
886.775	21884
886.9	22029
887.025	22017
887.149	21888
887.274	21732
887.399	21861
887.523	21789
887.648	21648
887.773	21644
887.897	21774
888.021	21793
888.146	21667
888.27	21789
888.395	21838
888.519	21663
888.643	21800
888.767	21728
888.891	21671
889.015	21466
889.139	21663
889.263	21534
889.387	21644
889.511	21812
889.635	21614
889.759	21485
889.883	21500
890.006	21549
890.13	21580
890.254	21488
890.377	21367
890.501	21184
890.624	21131
890.748	21298
890.871	21161
890.995	21058
891.118	21051
891.241	21131
891.364	21161
891.488	21188
891.611	21081
891.734	21062
891.857	21066
891.98	21074
892.103	21123
892.226	21074
892.349	21009
892.471	20804
892.594	20994
892.717	21157
892.839	20887
892.962	20914
893.085	21123
893.207	20944
893.33	20906
893.452	20883
893.575	21009
893.697	20998
893.819	21150
893.941	21093
894.064	21081
894.186	20902
894.308	20887
894.43	20948
894.552	21001
894.674	20925
894.796	20785
894.918	20982
895.04	20921
895.161	20979
895.283	20868
895.405	20781
895.526	20929
895.648	21058
895.769	20925
895.891	20975
896.012	20952
896.134	20963
896.255	20933
896.376	20902
896.498	20963
896.619	21009
896.74	20956
896.861	20998
896.982	21233
897.103	21408
897.224	21195
897.345	21146
897.466	21112
897.587	21135
897.708	21275
897.828	21127
897.949	21009
898.07	21104
898.19	20990
898.311	21108
898.431	21108
898.552	21142
898.672	21268
898.792	21131
898.913	21199
899.033	21017
899.153	20899
899.273	20830
899.393	20861
899.513	20933
899.633	20781
899.753	20906
899.873	20724
899.993	20918
900.113	20739
900.232	20826
900.352	20819
900.472	20754
900.591	20686
900.711	20701
900.83	20590
900.95	20693
901.069	20674
901.189	20545
901.308	20271
901.427	20267
901.546	20282
901.665	20259
901.784	20168
901.904	20039
902.023	19978
902.141	19803
902.26	19780
902.379	19841
902.498	19761
902.617	19742
902.735	19776
902.854	19700
902.973	19586
903.091	19468
903.21	19381
903.328	19358
903.446	19320
903.565	19259
903.683	19263
903.801	19057
903.919	19251
904.038	19072
904.156	19038
904.274	18958
904.392	18985
904.51	18886
904.627	18939
904.745	19015
904.863	18985
904.981	18783
905.098	18654
905.216	18677
905.334	18757
905.451	18684
905.569	18483
905.686	18658
905.803	18582
905.921	18376
906.038	18536
906.155	18460
906.272	18376
906.389	18384
906.506	18209
906.623	18140
906.74	18129
906.857	18026
906.974	17999
907.091	18171
907.208	18323
907.324	18117
907.441	18011
907.557	17935
907.674	17885
907.79	17851
907.907	17904
908.023	17984
908.139	17882
908.256	17870
908.372	17710
908.488	17798
908.604	17566
908.72	17680
908.836	17551
908.952	17444
909.068	17691
909.184	17627
909.3	17482
909.415	17501
909.531	17577
909.647	17337
909.762	17170
909.878	17288
909.993	17345
910.108	17227
910.224	17197
910.339	17292
910.454	17151
910.57	17113
910.685	17060
910.8	17265
910.915	17197
911.03	17151
911.145	16847
911.259	16896
911.374	16824
911.489	16797
911.604	16710
911.718	16577
911.833	16603
911.947	16466
912.062	16424
912.176	16584
912.291	16592
912.405	16630
912.519	16858
912.633	16778
912.748	16691
912.862	16580
912.976	16485
913.09	16268
913.204	16371
913.318	16375
913.431	16436
913.545	16565
913.659	16493
913.772	16310
913.886	16257
914	16162
914.113	16284
914.226	16306
914.34	16200
914.453	16044
914.566	16268
914.68	16044
914.793	16051
914.906	15956
915.019	15793
915.132	15778
915.245	15785
915.358	15827
915.47	15895
915.583	15793
915.696	15873
915.809	15895
915.921	15854
916.034	15705
916.146	15728
916.259	15652
916.371	15656
916.483	15774
916.595	15641
916.708	15629
916.82	15671
916.932	15614
917.044	15572
917.156	15572
917.268	15443
917.38	15473
917.491	15431
917.603	15523
917.715	15519
917.826	15477
917.938	15412
918.049	15279
918.161	15325
918.272	15496
918.384	15424
918.495	15359
918.606	15222
918.717	15108
918.828	15184
918.939	15154
919.05	15043
919.161	15188
919.272	14921
919.383	15058
919.494	15154
919.604	15332
919.715	15173
919.826	15093
919.936	15142
920.047	15127
920.157	14986
920.267	15321
920.378	15165
920.488	15081
920.598	15230
920.708	15416
920.818	15211
920.928	15222
921.038	15428
921.148	15306
921.258	15017
921.368	14979
921.477	14933
921.587	14811
921.697	14731
921.806	14785
921.916	14602
922.025	14636
922.134	14499
922.244	14457
922.353	14476
922.462	14370
922.571	14259
922.68	14103
922.789	14176
922.898	14149
923.007	13986
923.116	14126
923.224	14096
923.333	14046
923.442	13917
923.55	13826
923.659	13917
923.767	14073
923.876	13814
923.984	13967
924.092	13757
924.201	13818
924.309	13753
924.417	13769
924.525	13799
924.633	13772
924.741	14804
924.849	13529
924.956	13700
925.064	13578
925.172	13464
925.279	13483
925.387	13502
925.494	13548
925.602	13540
925.709	13499
925.816	13407
925.924	13472
926.031	13460
926.138	13438
926.245	13388
926.352	13403
926.459	13499
926.566	13449
926.673	13384
926.779	13221
926.886	13308
926.993	13149
927.099	12962
927.206	13012
927.312	12985
927.419	13069
927.525	13015
927.631	12993
927.737	12951
927.843	12871
927.95	12821
928.056	12825
928.162	12856
928.267	12932
928.373	13343
928.479	12928
928.585	12745
928.69	12821
928.796	12791
928.901	12684
929.007	12570
929.112	12646
929.218	12658
929.323	12616
929.428	12566
929.533	12639
929.638	12532
929.743	12513
929.848	12540
929.953	12486
930.058	12448
930.163	12277
930.267	12152
930.372	12353
930.477	12228
930.581	12486
930.685	12289
930.79	12091
930.894	12182
930.998	12095
931.103	12155
931.207	11920
931.311	11710
931.415	11680
931.519	11573
931.623	11520
