Data from test_V78500241_2098.txt Node
Date: Fri Mar 25 15:56:20 CST 2022
User: usil
Spectrometer: V785-0024
Trigger mode: 0
Integration Time (sec): 4.000000E-1
Scans to average: 1
Nonlinearity correction enabled: false
Boxcar width: 0
Storing dark spectrum: false
XAxis mode: Wavelengths
Number of Pixels in Spectrum: 1024
>>>>>Begin Spectral Data<<<<<
801.071	29064
801.214	28911
801.356	28710
801.499	28713
801.641	28455
801.783	28504
801.926	28790
802.068	28622
802.211	28497
802.353	28401
802.496	28287
802.638	28162
802.78	28306
802.923	28204
803.065	28025
803.208	28306
803.35	28356
803.492	28497
803.635	28390
803.777	28363
803.919	28497
804.061	28805
804.204	28516
804.346	28390
804.488	28447
804.63	28634
804.773	28481
804.915	28508
805.057	28748
805.199	28481
805.341	28683
805.483	28588
805.626	28523
805.768	28664
805.91	28656
806.052	28645
806.194	28748
806.336	29029
806.478	28641
806.62	28611
806.762	28847
806.904	29003
807.046	29280
807.188	29193
807.33	29147
807.472	29003
807.614	29128
807.756	29113
807.898	29003
808.04	28904
808.182	28999
808.324	29098
808.465	29079
808.607	29227
808.749	29307
808.891	29436
809.033	29672
809.174	29474
809.316	29391
809.458	29254
809.6	29463
809.741	29444
809.883	29551
810.025	29783
810.166	29714
810.308	29577
810.45	29619
810.591	29657
810.733	29436
810.875	29326
811.016	29387
811.158	29284
811.299	29368
811.441	29360
811.582	29592
811.724	29296
811.865	29417
812.007	29395
812.148	29417
812.29	29497
812.431	29566
812.573	29756
812.714	29821
812.855	29862
812.997	29942
813.138	30281
813.279	30079
813.421	29874
813.562	29809
813.703	29687
813.845	29634
813.986	29391
814.127	29322
814.268	29117
814.41	29235
814.551	29223
814.692	29143
814.833	29060
814.974	29090
815.115	29124
815.256	28984
815.397	28987
815.539	29086
815.68	28976
815.821	28995
815.962	28908
816.103	28987
816.244	28748
816.385	28721
816.526	28706
816.666	28622
816.807	28405
816.948	28584
817.089	28493
817.23	28493
817.371	28615
817.512	28455
817.653	28451
817.793	28356
817.934	28493
818.075	28489
818.216	28497
818.356	28310
818.497	28318
818.638	28238
818.778	28147
818.919	28185
819.06	28291
819.2	28299
819.341	28413
819.481	28409
819.622	28573
819.762	28725
819.903	28626
820.043	28599
820.184	28481
820.324	28516
820.465	28500
820.605	28691
820.746	28459
820.886	28443
821.026	28611
821.167	28550
821.307	28550
821.447	28386
821.588	28512
821.728	28287
821.868	28063
822.008	27835
822.149	28070
822.289	27960
822.429	27709
822.569	27583
822.709	27701
822.849	27405
822.99	27610
823.13	27500
823.27	27507
823.41	27348
823.55	27047
823.69	27408
823.83	27306
823.97	27245
824.11	27154
824.25	27081
824.389	27013
824.529	27150
824.669	27096
824.809	27256
824.949	27112
825.089	27184
825.228	27165
825.368	26861
825.508	27020
825.648	26921
825.787	27020
825.927	27032
826.067	26948
826.206	26979
826.346	27051
826.485	26834
826.625	26967
826.765	27017
826.904	27039
827.044	26712
827.183	26731
827.323	26648
827.462	26750
827.601	26594
827.741	26663
827.88	26743
828.02	26415
828.159	26549
828.298	26731
828.437	26727
828.577	26613
828.716	26689
828.855	26552
828.994	26324
829.134	26324
829.273	26377
829.412	26305
829.551	26408
829.69	26393
829.829	26385
829.968	26495
830.107	26564
830.246	26503
830.385	26305
830.524	26210
830.663	26161
830.802	26119
830.941	25947
831.08	26024
831.219	26107
831.357	25997
831.496	26145
831.635	26142
831.774	25932
831.913	25906
832.051	25818
832.19	25921
832.329	25837
832.467	25643
832.606	25624
832.744	25632
832.883	25601
833.022	25670
833.16	25632
833.299	25788
833.437	25674
833.576	25689
833.714	25849
833.852	25624
833.991	25814
834.129	25818
834.267	25928
834.406	25693
834.544	25624
834.682	25696
834.821	25704
834.959	25780
835.097	25651
835.235	25704
835.373	25639
835.511	25643
835.65	25559
835.788	25479
835.926	25327
836.064	25274
836.202	25316
836.34	25552
836.478	25662
836.615	25552
836.753	25613
836.891	25647
837.029	25445
837.167	25373
837.305	25312
837.443	25343
837.58	25289
837.718	25403
837.856	25320
837.993	25145
838.131	25343
838.269	25152
838.406	25209
838.544	25263
838.681	25057
838.819	24924
838.956	24814
839.094	24798
839.231	24867
839.369	25072
839.506	25175
839.643	25118
839.781	24734
839.918	24764
840.055	24825
840.193	24806
840.33	24684
840.467	24677
840.604	24814
840.742	24951
840.879	24525
841.016	24570
841.153	24540
841.29	24791
841.427	24654
841.564	24700
841.701	24658
841.838	24551
841.975	24639
842.112	24658
842.249	24570
842.385	24471
842.522	24798
842.659	24498
842.796	24342
842.933	24380
843.069	24441
843.206	24486
843.343	24536
843.479	24650
843.616	24407
843.752	24174
843.889	24262
844.025	24452
844.162	24190
844.298	24346
844.435	24273
844.571	24277
844.708	24205
844.844	24528
844.98	24369
845.117	24353
845.253	24213
845.389	24095
845.525	24114
845.661	24026
845.798	23965
845.934	24095
846.07	24068
846.206	23950
846.342	24038
846.478	23851
846.614	23809
846.75	23733
846.886	23676
847.022	23687
847.158	23748
847.294	23771
847.429	23615
847.565	23600
847.701	23840
847.837	23410
847.972	23353
848.108	23463
848.244	23573
848.379	23493
848.515	23299
848.65	23239
848.786	23299
848.921	23250
849.057	23337
849.192	23341
849.328	23349
849.463	23303
849.598	23273
849.734	23208
849.869	23067
850.004	23056
850.14	23079
850.275	23064
850.41	22953
850.545	23090
850.68	23060
850.815	23048
850.95	23006
851.085	23132
851.22	23041
851.355	23117
851.49	23113
851.625	23048
851.76	22984
851.895	23044
852.03	22980
852.165	23006
852.299	23006
852.434	23041
852.569	23113
852.703	23010
852.838	23090
852.973	23140
853.107	23185
853.242	23071
853.376	22771
853.511	22820
853.645	22786
853.78	22873
853.914	22927
854.048	22866
854.183	22740
854.317	22782
854.451	22991
854.585	22953
854.72	22900
854.854	22877
854.988	22885
855.122	22904
855.256	22626
855.39	22919
855.524	22793
855.658	22854
855.792	22877
855.926	22812
856.06	22809
856.194	23029
856.327	22774
856.461	22679
856.595	22774
856.729	22816
856.862	22995
856.996	22881
857.13	22877
857.263	23037
857.397	22892
857.53	22748
857.664	22877
857.797	22759
857.931	22873
858.064	22889
858.197	23018
858.331	22816
858.464	22744
858.597	22694
858.731	22850
858.864	22763
858.997	22881
859.13	22763
859.263	22706
859.396	22892
859.529	22862
859.662	22812
859.795	22847
859.928	22812
860.061	23033
860.194	23079
860.327	22812
860.46	22915
860.592	23006
860.725	23143
860.858	23025
860.99	22927
861.123	22755
861.256	22801
861.388	22847
861.521	23611
861.653	22656
861.786	22603
861.918	22725
862.05	22557
862.183	22733
862.315	22729
862.447	22809
862.58	22679
862.712	22497
862.844	22527
862.976	22611
863.108	22653
863.24	23151
863.372	22580
863.504	22516
863.636	22607
863.768	22596
863.9	22516
864.032	22443
864.164	22531
864.296	22531
864.428	22649
864.559	22721
864.691	22618
864.823	22424
864.954	22432
865.086	22386
865.217	22504
865.349	22333
865.48	22348
865.612	22352
865.743	22584
865.875	22485
866.006	22459
866.137	22402
866.269	22424
866.4	22413
866.531	22310
866.662	22432
866.793	22291
866.924	22371
867.055	22348
867.186	22360
867.317	22478
867.448	22261
867.579	22363
867.71	22322
867.841	22394
867.972	22341
868.103	22284
868.233	22432
868.364	22363
868.495	22405
868.625	22637
868.756	22694
868.886	22440
869.017	22569
869.147	22691
869.278	22679
869.408	22592
869.539	22584
869.669	22565
869.799	22641
869.929	22683
870.06	22706
870.19	23003
870.32	22729
870.45	22919
870.58	22805
870.71	22972
870.84	23159
870.97	23060
871.1	22961
871.23	23235
871.36	23197
871.489	23086
871.619	23079
871.749	23204
871.879	23200
872.008	23261
872.138	23273
872.267	23318
872.397	23113
872.526	23079
872.656	23052
872.785	23037
872.915	23254
873.044	23227
873.173	23265
873.303	23303
873.432	23246
873.561	23216
873.69	23200
873.819	23318
873.948	23315
874.077	23151
874.206	23239
874.335	23132
874.464	23280
874.593	23356
874.722	23395
874.851	23402
874.979	23417
875.108	23505
875.237	23410
875.365	23311
875.494	23356
875.623	23436
875.751	23315
875.88	23402
876.008	23459
876.136	23676
876.265	23851
876.393	23859
876.521	23969
876.65	23927
876.778	23783
876.906	23802
877.034	23767
877.162	23657
877.29	23767
877.418	23859
877.546	23866
877.674	23741
877.802	23771
877.93	23756
878.058	23737
878.185	23767
878.313	23741
878.441	23794
878.568	23608
878.696	23531
878.824	23863
878.951	23855
879.079	23935
879.206	23999
879.333	23851
879.461	23771
879.588	23878
879.715	23874
879.842	24026
879.97	23908
880.097	23634
880.224	23573
880.351	23581
880.478	23547
880.605	23486
880.732	23455
880.859	23870
880.986	23634
881.112	23691
881.239	23440
881.366	23353
881.493	23117
881.619	23181
881.746	23117
881.872	23098
881.999	23132
882.125	23094
882.252	23105
882.378	23124
882.505	23220
882.631	22839
882.757	22790
882.883	22869
883.01	22816
883.136	22816
883.262	22592
883.388	22660
883.514	22786
883.64	22786
883.766	22615
883.892	22584
884.018	22630
884.143	22713
884.269	22786
884.395	22535
884.52	22466
884.646	22459
884.772	22329
884.897	22405
885.023	22497
885.148	22550
885.274	22687
885.399	22577
885.524	22584
885.65	22421
885.775	22516
885.9	22436
886.025	22542
886.15	22481
886.275	22459
886.4	22344
886.525	22382
886.65	22386
886.775	22238
886.9	22504
887.025	22599
887.149	22363
887.274	22253
887.399	22181
887.523	22303
887.648	22013
887.773	22067
887.897	22310
888.021	22162
888.146	22204
888.27	22230
888.395	22246
888.519	22265
888.643	22314
888.767	22223
888.891	22082
889.015	21960
889.139	22006
889.263	21968
889.387	22135
889.511	22063
889.635	22051
889.759	21903
889.883	21911
890.006	21915
890.13	22013
890.254	21941
890.377	21915
890.501	21682
890.624	21591
890.748	21663
890.871	21633
890.995	21447
891.118	21504
891.241	21496
891.364	21458
891.488	21656
891.611	21542
891.734	21526
891.857	21530
891.98	21310
892.103	21549
892.226	21462
892.349	21359
892.471	21329
892.594	21355
892.717	21424
892.839	21382
892.962	21389
893.085	21504
893.207	21336
893.33	21241
893.452	21355
893.575	21507
893.697	21332
893.819	21511
893.941	21557
894.064	21622
894.186	21351
894.308	21233
894.43	21401
894.552	21477
894.674	21564
894.796	21252
894.918	21469
895.04	21454
895.161	21492
895.283	21431
895.405	21340
895.526	21382
895.648	21313
895.769	21420
895.891	21523
896.012	21424
896.134	21458
896.255	21374
896.376	21332
896.498	21397
896.619	21389
896.74	21386
896.861	21450
896.982	21774
897.103	21736
897.224	21667
897.345	21599
897.466	21545
897.587	21466
897.708	21572
897.828	21561
897.949	21450
898.07	21291
898.19	21420
898.311	21595
898.431	21538
898.552	21488
898.672	21614
898.792	21656
898.913	21538
899.033	21504
899.153	21412
899.273	21283
899.393	21214
899.513	21412
899.633	21329
899.753	21306
899.873	21123
899.993	21268
900.113	21142
900.232	21310
900.352	21192
900.472	21119
900.591	21017
900.711	21058
900.83	20994
900.95	21116
901.069	21043
901.189	20815
901.308	20701
901.427	20613
901.546	20602
901.665	20655
901.784	20587
901.904	20476
902.023	20370
902.141	20168
902.26	20119
902.379	20320
902.498	20103
902.617	20149
902.735	20149
902.854	20054
902.973	19986
903.091	19727
903.21	19715
903.328	19708
903.446	19746
903.565	19639
903.683	19639
903.801	19422
903.919	19594
904.038	19373
904.156	19422
904.274	19495
904.392	19331
904.51	19354
904.627	19312
904.745	19426
904.863	19297
904.981	19050
905.098	19000
905.216	19038
905.334	19129
905.451	18958
905.569	18970
905.686	18935
905.803	18985
905.921	18741
906.038	18795
906.155	18745
906.272	18741
906.389	18578
906.506	18498
906.623	18479
906.74	18422
906.857	18418
906.974	18380
907.091	18574
907.208	18650
907.324	18403
907.441	18433
907.557	18213
907.674	18346
907.79	18182
907.907	18163
908.023	18133
908.139	18232
908.256	18091
908.372	18148
908.488	18011
908.604	17984
908.72	17882
908.836	17996
908.952	17874
909.068	17988
909.184	17996
909.3	17980
909.415	17923
909.531	17920
909.647	17707
909.762	17638
909.878	17619
909.993	17615
910.108	17589
910.224	17627
910.339	17592
910.454	17497
910.57	17402
910.685	17330
910.8	17604
910.915	17543
911.03	17322
911.145	17288
911.259	17254
911.374	17235
911.489	17189
911.604	17006
911.718	16900
911.833	16995
911.947	16843
912.062	16793
912.176	17010
912.291	16953
912.405	16987
912.519	17094
912.633	17048
912.748	17098
912.862	16885
912.976	16771
913.09	16618
913.204	16679
913.318	16744
913.431	16877
913.545	16797
913.659	16755
913.772	16645
913.886	16561
914	16550
914.113	16527
914.226	16459
914.34	16611
914.453	16493
914.566	16561
914.68	16333
914.793	16409
914.906	16166
915.019	16131
915.132	16025
915.245	16131
915.358	16131
915.47	16036
915.583	16173
915.696	16090
915.809	16188
915.921	16143
916.034	16013
916.146	16071
916.259	15926
916.371	16063
916.483	16112
916.595	15915
916.708	15865
916.82	15895
916.932	15808
917.044	15915
917.156	15895
917.268	15717
917.38	15785
917.491	15835
917.603	15720
917.715	15690
917.826	15812
917.938	15667
918.049	15564
918.161	15557
918.272	15743
918.384	15827
918.495	15599
918.606	15545
918.717	15416
918.828	15469
918.939	15511
919.05	15408
919.161	15321
919.272	15298
919.383	15332
919.494	15443
919.604	15591
919.715	15325
919.826	15481
919.936	15374
920.047	15473
920.157	15424
920.267	15629
920.378	15443
920.488	15321
920.598	15549
920.708	15701
920.818	15473
920.928	15507
921.038	15705
921.148	15618
921.258	15351
921.368	15283
921.477	15173
921.587	15009
921.697	14967
921.806	15043
921.916	14944
922.025	14914
922.134	14743
922.244	14651
922.353	14762
922.462	14545
922.571	14541
922.68	14377
922.789	14298
922.898	14412
923.007	14324
923.116	14415
923.224	14355
923.333	14320
923.442	14218
923.55	14153
923.659	14180
923.767	14294
923.876	14130
923.984	14298
924.092	14115
924.201	14107
924.309	14062
924.417	14065
924.525	14020
924.633	14005
924.741	14929
924.849	13894
924.956	13890
925.064	13837
925.172	13670
925.279	13696
925.387	13780
925.494	13746
925.602	13826
925.709	13727
925.816	13597
925.924	13708
926.031	13757
926.138	13757
926.245	13727
926.352	13647
926.459	13704
926.566	13727
926.673	13670
926.779	13575
926.886	13487
926.993	13350
927.099	13304
927.206	13240
927.312	13259
927.419	13297
927.525	13240
927.631	13304
927.737	13126
927.843	13171
927.95	13023
928.056	13038
928.162	13000
928.267	13122
928.373	13674
928.479	13209
928.585	12878
928.69	13042
928.796	13076
928.901	13065
929.007	12859
929.112	12916
929.218	12821
929.323	12760
929.428	12856
929.533	12943
929.638	12658
929.743	12821
929.848	12825
929.953	12749
930.058	12574
930.163	12471
930.267	12563
930.372	12566
930.477	12441
930.581	12703
930.685	12547
930.79	12448
930.894	12403
930.998	12323
931.103	12597
931.207	12095
931.311	11969
931.415	11882
931.519	11699
931.623	11691
