Data from test_V78500241_3065.txt Node
Date: Fri Mar 25 16:03:02 CST 2022
User: usil
Spectrometer: V785-0024
Trigger mode: 0
Integration Time (sec): 4.000000E-1
Scans to average: 1
Nonlinearity correction enabled: false
Boxcar width: 0
Storing dark spectrum: false
XAxis mode: Wavelengths
Number of Pixels in Spectrum: 1024
>>>>>Begin Spectral Data<<<<<
801.071	28577
801.214	28493
801.356	28219
801.499	28173
801.641	28280
801.783	28147
801.926	28196
802.068	28006
802.211	28219
802.353	28112
802.496	27759
802.638	27762
802.78	27736
802.923	27698
803.065	27873
803.208	27686
803.35	27808
803.492	27968
803.635	27964
803.777	27911
803.919	28086
804.061	28371
804.204	28150
804.346	27983
804.488	27865
804.63	28097
804.773	28006
804.915	28200
805.057	28162
805.199	28086
805.341	28169
805.483	28322
805.626	28287
805.768	28010
805.91	28131
806.052	28188
806.194	28223
806.336	28462
806.478	28386
806.62	28169
806.762	28489
806.904	28466
807.046	28767
807.188	28653
807.33	28668
807.472	28740
807.614	28698
807.756	28675
807.898	28561
808.04	28504
808.182	28428
808.324	28592
808.465	28550
808.607	28683
808.749	28927
808.891	28965
809.033	29079
809.174	28900
809.316	28801
809.458	28752
809.6	28824
809.741	28980
809.883	29029
810.025	29128
810.166	29151
810.308	29064
810.45	29041
810.591	29174
810.733	28831
810.875	28976
811.016	28790
811.158	28713
811.299	28946
811.441	28957
811.582	29121
811.724	28809
811.865	28877
812.007	28915
812.148	28847
812.29	29006
812.431	29109
812.573	29216
812.714	29341
812.855	29490
812.997	29383
813.138	29573
813.279	29551
813.421	29455
813.562	29326
813.703	29128
813.845	29170
813.986	28843
814.127	28694
814.268	28706
814.41	28706
814.551	28519
814.692	28577
814.833	28470
814.974	28508
815.115	28683
815.256	28497
815.397	28455
815.539	28493
815.68	28428
815.821	28284
815.962	28493
816.103	28443
816.244	28287
816.385	28257
816.526	28105
816.666	28131
816.807	28010
816.948	27876
817.089	28025
817.23	27926
817.371	27838
817.512	27857
817.653	27926
817.793	27918
817.934	27934
818.075	27888
818.216	27800
818.356	27857
818.497	27762
818.638	27557
818.778	27629
818.919	27606
819.06	27717
819.2	27812
819.341	27873
819.481	27937
819.622	28090
819.762	28246
819.903	28139
820.043	28021
820.184	28090
820.324	27987
820.465	28124
820.605	27998
820.746	27914
820.886	27819
821.026	28021
821.167	28070
821.307	28135
821.447	27842
821.588	27861
821.728	27644
821.868	27553
822.008	27439
822.149	27420
822.289	27397
822.429	27218
822.569	27028
822.709	27108
822.849	26979
822.99	26944
823.13	26834
823.27	26769
823.41	26667
823.55	26754
823.69	26731
823.83	26708
823.97	26659
824.11	26545
824.25	26473
824.389	26522
824.529	26663
824.669	26461
824.809	26655
824.949	26537
825.089	26503
825.228	26670
825.368	26457
825.508	26362
825.648	26415
825.787	26442
825.927	26362
826.067	26400
826.206	26450
826.346	26324
826.485	26465
826.625	26396
826.765	26473
826.904	26552
827.044	26126
827.183	26176
827.323	26210
827.462	26187
827.601	26195
827.741	26244
827.88	26225
828.02	26149
828.159	26138
828.298	26096
828.437	26233
828.577	26092
828.716	26370
828.855	26054
828.994	25788
829.134	25822
829.273	25978
829.412	25864
829.551	25879
829.69	25811
829.829	25944
829.968	25928
830.107	25928
830.246	25803
830.385	25826
830.524	25651
830.663	25727
830.802	25601
830.941	25381
831.08	25559
831.219	25590
831.357	25571
831.496	25674
831.635	25445
831.774	25308
831.913	25327
832.051	25206
832.19	25301
832.329	25225
832.467	25183
832.606	25114
832.744	25046
832.883	25019
833.022	25072
833.16	25190
833.299	25065
833.437	25209
833.576	25187
833.714	25221
833.852	25209
833.991	25175
834.129	25346
834.267	25152
834.406	25179
834.544	25221
834.682	25213
834.821	25236
834.959	25259
835.097	25251
835.235	25160
835.373	25152
835.511	25137
835.65	25053
835.788	25065
835.926	24932
836.064	24859
836.202	24882
836.34	25122
836.478	25141
836.615	24954
836.753	25034
836.891	25008
837.029	25122
837.167	24916
837.305	25000
837.443	24817
837.58	24814
837.718	25015
837.856	24772
837.993	24852
838.131	24989
838.269	24631
838.406	24852
838.544	24635
838.681	24490
838.819	24407
838.956	24262
839.094	24270
839.231	24353
839.369	24418
839.506	24597
839.643	24525
839.781	24353
839.918	24205
840.055	24262
840.193	24224
840.33	24178
840.467	24079
840.604	24285
840.742	24601
840.879	24251
841.016	24102
841.153	24064
841.29	24418
841.427	24155
841.564	24315
841.701	24152
841.838	24152
841.975	24038
842.112	24018
842.249	24140
842.385	24064
842.522	24167
842.659	24076
842.796	24068
842.933	23980
843.069	23874
843.206	24018
843.343	24060
843.479	23950
843.616	23961
843.752	23866
843.889	23859
844.025	23790
844.162	23798
844.298	23802
844.435	23703
844.571	23672
844.708	23665
844.844	23999
844.98	23863
845.117	23798
845.253	23608
845.389	23604
845.525	23627
845.661	23573
845.798	23421
845.934	23596
846.07	23448
846.206	23509
846.342	23589
846.478	23524
846.614	23159
846.75	23170
846.886	23250
847.022	23216
847.158	23254
847.294	23254
847.429	23212
847.565	23033
847.701	23417
847.837	23029
847.972	22942
848.108	23060
848.244	23083
848.379	22949
848.515	22862
848.65	22759
848.786	22607
848.921	22717
849.057	22843
849.192	22797
849.328	22858
849.463	22885
849.598	22763
849.734	22672
849.869	22546
850.004	22375
850.14	22504
850.275	22588
850.41	22523
850.545	22489
850.68	22516
850.815	22516
850.95	22519
851.085	22664
851.22	22683
851.355	22599
851.49	22504
851.625	22447
851.76	22466
851.895	22542
852.03	22417
852.165	22531
852.299	22523
852.434	22603
852.569	22618
852.703	22493
852.838	22641
852.973	22866
853.107	22641
853.242	22402
853.376	22405
853.511	22234
853.645	22261
853.78	22508
853.914	22363
854.048	22466
854.183	22360
854.317	22424
854.451	22561
854.585	22344
854.72	22485
854.854	22363
854.988	22303
855.122	22402
855.256	22432
855.39	22394
855.524	22436
855.658	22455
855.792	22421
855.926	22470
856.06	22318
856.194	22455
856.327	22398
856.461	22348
856.595	22272
856.729	22356
856.862	22466
856.996	22382
857.13	22455
857.263	22432
857.397	22413
857.53	22493
857.664	22428
857.797	22443
857.931	22424
858.064	22386
858.197	22588
858.331	22436
858.464	22242
858.597	22242
858.731	22363
858.864	22390
858.997	22284
859.13	22443
859.263	22375
859.396	22428
859.529	22386
859.662	22257
859.795	22329
859.928	22417
860.061	22497
860.194	22497
860.327	22516
860.46	22386
860.592	22402
860.725	22565
860.858	22459
860.99	22375
861.123	22363
861.256	22341
861.388	22337
861.521	23041
861.653	22238
861.786	22150
861.918	22112
862.05	22299
862.183	22257
862.315	22299
862.447	22325
862.58	22402
862.712	22230
862.844	21991
862.976	22173
863.108	22169
863.24	22489
863.372	22070
863.504	22025
863.636	22055
863.768	22196
863.9	22200
864.032	21926
864.164	22063
864.296	22128
864.428	22166
864.559	22135
864.691	22147
864.823	22150
864.954	22013
865.086	22036
865.217	22006
865.349	21781
865.48	22078
865.612	21949
865.743	22070
865.875	22021
866.006	21800
866.137	21945
866.269	21911
866.4	22002
866.531	21892
866.662	21835
866.793	21812
866.924	21926
867.055	21945
867.186	21964
867.317	21861
867.448	21835
867.579	21835
867.71	21778
867.841	21838
867.972	21922
868.103	21934
868.233	21857
868.364	21812
868.495	21892
868.625	22105
868.756	22261
868.886	22078
869.017	22150
869.147	22242
869.278	22188
869.408	22105
869.539	22135
869.669	22112
869.799	22173
869.929	22306
870.06	22090
870.19	22531
870.32	22455
870.45	22527
870.58	22523
870.71	22725
870.84	22736
870.97	22497
871.1	22485
871.23	22645
871.36	22641
871.489	22584
871.619	22630
871.749	22782
871.879	22790
872.008	22862
872.138	22793
872.267	22618
872.397	22580
872.526	22637
872.656	22584
872.785	22622
872.915	22713
873.044	22885
873.173	22725
873.303	22774
873.432	22672
873.561	22923
873.69	22694
873.819	22706
873.948	22733
874.077	22797
874.206	22656
874.335	22615
874.464	22889
874.593	22934
874.722	22873
874.851	22987
874.979	22892
875.108	23025
875.237	22889
875.365	22839
875.494	22801
875.623	23025
875.751	22835
875.88	23014
876.008	23155
876.136	23064
876.265	23265
876.393	23387
876.521	23364
876.65	23509
876.778	23421
876.906	23364
877.034	23258
877.162	23330
877.29	23326
877.418	23372
877.546	23345
877.674	23250
877.802	23330
877.93	23223
878.058	23288
878.185	23193
878.313	23258
878.441	23315
878.568	23090
878.696	23318
878.824	23299
878.951	23250
879.079	23501
879.206	23600
879.333	23444
879.461	23212
879.588	23387
879.715	23463
879.842	23539
879.97	23345
880.097	23113
880.224	23098
880.351	23113
880.478	23124
880.605	23083
880.732	23159
880.859	23349
880.986	23231
881.112	23124
881.239	22961
881.366	22885
881.493	22904
881.619	22607
881.746	22691
881.872	22786
881.999	22500
882.125	22641
882.252	22759
882.378	22561
882.505	22866
882.631	22573
882.757	22432
882.883	22405
883.01	22367
883.136	22204
883.262	22211
883.388	22169
883.514	22409
883.64	22367
883.766	22306
883.892	22013
884.018	22147
884.143	22402
884.269	22386
884.395	22181
884.52	21918
884.646	22036
884.772	21941
884.897	21873
885.023	22029
885.148	21964
885.274	22055
885.399	22032
885.524	21949
885.65	21911
885.775	22135
885.9	22131
886.025	22124
886.15	21968
886.275	21983
886.4	21964
886.525	22006
886.65	21922
886.775	21915
886.9	22040
887.025	22150
887.149	22048
887.274	21778
887.399	21747
887.523	21823
887.648	21679
887.773	21774
887.897	21835
888.021	21800
888.146	21633
888.27	21789
888.395	21816
888.519	21743
888.643	21838
888.767	21762
888.891	21705
889.015	21534
889.139	21633
889.263	21454
889.387	21698
889.511	21709
889.635	21671
889.759	21397
889.883	21488
890.006	21428
890.13	21591
890.254	21443
890.377	21538
890.501	21378
890.624	21245
890.748	21382
890.871	21249
890.995	21127
891.118	21020
891.241	21116
891.364	21169
891.488	21184
891.611	21074
891.734	21176
891.857	21188
891.98	21116
892.103	21009
892.226	21142
892.349	20925
892.471	20960
892.594	20975
892.717	21077
892.839	20948
892.962	21058
893.085	21024
893.207	20918
893.33	20941
893.452	20986
893.575	20937
893.697	21036
893.819	21142
893.941	21222
894.064	21169
894.186	20853
894.308	20777
894.43	21108
894.552	21157
894.674	21100
894.796	20853
894.918	20990
895.04	21089
895.161	20899
895.283	21066
895.405	21028
895.526	21036
895.648	21020
895.769	20967
895.891	21123
896.012	21127
896.134	21055
896.255	20845
896.376	21020
896.498	20971
896.619	21096
896.74	20941
896.861	21024
896.982	21245
897.103	21405
897.224	21195
897.345	21077
897.466	21055
897.587	21184
897.708	21302
897.828	21203
897.949	21249
898.07	21013
898.19	21089
898.311	21287
898.431	21176
898.552	21161
898.672	21275
898.792	21203
898.913	21199
899.033	21173
899.153	21032
899.273	20944
899.393	20902
899.513	20956
899.633	20937
899.753	20929
899.873	20796
899.993	20956
900.113	20880
900.232	20842
900.352	20857
900.472	20762
900.591	20648
900.711	20697
900.83	20621
900.95	20739
901.069	20788
901.189	20522
901.308	20336
901.427	20199
901.546	20294
901.665	20282
901.784	20119
901.904	20180
902.023	20012
902.141	19909
902.26	19830
902.379	19776
902.498	19765
902.617	19674
902.735	19757
902.854	19734
902.973	19677
903.091	19449
903.21	19502
903.328	19460
903.446	19335
903.565	19217
903.683	19327
903.801	19110
903.919	19168
904.038	19194
904.156	19080
904.274	19027
904.392	18916
904.51	18882
904.627	19019
904.745	19076
904.863	18977
904.981	18798
905.098	18681
905.216	18681
905.334	18646
905.451	18593
905.569	18597
905.686	18585
905.803	18703
905.921	18369
906.038	18479
906.155	18357
906.272	18235
906.389	18334
906.506	18258
906.623	18140
906.74	18087
906.857	18007
906.974	18114
907.091	18117
907.208	18384
907.324	18213
907.441	17988
907.557	17965
907.674	17851
907.79	17771
907.907	17805
908.023	17885
908.139	17916
908.256	17855
908.372	17737
908.488	17714
908.604	17566
908.72	17516
908.836	17676
908.952	17570
909.068	17596
909.184	17691
909.3	17600
909.415	17600
909.531	17551
909.647	17421
909.762	17303
909.878	17193
909.993	17337
910.108	17197
910.224	17223
910.339	17231
910.454	17151
910.57	17029
910.685	16995
910.8	17292
910.915	17170
911.03	17140
911.145	16877
911.259	16881
911.374	16911
911.489	16847
911.604	16653
911.718	16626
911.833	16622
911.947	16519
912.062	16398
912.176	16660
912.291	16478
912.405	16558
912.519	16881
912.633	16710
912.748	16679
912.862	16558
912.976	16485
913.09	16131
913.204	16417
913.318	16535
913.431	16580
913.545	16607
913.659	16485
913.772	16405
913.886	16299
914	16109
914.113	16363
914.226	16344
914.34	16188
914.453	16109
914.566	16272
914.68	16090
914.793	16055
914.906	15899
915.019	15876
915.132	15690
915.245	15800
915.358	15789
915.47	15785
915.583	15835
915.696	15770
915.809	15842
915.921	15915
916.034	15709
916.146	15690
916.259	15610
916.371	15739
916.483	15682
916.595	15614
916.708	15690
916.82	15599
916.932	15557
917.044	15557
917.156	15496
917.268	15374
917.38	15545
917.491	15340
917.603	15283
917.715	15492
917.826	15492
917.938	15485
918.049	15241
918.161	15291
918.272	15412
918.384	15428
918.495	15287
918.606	15226
918.717	15100
918.828	15142
918.939	15233
919.05	15013
919.161	15058
919.272	14967
919.383	14921
919.494	15180
919.604	15348
919.715	15192
919.826	15055
919.936	15097
920.047	15116
920.157	15176
920.267	15272
920.378	15135
920.488	15112
920.598	15291
920.708	15424
920.818	15199
920.928	15252
921.038	15382
921.148	15317
921.258	15058
921.368	15017
921.477	14834
921.587	14819
921.697	14693
921.806	14887
921.916	14800
922.025	14560
922.134	14488
922.244	14492
922.353	14499
922.462	14374
922.571	14275
922.68	14126
922.789	14039
922.898	14149
923.007	14058
923.116	14107
923.224	14069
923.333	14054
923.442	14039
923.55	13936
923.659	13955
923.767	13967
923.876	13822
923.984	14031
924.092	13822
924.201	13917
924.309	13883
924.417	13852
924.525	13822
924.633	13708
924.741	14537
924.849	13590
924.956	13712
925.064	13655
925.172	13331
925.279	13567
925.387	13521
925.494	13518
925.602	13525
925.709	13510
925.816	13377
925.924	13403
926.031	13548
926.138	13259
926.245	13464
926.352	13297
926.459	13514
926.566	13426
926.673	13339
926.779	13247
926.886	13251
926.993	13126
927.099	13034
927.206	13015
927.312	12947
927.419	13019
927.525	13015
927.631	12993
927.737	12939
927.843	12859
927.95	12776
928.056	12837
928.162	12939
928.267	12882
928.373	13430
928.479	12935
928.585	12684
928.69	12787
928.796	12806
928.901	12764
929.007	12616
929.112	12658
929.218	12715
929.323	12578
929.428	12585
929.533	12684
929.638	12456
929.743	12483
929.848	12589
929.953	12506
930.058	12319
930.163	12232
930.267	12213
930.372	12376
930.477	12216
930.581	12384
930.685	12334
930.79	12121
930.894	12148
930.998	12106
931.103	12136
931.207	11828
931.311	11794
931.415	11691
931.519	11535
931.623	11539
