Data from test_V78500241_2669.txt Node
Date: Fri Mar 25 16:00:17 CST 2022
User: usil
Spectrometer: V785-0024
Trigger mode: 0
Integration Time (sec): 4.000000E-1
Scans to average: 1
Nonlinearity correction enabled: false
Boxcar width: 0
Storing dark spectrum: false
XAxis mode: Wavelengths
Number of Pixels in Spectrum: 1024
>>>>>Begin Spectral Data<<<<<
801.071	28877
801.214	28927
801.356	28786
801.499	28675
801.641	28596
801.783	28546
801.926	28557
802.068	28660
802.211	28432
802.353	28413
802.496	28272
802.638	28242
802.78	28215
802.923	28086
803.065	28116
803.208	27972
803.35	28196
803.492	28352
803.635	28447
803.777	28413
803.919	28512
804.061	28968
804.204	28599
804.346	28538
804.488	28489
804.63	28512
804.773	28413
804.915	28599
805.057	28618
805.199	28371
805.341	28577
805.483	28683
805.626	28660
805.768	28455
805.91	28584
806.052	28797
806.194	28478
806.336	28771
806.478	28637
806.62	28763
806.762	28858
806.904	28991
807.046	29299
807.188	29128
807.33	29109
807.472	29311
807.614	29029
807.756	29109
807.898	28888
808.04	28900
808.182	28881
808.324	29018
808.465	29044
808.607	29227
808.749	29375
808.891	29467
809.033	29562
809.174	29490
809.316	29353
809.458	29360
809.6	29284
809.741	29600
809.883	29391
810.025	29558
810.166	29627
810.308	29600
810.45	29661
810.591	29516
810.733	29448
810.875	29337
811.016	29326
811.158	29299
811.299	29497
811.441	29482
811.582	29516
811.724	29455
811.865	29463
812.007	29326
812.148	29364
812.29	29471
812.431	29482
812.573	29813
812.714	29661
812.855	29920
812.997	30030
813.138	30121
813.279	30068
813.421	29824
813.562	29878
813.703	29516
813.845	29573
813.986	29330
814.127	29132
814.268	29109
814.41	29067
814.551	29143
814.692	29231
814.833	29052
814.974	29067
815.115	28927
815.256	29105
815.397	28869
815.539	29044
815.68	28919
815.821	28801
815.962	28793
816.103	28854
816.244	28691
816.385	28752
816.526	28615
816.666	28462
816.807	28363
816.948	28421
817.089	28462
817.23	28432
817.371	28493
817.512	28470
817.653	28405
817.793	28337
817.934	28367
818.075	28394
818.216	28504
818.356	28261
818.497	28371
818.638	28192
818.778	28207
818.919	28158
819.06	28211
819.2	28325
819.341	28421
819.481	28386
819.622	28512
819.762	28820
819.903	28668
820.043	28702
820.184	28588
820.324	28519
820.465	28710
820.605	28577
820.746	28466
820.886	28478
821.026	28588
821.167	28432
821.307	28706
821.447	28322
821.588	28310
821.728	28223
821.868	28150
822.008	27907
822.149	27934
822.289	27975
822.429	27553
822.569	27667
822.709	27652
822.849	27477
822.99	27466
823.13	27431
823.27	27241
823.41	27161
823.55	27066
823.69	27264
823.83	27237
823.97	27230
824.11	27020
824.25	26994
824.389	27093
824.529	27233
824.669	27013
824.809	27184
824.949	27169
825.089	27195
825.228	27249
825.368	26910
825.508	26918
825.648	26956
825.787	26830
825.927	26933
826.067	26910
826.206	26891
826.346	27055
826.485	27017
826.625	26925
826.765	27020
826.904	26944
827.044	26769
827.183	26842
827.323	26667
827.462	26735
827.601	26731
827.741	26670
827.88	26857
828.02	26625
828.159	26712
828.298	26674
828.437	26701
828.577	26602
828.716	26724
828.855	26351
828.994	26579
829.134	26400
829.273	26522
829.412	26343
829.551	26313
829.69	26328
829.829	26294
829.968	26423
830.107	26362
830.246	26366
830.385	26221
830.524	26103
830.663	26005
830.802	26077
830.941	25940
831.08	25978
831.219	26039
831.357	25925
831.496	26202
831.635	26058
831.774	25898
831.913	25902
832.051	25689
832.19	25734
832.329	25693
832.467	25776
832.606	25693
832.744	25677
832.883	25556
833.022	25575
833.16	25693
833.299	25571
833.437	25655
833.576	25643
833.714	25655
833.852	25704
833.991	25681
834.129	25700
834.267	25898
834.406	25662
834.544	25727
834.682	25544
834.821	25662
834.959	25700
835.097	25578
835.235	25742
835.373	25544
835.511	25544
835.65	25514
835.788	25533
835.926	25422
836.064	25308
836.202	25445
836.34	25415
836.478	25616
836.615	25476
836.753	25537
836.891	25586
837.029	25556
837.167	25483
837.305	25354
837.443	25285
837.58	25301
837.718	25449
837.856	25293
837.993	25247
838.131	25320
838.269	25171
838.406	25152
838.544	25179
838.681	24894
838.819	24977
838.956	24894
839.094	24677
839.231	24837
839.369	25084
839.506	25141
839.643	25107
839.781	24749
839.918	24882
840.055	24738
840.193	24806
840.33	24738
840.467	24642
840.604	24760
840.742	25038
840.879	24490
841.016	24650
841.153	24517
841.29	24859
841.427	24738
841.564	24711
841.701	24665
841.838	24623
841.975	24623
842.112	24627
842.249	24597
842.385	24429
842.522	24703
842.659	24502
842.796	24277
842.933	24498
843.069	24194
843.206	24407
843.343	24376
843.479	24475
843.616	24570
843.752	24319
843.889	24174
844.025	24258
844.162	24273
844.298	24315
844.435	24167
844.571	24209
844.708	24254
844.844	24403
844.98	24365
845.117	24327
845.253	24087
845.389	24140
845.525	24228
845.661	24018
845.798	23969
845.934	24007
846.07	24011
846.206	24003
846.342	24060
846.478	24007
846.614	23748
846.75	23627
846.886	23695
847.022	23794
847.158	23615
847.294	23783
847.429	23699
847.565	23604
847.701	24034
847.837	23429
847.972	23372
848.108	23558
848.244	23345
848.379	23246
848.515	23178
848.65	23208
848.786	23311
848.921	23216
849.057	23516
849.192	23299
849.328	23284
849.463	23311
849.598	23227
849.734	23185
849.869	23067
850.004	23056
850.14	23117
850.275	22999
850.41	22976
850.545	23037
850.68	22972
850.815	22972
850.95	22965
851.085	23273
851.22	23124
851.355	23105
851.49	23044
851.625	23102
851.76	23052
851.895	22911
852.03	23037
852.165	22961
852.299	23003
852.434	23033
852.569	22930
852.703	23006
852.838	23067
852.973	23143
853.107	23216
853.242	22976
853.376	22854
853.511	22660
853.645	22896
853.78	22900
853.914	22850
854.048	22706
854.183	22729
854.317	22862
854.451	23102
854.585	22843
854.72	22862
854.854	23003
854.988	22797
855.122	22835
855.256	22653
855.39	22824
855.524	22961
855.658	22934
855.792	22812
855.926	22828
856.06	22915
856.194	22911
856.327	22801
856.461	22763
856.595	22885
856.729	22816
856.862	23014
856.996	22904
857.13	22976
857.263	22976
857.397	22919
857.53	22687
857.664	22942
857.797	23033
857.931	22900
858.064	22904
858.197	22927
858.331	22908
858.464	22850
858.597	22805
858.731	22850
858.864	22797
858.997	22687
859.13	22706
859.263	22805
859.396	22984
859.529	22755
859.662	22748
859.795	22809
859.928	22790
860.061	22965
860.194	23064
860.327	22900
860.46	22816
860.592	23071
860.725	23067
860.858	23044
860.99	22850
861.123	22668
861.256	22862
861.388	22942
861.521	23604
861.653	22820
861.786	22664
861.918	22618
862.05	22698
862.183	22831
862.315	22759
862.447	22797
862.58	22702
862.712	22542
862.844	22478
862.976	22717
863.108	22721
863.24	22839
863.372	22557
863.504	22542
863.636	22523
863.768	22653
863.9	22531
864.032	22394
864.164	22523
864.296	22554
864.428	22573
864.559	22611
864.691	22561
864.823	22660
864.954	22516
865.086	22447
865.217	22470
865.349	22504
865.48	22428
865.612	22363
865.743	22546
865.875	22344
866.006	22512
866.137	22466
866.269	22306
866.4	22489
866.531	22470
866.662	22318
866.793	22204
866.924	22306
867.055	22386
867.186	22398
867.317	22265
867.448	22272
867.579	22382
867.71	22196
867.841	22325
867.972	22402
868.103	22394
868.233	22371
868.364	22421
868.495	22508
868.625	22500
868.756	22725
868.886	22550
869.017	22554
869.147	22653
869.278	22702
869.408	22596
869.539	22478
869.669	22603
869.799	22683
869.929	22759
870.06	22691
870.19	22908
870.32	22946
870.45	22854
870.58	23018
870.71	23136
870.84	22965
870.97	23014
871.1	22923
871.23	23064
871.36	23277
871.489	23064
871.619	23041
871.749	23162
871.879	23128
872.008	23250
872.138	23155
872.267	23231
872.397	23079
872.526	23037
872.656	23010
872.785	23166
872.915	23292
873.044	23318
873.173	23250
873.303	23280
873.432	23193
873.561	23296
873.69	23189
873.819	23197
873.948	23151
874.077	23155
874.206	23223
874.335	23258
874.464	23414
874.593	23512
874.722	23425
874.851	23467
874.979	23395
875.108	23520
875.237	23303
875.365	23307
875.494	23303
875.623	23516
875.751	23524
875.88	23455
876.008	23608
876.136	23661
876.265	23798
876.393	23912
876.521	23893
876.65	23885
876.778	23794
876.906	23790
877.034	23745
877.162	23699
877.29	23714
877.418	23775
877.546	23764
877.674	23707
877.802	23703
877.93	23882
878.058	23604
878.185	23577
878.313	23657
878.441	23794
878.568	23573
878.696	23707
878.824	23748
878.951	23885
879.079	23798
879.206	23984
879.333	23984
879.461	23855
879.588	23729
879.715	23798
879.842	24030
879.97	23840
880.097	23649
880.224	23611
880.351	23539
880.478	23630
880.605	23543
880.732	23448
880.859	23863
880.986	23501
881.112	23604
881.239	23467
881.366	23174
881.493	23189
881.619	23056
881.746	23075
881.872	23105
881.999	23098
882.125	23060
882.252	23174
882.378	23064
882.505	23212
882.631	22858
882.757	22904
882.883	22801
883.01	22843
883.136	22694
883.262	22683
883.388	22611
883.514	22740
883.64	22824
883.766	22725
883.892	22462
884.018	22664
884.143	22634
884.269	22736
884.395	22557
884.52	22478
884.646	22470
884.772	22314
884.897	22291
885.023	22489
885.148	22531
885.274	22550
885.399	22466
885.524	22394
885.65	22295
885.775	22474
885.9	22398
886.025	22554
886.15	22577
886.275	22360
886.4	22367
886.525	22379
886.65	22413
886.775	22375
886.9	22421
887.025	22573
887.149	22413
887.274	22291
887.399	22215
887.523	22177
887.648	22192
887.773	22070
887.897	22310
888.021	22299
888.146	22162
888.27	22211
888.395	22253
888.519	22276
888.643	22169
888.767	22173
888.891	22002
889.015	21979
889.139	22169
889.263	21937
889.387	22109
889.511	22120
889.635	22131
889.759	21937
889.883	21937
890.006	21941
890.13	22025
890.254	21915
890.377	21895
890.501	21736
890.624	21660
890.748	21774
890.871	21690
890.995	21492
891.118	21420
891.241	21564
891.364	21523
891.488	21652
891.611	21488
891.734	21523
891.857	21504
891.98	21488
892.103	21542
892.226	21576
892.349	21443
892.471	21252
892.594	21462
892.717	21340
892.839	21469
892.962	21386
893.085	21405
893.207	21481
893.33	21226
893.452	21260
893.575	21283
893.697	21428
893.819	21553
893.941	21564
894.064	21473
894.186	21283
894.308	21222
894.43	21424
894.552	21439
894.674	21447
894.796	21237
894.918	21454
895.04	21218
895.161	21397
895.283	21405
895.405	21428
895.526	21298
895.648	21332
895.769	21386
895.891	21405
896.012	21629
896.134	21481
896.255	21378
896.376	21256
896.498	21374
896.619	21374
896.74	21298
896.861	21408
896.982	21679
897.103	21751
897.224	21705
897.345	21671
897.466	21443
897.587	21496
897.708	21717
897.828	21656
897.949	21481
898.07	21450
898.19	21538
898.311	21652
898.431	21557
898.552	21583
898.672	21629
898.792	21633
898.913	21492
899.033	21458
899.153	21329
899.273	21272
899.393	21302
899.513	21283
899.633	21310
899.753	21306
899.873	21260
899.993	21336
900.113	21264
900.232	21325
900.352	21100
900.472	21093
900.591	20986
900.711	21131
900.83	21085
900.95	21081
901.069	21077
901.189	20956
901.308	20731
901.427	20727
901.546	20602
901.665	20617
901.784	20556
901.904	20530
902.023	20313
902.141	20237
902.26	20126
902.379	20290
902.498	20081
902.617	20077
902.735	20142
902.854	20134
902.973	20046
903.091	19856
903.21	19845
903.328	19715
903.446	19769
903.565	19639
903.683	19666
903.801	19392
903.919	19460
904.038	19472
904.156	19350
904.274	19480
904.392	19259
904.51	19377
904.627	19377
904.745	19354
904.863	19491
904.981	19057
905.098	18875
905.216	18993
905.334	19148
905.451	18886
905.569	18882
905.686	19015
905.803	19008
905.921	18783
906.038	18837
906.155	18753
906.272	18639
906.389	18707
906.506	18357
906.623	18582
906.74	18479
906.857	18467
906.974	18369
907.091	18616
907.208	18620
907.324	18566
907.441	18277
907.557	18205
907.674	18243
907.79	18144
907.907	18106
908.023	18262
908.139	18273
908.256	18121
908.372	18076
908.488	17954
908.604	17901
908.72	17764
908.836	17828
908.952	17813
909.068	17961
909.184	18110
909.3	17908
909.415	17969
909.531	17889
909.647	17649
909.762	17554
909.878	17668
909.993	17627
910.108	17653
910.224	17577
910.339	17562
910.454	17493
910.57	17379
910.685	17372
910.8	17566
910.915	17493
911.03	17398
911.145	17299
911.259	17166
911.374	17193
911.489	17151
911.604	17033
911.718	16949
911.833	16892
911.947	16862
912.062	16759
912.176	16972
912.291	16908
912.405	16889
912.519	17151
912.633	17117
912.748	16908
912.862	16850
912.976	16812
913.09	16611
913.204	16797
913.318	16763
913.431	16733
913.545	16847
913.659	16812
913.772	16675
913.886	16554
914	16447
914.113	16615
914.226	16675
914.34	16645
914.453	16459
914.566	16538
914.68	16451
914.793	16436
914.906	16246
915.019	16135
915.132	16067
915.245	16025
915.358	16071
915.47	16158
915.583	16147
915.696	16128
915.809	16226
915.921	16253
916.034	16074
916.146	15926
916.259	15991
916.371	16074
916.483	16116
916.595	15941
916.708	15911
916.82	16002
916.932	15937
917.044	15880
917.156	15827
917.268	15762
917.38	15789
917.491	15629
917.603	15682
917.715	15720
917.826	15770
917.938	15648
918.049	15614
918.161	15663
918.272	15812
918.384	15701
918.495	15637
918.606	15603
918.717	15435
918.828	15332
918.939	15492
919.05	15374
919.161	15389
919.272	15298
919.383	15268
919.494	15500
919.604	15553
919.715	15412
919.826	15359
919.936	15389
920.047	15496
920.157	15374
920.267	15572
920.378	15488
920.488	15226
920.598	15538
920.708	15652
920.818	15587
920.928	15462
921.038	15637
921.148	15625
921.258	15264
921.368	15222
921.477	15138
921.587	15226
921.697	14952
921.806	15188
921.916	14986
922.025	14815
922.134	14648
922.244	14708
922.353	14819
922.462	14564
922.571	14606
922.68	14438
922.789	14488
922.898	14381
923.007	14320
923.116	14328
923.224	14298
923.333	14282
923.442	14142
923.55	14248
923.659	14248
923.767	14271
923.876	14180
923.984	14199
924.092	14081
924.201	14191
924.309	14058
924.417	14107
924.525	14046
924.633	14062
924.741	14929
924.849	13780
924.956	13944
925.064	13734
925.172	13757
925.279	13715
925.387	13833
925.494	13731
925.602	13845
925.709	13738
925.816	13537
925.924	13723
926.031	13738
926.138	13658
926.245	13636
926.352	13548
926.459	13708
926.566	13795
926.673	13636
926.779	13438
926.886	13521
926.993	13320
927.099	13282
927.206	13194
927.312	13255
927.419	13400
927.525	13206
927.631	13297
927.737	13179
927.843	13110
927.95	13027
928.056	13061
928.162	13103
928.267	13145
928.373	13647
928.479	13145
928.585	12859
928.69	13091
928.796	13034
928.901	12970
929.007	12791
929.112	12966
929.218	12875
929.323	12753
929.428	12776
929.533	12909
929.638	12783
929.743	12810
929.848	12753
929.953	12764
930.058	12589
930.163	12445
930.267	12521
930.372	12635
930.477	12464
930.581	12700
930.685	12490
930.79	12308
930.894	12391
930.998	12258
931.103	12445
931.207	12022
931.311	11977
931.415	11893
931.519	11676
931.623	11707
