Data from test_V78500241_1571.txt Node
Date: Fri Mar 25 15:52:41 CST 2022
User: usil
Spectrometer: V785-0024
Trigger mode: 0
Integration Time (sec): 4.000000E-1
Scans to average: 1
Nonlinearity correction enabled: false
Boxcar width: 0
Storing dark spectrum: false
XAxis mode: Wavelengths
Number of Pixels in Spectrum: 1024
>>>>>Begin Spectral Data<<<<<
801.071	28265
801.214	28169
801.356	27953
801.499	27964
801.641	27778
801.783	27842
801.926	27808
802.068	27857
802.211	27793
802.353	27766
802.496	27557
802.638	27542
802.78	27507
802.923	27416
803.065	27367
803.208	27431
803.35	27507
803.492	27770
803.635	27766
803.777	27564
803.919	27838
804.061	28013
804.204	27876
804.346	27739
804.488	27603
804.63	27728
804.773	27614
804.915	27641
805.057	27838
805.199	27648
805.341	27720
805.483	27861
805.626	27846
805.768	27797
805.91	27888
806.052	27903
806.194	27660
806.336	28097
806.478	27979
806.62	27956
806.762	28078
806.904	28215
807.046	28398
807.188	28386
807.33	28207
807.472	28322
807.614	28185
807.756	28333
807.898	28055
808.04	28116
808.182	27998
808.324	28303
808.465	28215
808.607	28512
808.749	28508
808.891	28634
809.033	28546
809.174	28618
809.316	28531
809.458	28382
809.6	28489
809.741	28634
809.883	28752
810.025	28877
810.166	28828
810.308	28934
810.45	28828
810.591	28736
810.733	28660
810.875	28611
811.016	28405
811.158	28367
811.299	28694
811.441	28630
811.582	28702
811.724	28516
811.865	28561
812.007	28531
812.148	28569
812.29	28573
812.431	28778
812.573	28778
812.714	29014
812.855	28980
812.997	29071
813.138	29189
813.279	29121
813.421	29083
813.562	28934
813.703	28938
813.845	28767
813.986	28382
814.127	28352
814.268	28268
814.41	28280
814.551	28249
814.692	28318
814.833	28329
814.974	28177
815.115	28219
815.256	28116
815.397	28048
815.539	28158
815.68	27987
815.821	27941
815.962	28105
816.103	27975
816.244	27914
816.385	27770
816.526	27876
816.666	27838
816.807	27447
816.948	27583
817.089	27694
817.23	27587
817.371	27629
817.512	27374
817.653	27481
817.793	27336
817.934	27488
818.075	27591
818.216	27492
818.356	27378
818.497	27340
818.638	27291
818.778	27363
818.919	27245
819.06	27310
819.2	27370
819.341	27576
819.481	27504
819.622	27660
819.762	27838
819.903	27850
820.043	27648
820.184	27633
820.324	27614
820.465	27774
820.605	27720
820.746	27633
820.886	27393
821.026	27542
821.167	27606
821.307	27652
821.447	27557
821.588	27466
821.728	27374
821.868	27077
822.008	27055
822.149	27009
822.289	27009
822.429	26716
822.569	26758
822.709	26667
822.849	26503
822.99	26526
823.13	26514
823.27	26415
823.41	26377
823.55	26256
823.69	26431
823.83	26180
823.97	26301
824.11	26096
824.25	26103
824.389	26050
824.529	26183
824.669	26191
824.809	26248
824.949	26332
825.089	26248
825.228	26202
825.368	26039
825.508	25913
825.648	26111
825.787	25997
825.927	25986
826.067	26031
826.206	25963
826.346	26103
826.485	26046
826.625	25944
826.765	26122
826.904	26043
827.044	25841
827.183	25765
827.323	25776
827.462	25788
827.601	25909
827.741	25738
827.88	25731
828.02	25628
828.159	25871
828.298	25788
828.437	25750
828.577	25556
828.716	25788
828.855	25594
828.994	25449
829.134	25464
829.273	25491
829.412	25392
829.551	25415
829.69	25289
829.829	25339
829.968	25518
830.107	25571
830.246	25502
830.385	25381
830.524	25339
830.663	25190
830.802	25206
830.941	25000
831.08	24962
831.219	25179
831.357	25004
831.496	25358
831.635	24985
831.774	25000
831.913	25057
832.051	24954
832.19	24840
832.329	24787
832.467	24673
832.606	24738
832.744	24661
832.883	24631
833.022	24654
833.16	24749
833.299	24814
833.437	24692
833.576	24730
833.714	24688
833.852	24817
833.991	24798
834.129	24909
834.267	24787
834.406	24825
834.544	24722
834.682	24707
834.821	24703
834.959	24878
835.097	24730
835.235	24817
835.373	24631
835.511	24700
835.65	24642
835.788	24658
835.926	24566
836.064	24467
836.202	24311
836.34	24665
836.478	24753
836.615	24593
836.753	24623
836.891	24597
837.029	24620
837.167	24509
837.305	24471
837.443	24525
837.58	24403
837.718	24376
837.856	24604
837.993	24422
838.131	24403
838.269	24342
838.406	24273
838.544	24190
838.681	24079
838.819	23939
838.956	23931
839.094	23893
839.231	23889
839.369	24045
839.506	24292
839.643	24140
839.781	23923
839.918	23786
840.055	23802
840.193	23904
840.33	23813
840.467	23904
840.604	23798
840.742	24174
840.879	23684
841.016	23809
841.153	23771
841.29	23920
841.427	23809
841.564	23847
841.701	23642
841.838	23691
841.975	23733
842.112	23741
842.249	23646
842.385	23615
842.522	23832
842.659	23646
842.796	23581
842.933	23619
843.069	23524
843.206	23501
843.343	23596
843.479	23665
843.616	23581
843.752	23269
843.889	23269
844.025	23429
844.162	23349
844.298	23463
844.435	23520
844.571	23417
844.708	23406
844.844	23478
844.98	23379
845.117	23482
845.253	23372
845.389	23265
845.525	23261
845.661	23193
845.798	23117
845.934	23155
846.07	22999
846.206	23025
846.342	23174
846.478	23044
846.614	22949
846.75	22691
846.886	22828
847.022	22820
847.158	22869
847.294	22793
847.429	22839
847.565	22843
847.701	23124
847.837	22611
847.972	22599
848.108	22618
848.244	22535
848.379	22440
848.515	22375
848.65	22466
848.786	22261
848.921	22459
849.057	22519
849.192	22531
849.328	22413
849.463	22538
849.598	22394
849.734	22314
849.869	22318
850.004	22226
850.14	22226
850.275	22158
850.41	22143
850.545	22101
850.68	22074
850.815	22204
850.95	22128
851.085	22173
851.22	22257
851.355	22097
851.49	22097
851.625	22048
851.76	22105
851.895	22086
852.03	22040
852.165	22128
852.299	22238
852.434	22261
852.569	22204
852.703	22093
852.838	22169
852.973	22322
853.107	22272
853.242	22166
853.376	22036
853.511	21915
853.645	21850
853.78	22067
853.914	21956
854.048	21945
854.183	21983
854.317	22078
854.451	22101
854.585	21956
854.72	21998
854.854	22067
854.988	21964
855.122	21972
855.256	21747
855.39	21880
855.524	22017
855.658	22006
855.792	21987
855.926	22048
856.06	22048
856.194	22070
856.327	21937
856.461	21934
856.595	21998
856.729	21941
856.862	22169
856.996	22010
857.13	21903
857.263	22040
857.397	22013
857.53	21994
857.664	22055
857.797	21983
857.931	22036
858.064	22013
858.197	21968
858.331	21918
858.464	21926
858.597	21941
858.731	21907
858.864	21991
858.997	21918
859.13	21941
859.263	21945
859.396	21979
859.529	21911
859.662	21831
859.795	21930
859.928	21991
860.061	22204
860.194	22112
860.327	22131
860.46	21926
860.592	22120
860.725	22242
860.858	22204
860.99	21945
861.123	21934
861.256	21934
861.388	21960
861.521	22523
861.653	21907
861.786	21751
861.918	21808
862.05	21846
862.183	21873
862.315	21960
862.447	22010
862.58	21869
862.712	21686
862.844	21587
862.976	21831
863.108	21633
863.24	22192
863.372	21732
863.504	21679
863.636	21774
863.768	21774
863.9	21690
864.032	21641
864.164	21644
864.296	21690
864.428	21762
864.559	21778
864.691	21671
864.823	21663
864.954	21572
865.086	21713
865.217	21682
865.349	21519
865.48	21568
865.612	21595
865.743	21785
865.875	21587
866.006	21485
866.137	21603
866.269	21542
866.4	21603
866.531	21504
866.662	21523
866.793	21443
866.924	21595
867.055	21553
867.186	21542
867.317	21523
867.448	21340
867.579	21485
867.71	21370
867.841	21454
867.972	21534
868.103	21424
868.233	21424
868.364	21583
868.495	21500
868.625	21797
868.756	21884
868.886	21682
869.017	21717
869.147	21743
869.278	21743
869.408	21819
869.539	21720
869.669	21793
869.799	21690
869.929	21793
870.06	21797
870.19	22002
870.32	21949
870.45	22059
870.58	22158
870.71	22207
870.84	22150
870.97	22143
871.1	22173
871.23	22398
871.36	22428
871.489	22128
871.619	22215
871.749	22481
871.879	22314
872.008	22523
872.138	22306
872.267	22215
872.397	22188
872.526	22166
872.656	22242
872.785	22242
872.915	22280
873.044	22421
873.173	22367
873.303	22276
873.432	22386
873.561	22478
873.69	22386
873.819	22249
873.948	22409
874.077	22428
874.206	22215
874.335	22352
874.464	22481
874.593	22493
874.722	22580
874.851	22710
874.979	22550
875.108	22733
875.237	22493
875.365	22519
875.494	22588
875.623	22660
875.751	22565
875.88	22592
876.008	22736
876.136	22637
876.265	22892
876.393	23151
876.521	23140
876.65	23143
876.778	23014
876.906	22873
877.034	22881
877.162	22858
877.29	22843
877.418	22991
877.546	22995
877.674	22915
877.802	22911
877.93	22896
878.058	22793
878.185	22858
878.313	22873
878.441	22847
878.568	22854
878.696	22854
878.824	23105
878.951	22991
879.079	23155
879.206	23292
879.333	23151
879.461	23006
879.588	23044
879.715	23151
879.842	23223
879.97	22908
880.097	22733
880.224	22668
880.351	22656
880.478	22748
880.605	22596
880.732	22767
880.859	22930
880.986	22835
881.112	22748
881.239	22649
881.366	22367
881.493	22527
881.619	22291
881.746	22367
881.872	22291
881.999	22238
882.125	22268
882.252	22310
882.378	22249
882.505	22405
882.631	22158
882.757	21975
882.883	22147
883.01	22070
883.136	21922
883.262	21846
883.388	21922
883.514	21915
883.64	22097
883.766	22010
883.892	21785
884.018	21774
884.143	21835
884.269	22112
884.395	21633
884.52	21515
884.646	21686
884.772	21572
884.897	21496
885.023	21614
885.148	21736
885.274	21861
885.399	21747
885.524	21549
885.65	21595
885.775	21553
885.9	21622
886.025	21701
886.15	21694
886.275	21644
886.4	21439
886.525	21553
886.65	21629
886.775	21530
886.9	21667
887.025	21793
887.149	21561
887.274	21462
887.399	21428
887.523	21287
887.648	21348
887.773	21401
887.897	21439
888.021	21306
888.146	21393
888.27	21545
888.395	21382
888.519	21481
888.643	21363
888.767	21420
888.891	21249
889.015	21195
889.139	21241
889.263	21226
889.387	21272
889.511	21454
889.635	21256
889.759	21154
889.883	21260
890.006	21142
890.13	21344
890.254	21043
890.377	21161
890.501	20952
890.624	20853
890.748	20914
890.871	20861
890.995	20788
891.118	20731
891.241	20758
891.364	20670
891.488	20807
891.611	20697
891.734	20727
891.857	20910
891.98	20754
892.103	20765
892.226	20701
892.349	20686
892.471	20549
892.594	20754
892.717	20735
892.839	20678
892.962	20746
893.085	20602
893.207	20575
893.33	20415
893.452	20473
893.575	20705
893.697	20712
893.819	20758
893.941	20750
894.064	20746
894.186	20579
894.308	20617
894.43	20750
894.552	20785
894.674	20712
894.796	20587
894.918	20663
895.04	20503
895.161	20621
895.283	20674
895.405	20545
895.526	20541
895.648	20511
895.769	20659
895.891	20606
896.012	20682
896.134	20667
896.255	20518
896.376	20651
896.498	20640
896.619	20659
896.74	20575
896.861	20758
896.982	20975
897.103	21169
897.224	20910
897.345	20739
897.466	20746
897.587	20834
897.708	20979
897.828	20785
897.949	20735
898.07	20777
898.19	20765
898.311	20788
898.431	20644
898.552	20971
898.672	20765
898.792	20902
898.913	20914
899.033	20598
899.153	20644
899.273	20564
899.393	20526
899.513	20648
899.633	20640
899.753	20609
899.873	20511
899.993	20632
900.113	20552
900.232	20594
900.352	20549
900.472	20389
900.591	20347
900.711	20533
900.83	20263
900.95	20415
901.069	20408
901.189	20199
901.308	20122
901.427	19989
901.546	19940
901.665	19974
901.784	20024
901.904	19753
902.023	19647
902.141	19487
902.26	19430
902.379	19594
902.498	19331
902.617	19468
902.735	19476
902.854	19350
902.973	19365
903.091	19103
903.21	19046
903.328	19053
903.446	19046
903.565	18837
903.683	18859
903.801	18772
903.919	18745
904.038	18806
904.156	18700
904.274	18749
904.392	18734
904.51	18589
904.627	18627
904.745	18601
904.863	18776
904.981	18601
905.098	18403
905.216	18399
905.334	18380
905.451	18369
905.569	18357
905.686	18369
905.803	18258
905.921	18144
906.038	18327
906.155	18133
906.272	18034
906.389	17969
906.506	17912
906.623	17866
906.74	17798
906.857	17729
906.974	17737
907.091	17805
907.208	17954
907.324	17897
907.441	17691
907.557	17634
907.674	17596
907.79	17539
907.907	17573
908.023	17524
908.139	17592
908.256	17368
908.372	17497
908.488	17395
908.604	17318
908.72	17258
908.836	17345
908.952	17155
909.068	17341
909.184	17387
909.3	17273
909.415	17296
909.531	17212
909.647	17033
909.762	16915
909.878	17025
909.993	16984
910.108	16816
910.224	16930
910.339	17048
910.454	16843
910.57	16850
910.685	16687
910.8	16949
910.915	16889
911.03	16771
911.145	16725
911.259	16561
911.374	16603
911.489	16542
911.604	16462
911.718	16253
911.833	16310
911.947	16352
912.062	16147
912.176	16272
912.291	16394
912.405	16394
912.519	16413
912.633	16497
912.748	16284
912.862	16333
912.976	16105
913.09	15983
913.204	16105
913.318	16207
913.431	16078
913.545	16211
913.659	16128
913.772	15998
913.886	15880
914	15956
914.113	15983
914.226	16105
914.34	15953
914.453	15857
914.566	16006
914.68	15766
914.793	15793
914.906	15599
915.019	15606
915.132	15519
915.245	15534
915.358	15564
915.47	15534
915.583	15477
915.696	15507
915.809	15618
915.921	15660
916.034	15450
916.146	15481
916.259	15450
916.371	15534
916.483	15389
916.595	15382
916.708	15268
916.82	15428
916.932	15287
917.044	15203
917.156	15302
917.268	15135
917.38	15188
917.491	15157
917.603	15157
917.715	15180
917.826	15245
917.938	15013
918.049	15028
918.161	15077
918.272	15233
918.384	15127
918.495	15173
918.606	14899
918.717	14910
918.828	14918
918.939	15039
919.05	14944
919.161	14948
919.272	14727
919.383	14842
919.494	14887
919.604	15077
919.715	14857
919.826	14796
919.936	14925
920.047	14849
920.157	14785
920.267	14979
920.378	14876
920.488	14857
920.598	14921
920.708	15176
920.818	15108
920.928	14960
921.038	15157
921.148	15195
921.258	14724
921.368	14697
921.477	14587
921.587	14568
921.697	14446
921.806	14629
921.916	14389
922.025	14351
922.134	14214
922.244	14195
922.353	14256
922.462	14077
922.571	14062
922.68	13917
922.789	13852
922.898	13909
923.007	13902
923.116	13944
923.224	13864
923.333	13879
923.442	13700
923.55	13731
923.659	13708
923.767	13662
923.876	13715
923.984	13708
924.092	13639
924.201	13639
924.309	13632
924.417	13601
924.525	13571
924.633	13480
924.741	14461
924.849	13365
924.956	13495
925.064	13354
925.172	13244
925.279	13289
925.387	13179
925.494	13236
925.602	13533
925.709	13320
925.816	13099
925.924	13217
926.031	13346
926.138	13213
926.245	13282
926.352	13129
926.459	13278
926.566	13278
926.673	13160
926.779	12928
926.886	13065
926.993	12935
927.099	12745
927.206	12783
927.312	12882
927.419	12829
927.525	12844
927.631	12852
927.737	12654
927.843	12631
927.95	12559
928.056	12650
928.162	12620
928.267	12772
928.373	13304
928.479	12768
928.585	12513
928.69	12547
928.796	12639
928.901	12475
929.007	12258
929.112	12585
929.218	12544
929.323	12346
929.428	12391
929.533	12486
929.638	12330
929.743	12357
929.848	12445
929.953	12296
930.058	12159
930.163	12011
930.267	12034
930.372	12144
930.477	12087
930.581	12194
930.685	12087
930.79	11863
930.894	11847
930.998	11889
931.103	12038
931.207	11642
931.311	11623
931.415	11417
931.519	11201
931.623	11318
