Data from test_V78500241_3193.txt Node
Date: Fri Mar 25 16:03:55 CST 2022
User: usil
Spectrometer: V785-0024
Trigger mode: 0
Integration Time (sec): 4.000000E-1
Scans to average: 1
Nonlinearity correction enabled: false
Boxcar width: 0
Storing dark spectrum: false
XAxis mode: Wavelengths
Number of Pixels in Spectrum: 1024
>>>>>Begin Spectral Data<<<<<
801.071	28523
801.214	28443
801.356	28253
801.499	28253
801.641	28135
801.783	28090
801.926	28105
802.068	27998
802.211	27956
802.353	27914
802.496	27793
802.638	27743
802.78	27778
802.923	27705
803.065	27686
803.208	27785
803.35	27842
803.492	27934
803.635	27949
803.777	27934
803.919	27892
804.061	28322
804.204	28185
804.346	28021
804.488	27964
804.63	28063
804.773	27903
804.915	28166
805.057	28029
805.199	28112
805.341	28112
805.483	28169
805.626	28090
805.768	28139
805.91	28097
806.052	28238
806.194	28021
806.336	28329
806.478	28363
806.62	28124
806.762	28295
806.904	28421
807.046	28649
807.188	28717
807.33	28634
807.472	28660
807.614	28607
807.756	28637
807.898	28497
808.04	28470
808.182	28459
808.324	28611
808.465	28546
808.607	28596
808.749	28892
808.891	29029
809.033	29037
809.174	29056
809.316	28850
809.458	28877
809.6	28679
809.741	28946
809.883	29105
810.025	29083
810.166	29227
810.308	29143
810.45	29052
810.591	28965
810.733	28911
810.875	28729
811.016	28854
811.158	28763
811.299	28748
811.441	29121
811.582	28965
811.724	28953
811.865	28805
812.007	29044
812.148	28847
812.29	28930
812.431	29181
812.573	29220
812.714	29250
812.855	29467
812.997	29604
813.138	29493
813.279	29581
813.421	29414
813.562	29368
813.703	29117
813.845	29155
813.986	28831
814.127	28493
814.268	28615
814.41	28611
814.551	28664
814.692	28569
814.833	28641
814.974	28637
815.115	28508
815.256	28344
815.397	28360
815.539	28409
815.68	28379
815.821	28363
815.962	28348
816.103	28363
816.244	28333
816.385	28344
816.526	28207
816.666	28055
816.807	27759
816.948	28074
817.089	27907
817.23	27945
817.371	27873
817.512	27831
817.653	27892
817.793	27816
817.934	27835
818.075	27854
818.216	27937
818.356	27751
818.497	27599
818.638	27618
818.778	27648
818.919	27610
819.06	27644
819.2	27778
819.341	27717
819.481	27747
819.622	28002
819.762	28158
819.903	28070
820.043	28124
820.184	27953
820.324	27956
820.465	28040
820.605	28166
820.746	27975
820.886	27778
821.026	27953
821.167	27854
821.307	27937
821.447	27819
821.588	27838
821.728	27762
821.868	27561
822.008	27515
822.149	27370
822.289	27374
822.429	27104
822.569	27089
822.709	26986
822.849	26891
822.99	26895
823.13	26834
823.27	26724
823.41	26773
823.55	26598
823.69	26708
823.83	26495
823.97	26503
824.11	26495
824.25	26537
824.389	26575
824.529	26549
824.669	26488
824.809	26503
824.949	26636
825.089	26686
825.228	26587
825.368	26309
825.508	26298
825.648	26434
825.787	26488
825.927	26442
826.067	26450
826.206	26389
826.346	26522
826.485	26473
826.625	26336
826.765	26484
826.904	26427
827.044	26168
827.183	26088
827.323	26077
827.462	26195
827.601	26187
827.741	26161
827.88	26248
828.02	26043
828.159	26065
828.298	26054
828.437	26111
828.577	26065
828.716	26122
828.855	26027
828.994	25921
829.134	25753
829.273	25791
829.412	25784
829.551	25750
829.69	25818
829.829	25776
829.968	25822
830.107	25883
830.246	25898
830.385	25601
830.524	25712
830.663	25662
830.802	25464
830.941	25400
831.08	25308
831.219	25506
831.357	25415
831.496	25677
831.635	25430
831.774	25232
831.913	25164
832.051	25198
832.19	25206
832.329	25175
832.467	25099
832.606	24977
832.744	24913
832.883	25160
833.022	25118
833.16	25057
833.299	25126
833.437	25156
833.576	25137
833.714	25107
833.852	25179
833.991	25099
834.129	25331
834.267	25266
834.406	25133
834.544	25152
834.682	25031
834.821	25061
834.959	25251
835.097	25141
835.235	25137
835.373	25053
835.511	25110
835.65	25000
835.788	25004
835.926	24848
836.064	24772
836.202	24901
836.34	24939
836.478	24947
836.615	24958
836.753	24958
836.891	25034
837.029	25034
837.167	24817
837.305	24741
837.443	24719
837.58	24875
837.718	24909
837.856	24760
837.993	24852
838.131	24776
838.269	24631
838.406	24665
838.544	24604
838.681	24365
838.819	24525
838.956	24239
839.094	24285
839.231	24270
839.369	24372
839.506	24738
839.643	24559
839.781	24289
839.918	24228
840.055	24258
840.193	24251
840.33	24136
840.467	24072
840.604	24136
840.742	24498
840.879	23996
841.016	23988
841.153	23999
841.29	24285
841.427	24197
841.564	24133
841.701	24072
841.838	24163
841.975	23916
842.112	24053
842.249	23996
842.385	23980
842.522	24171
842.659	24015
842.796	23942
842.933	23980
843.069	23954
843.206	23790
843.343	24015
843.479	23889
843.616	23878
843.752	23760
843.889	23687
844.025	23790
844.162	23741
844.298	23821
844.435	23573
844.571	23707
844.708	23691
844.844	23843
844.98	23843
845.117	23748
845.253	23733
845.389	23608
845.525	23608
845.661	23592
845.798	23379
845.934	23467
846.07	23364
846.206	23516
846.342	23570
846.478	23395
846.614	23261
846.75	23223
846.886	22987
847.022	23239
847.158	23212
847.294	23041
847.429	23231
847.565	23079
847.701	23360
847.837	22831
847.972	22835
848.108	23052
848.244	22991
848.379	22691
848.515	22672
848.65	22656
848.786	22858
848.921	22733
849.057	22763
849.192	22793
849.328	22755
849.463	22805
849.598	22687
849.734	22649
849.869	22611
850.004	22413
850.14	22535
850.275	22443
850.41	22512
850.545	22519
850.68	22421
850.815	22554
850.95	22462
851.085	22706
851.22	22596
851.355	22538
851.49	22497
851.625	22531
851.76	22538
851.895	22447
852.03	22497
852.165	22504
852.299	22497
852.434	22569
852.569	22379
852.703	22436
852.838	22656
852.973	22607
853.107	22611
853.242	22497
853.376	22375
853.511	22329
853.645	22284
853.78	22474
853.914	22246
854.048	22348
854.183	22226
854.317	22234
854.451	22535
854.585	22333
854.72	22360
854.854	22314
854.988	22318
855.122	22185
855.256	22188
855.39	22314
855.524	22382
855.658	22310
855.792	22325
855.926	22322
856.06	22390
856.194	22455
856.327	22386
856.461	22306
856.595	22299
856.729	22352
856.862	22451
856.996	22333
857.13	22455
857.263	22459
857.397	22367
857.53	22204
857.664	22329
857.797	22314
857.931	22493
858.064	22402
858.197	22386
858.331	22287
858.464	22329
858.597	22287
858.731	22242
858.864	22238
858.997	22291
859.13	22394
859.263	22257
859.396	22295
859.529	22413
859.662	22306
859.795	22295
859.928	22314
860.061	22413
860.194	22424
860.327	22352
860.46	22329
860.592	22386
860.725	22523
860.858	22512
860.99	22459
861.123	22253
861.256	22413
861.388	22329
861.521	23147
861.653	22215
861.786	22055
861.918	22105
862.05	22192
862.183	22246
862.315	22413
862.447	22238
862.58	22226
862.712	22025
862.844	21918
862.976	22124
863.108	22090
863.24	22481
863.372	21842
863.504	22017
863.636	22048
863.768	21975
863.9	21975
864.032	21884
864.164	21994
864.296	22090
864.428	22204
864.559	22063
864.691	21968
864.823	22150
864.954	21903
865.086	22032
865.217	21903
865.349	21861
865.48	21953
865.612	21930
865.743	22002
865.875	21922
866.006	21880
866.137	21907
866.269	21865
866.4	22002
866.531	21949
866.662	21903
866.793	21918
866.924	21835
867.055	21857
867.186	21785
867.317	21835
867.448	21709
867.579	21800
867.71	21705
867.841	21698
867.972	21888
868.103	21865
868.233	21884
868.364	21979
868.495	21907
868.625	22032
868.756	22059
868.886	21972
869.017	22006
869.147	22219
869.278	22162
869.408	22116
869.539	22120
869.669	22166
869.799	22105
869.929	22265
870.06	22154
870.19	22390
870.32	22352
870.45	22421
870.58	22508
870.71	22508
870.84	22546
870.97	22622
871.1	22554
871.23	22577
871.36	22607
871.489	22565
871.619	22569
871.749	22675
871.879	22660
872.008	22771
872.138	22637
872.267	22599
872.397	22596
872.526	22531
872.656	22443
872.785	22512
872.915	22672
873.044	22672
873.173	22634
873.303	22797
873.432	22755
873.561	22824
873.69	22702
873.819	22637
873.948	22755
874.077	22683
874.206	22816
874.335	22717
874.464	22843
874.593	23037
874.722	22858
874.851	22984
874.979	23006
875.108	22995
875.237	22896
875.365	22965
875.494	23025
875.623	23003
875.751	22812
875.88	22938
876.008	23025
876.136	23064
876.265	23391
876.393	23467
876.521	23444
876.65	23326
876.778	23208
876.906	23212
877.034	23280
877.162	23303
877.29	23307
877.418	23391
877.546	23356
877.674	23212
877.802	23311
877.93	23311
878.058	23242
878.185	23155
878.313	23189
878.441	23349
878.568	23018
878.696	23288
878.824	23356
878.951	23356
879.079	23444
879.206	23585
879.333	23406
879.461	23261
879.588	23421
879.715	23414
879.842	23501
879.97	23433
880.097	23090
880.224	23086
880.351	23075
880.478	23033
880.605	23033
880.732	23102
880.859	23311
880.986	23083
881.112	23083
881.239	22991
881.366	22843
881.493	22736
881.619	22717
881.746	22626
881.872	22607
881.999	22493
882.125	22519
882.252	22702
882.378	22546
882.505	22733
882.631	22504
882.757	22280
882.883	22390
883.01	22348
883.136	22242
883.262	22234
883.388	22188
883.514	22344
883.64	22348
883.766	22299
883.892	22097
884.018	22223
884.143	22226
884.269	22257
884.395	21975
884.52	21930
884.646	21949
884.772	21972
884.897	21823
885.023	21911
885.148	22013
885.274	22063
885.399	22063
885.524	21930
885.65	21975
885.775	21907
885.9	21987
886.025	22055
886.15	21953
886.275	21865
886.4	21869
886.525	21789
886.65	21831
886.775	21762
886.9	21983
887.025	22154
887.149	21857
887.274	21724
887.399	21694
887.523	21671
887.648	21610
887.773	21637
887.897	21850
888.021	21728
888.146	21633
888.27	21823
888.395	21876
888.519	21766
888.643	21778
888.767	21728
888.891	21644
889.015	21450
889.139	21603
889.263	21568
889.387	21660
889.511	21717
889.635	21766
889.759	21462
889.883	21466
890.006	21538
890.13	21618
890.254	21507
890.377	21450
890.501	21241
890.624	21108
890.748	21260
890.871	21089
890.995	21081
891.118	21100
891.241	21192
891.364	21150
891.488	21165
891.611	21100
891.734	21169
891.857	21100
891.98	21207
892.103	21157
892.226	21138
892.349	21043
892.471	20883
892.594	20921
892.717	20990
892.839	21005
892.962	20933
893.085	20921
893.207	20918
893.33	20735
893.452	20838
893.575	20998
893.697	20891
893.819	21108
893.941	21081
894.064	21085
894.186	20826
894.308	20838
894.43	20952
894.552	20986
894.674	21043
894.796	20777
894.918	21039
895.04	20994
895.161	21013
895.283	20960
895.405	20910
895.526	20838
895.648	20800
895.769	20914
895.891	20891
896.012	20994
896.134	20944
896.255	20864
896.376	20937
896.498	20956
896.619	20819
896.74	20849
896.861	20982
896.982	21283
897.103	21340
897.224	21222
897.345	21093
897.466	21096
897.587	21077
897.708	21138
897.828	21222
897.949	20975
898.07	20967
898.19	21043
898.311	21252
898.431	21218
898.552	21157
898.672	21260
898.792	21207
898.913	21135
899.033	20986
899.153	20952
899.273	20944
899.393	20815
899.513	20914
899.633	20891
899.753	20842
899.873	20872
899.993	20891
900.113	20765
900.232	20910
900.352	20788
900.472	20648
900.591	20549
900.711	20743
900.83	20606
900.95	20781
901.069	20765
901.189	20442
901.308	20301
901.427	20271
901.546	20286
901.665	20263
901.784	20267
901.904	20096
902.023	19951
902.141	19765
902.26	19795
902.379	19788
902.498	19750
902.617	19696
902.735	19811
902.854	19712
902.973	19552
903.091	19422
903.21	19411
903.328	19384
903.446	19263
903.565	19091
903.683	19206
903.801	19072
903.919	19187
904.038	19137
904.156	18939
904.274	19023
904.392	18859
904.51	18882
904.627	18810
904.745	18943
904.863	18897
904.981	18730
905.098	18532
905.216	18665
905.334	18616
905.451	18734
905.569	18528
905.686	18627
905.803	18627
905.921	18330
906.038	18578
906.155	18429
906.272	18273
906.389	18205
906.506	18038
906.623	18117
906.74	18068
906.857	17988
906.974	18011
907.091	18155
907.208	18163
907.324	18201
907.441	17992
907.557	17882
907.674	17767
907.79	17813
907.907	17786
908.023	17745
908.139	17874
908.256	17786
908.372	17779
908.488	17779
908.604	17592
908.72	17581
908.836	17547
908.952	17562
909.068	17516
909.184	17627
909.3	17459
909.415	17627
909.531	17554
909.647	17318
909.762	17246
909.878	17155
909.993	17318
910.108	17151
910.224	17269
910.339	17174
910.454	17193
910.57	17071
910.685	16927
910.8	17277
910.915	17151
911.03	16972
911.145	16858
911.259	16805
911.374	16892
911.489	16702
911.604	16672
911.718	16538
911.833	16611
911.947	16440
912.062	16337
912.176	16561
912.291	16634
912.405	16573
912.519	16733
912.633	16687
912.748	16489
912.862	16565
912.976	16432
913.09	16284
913.204	16344
913.318	16390
913.431	16542
913.545	16306
913.659	16569
913.772	16295
913.886	16181
914	16200
914.113	16242
914.226	16253
914.34	16280
914.453	16086
914.566	16226
914.68	16074
914.793	15930
914.906	15873
915.019	15800
915.132	15778
915.245	15759
915.358	15800
915.47	15774
915.583	15838
915.696	15823
915.809	15861
915.921	15922
916.034	15652
916.146	15622
916.259	15625
916.371	15739
916.483	15736
916.595	15542
916.708	15572
916.82	15633
916.932	15485
917.044	15485
917.156	15389
917.268	15450
917.38	15469
917.491	15351
917.603	15450
917.715	15435
917.826	15500
917.938	15428
918.049	15264
918.161	15374
918.272	15507
918.384	15519
918.495	15294
918.606	15108
918.717	15108
918.828	15135
918.939	15142
919.05	15047
919.161	15089
919.272	14925
919.383	15017
919.494	15211
919.604	15405
919.715	15104
919.826	15013
919.936	15043
920.047	15146
920.157	15058
920.267	15321
920.378	15055
920.488	15024
920.598	15226
920.708	15428
920.818	15173
920.928	15260
921.038	15287
921.148	15367
921.258	15017
921.368	14956
921.477	14792
921.587	14906
921.697	14689
921.806	14849
921.916	14636
922.025	14454
922.134	14381
922.244	14434
922.353	14469
922.462	14324
922.571	14206
922.68	14115
922.789	14069
922.898	14115
923.007	14119
923.116	14077
923.224	14073
923.333	14065
923.442	14005
923.55	13936
923.659	13928
923.767	14043
923.876	13864
923.984	13894
924.092	13860
924.201	13769
924.309	13887
924.417	13780
924.525	13666
924.633	13746
924.741	14450
924.849	13556
924.956	13563
925.064	13578
925.172	13468
925.279	13438
925.387	13529
925.494	13407
925.602	13613
925.709	13400
925.816	13430
925.924	13350
926.031	13552
926.138	13346
926.245	13415
926.352	13327
926.459	13468
926.566	13468
926.673	13301
926.779	13236
926.886	13221
926.993	13133
927.099	12958
927.206	12962
927.312	12993
927.419	13050
927.525	13019
927.631	12985
927.737	12890
927.843	12871
927.95	12722
928.056	12692
928.162	12783
928.267	12829
928.373	13373
928.479	12848
928.585	12692
928.69	12802
928.796	12817
928.901	12684
929.007	12620
929.112	12734
929.218	12658
929.323	12506
929.428	12528
929.533	12532
929.638	12448
929.743	12540
929.848	12426
929.953	12555
930.058	12441
930.163	12190
930.267	12205
930.372	12308
930.477	12152
930.581	12384
930.685	12258
930.79	12125
930.894	12144
930.998	12091
931.103	12155
931.207	11866
931.311	11775
931.415	11600
931.519	11524
931.623	11417
