Data from test_V78500241_3729.txt Node
Date: Fri Mar 25 16:07:38 CST 2022
User: usil
Spectrometer: V785-0024
Trigger mode: 0
Integration Time (sec): 4.000000E-1
Scans to average: 1
Nonlinearity correction enabled: false
Boxcar width: 0
Storing dark spectrum: false
XAxis mode: Wavelengths
Number of Pixels in Spectrum: 1024
>>>>>Begin Spectral Data<<<<<
801.071	28181
801.214	28154
801.356	27869
801.499	27797
801.641	27770
801.783	27873
801.926	27789
802.068	27728
802.211	27789
802.353	27690
802.496	27447
802.638	27492
802.78	27523
802.923	27321
803.065	27268
803.208	27511
803.35	27496
803.492	27637
803.635	27622
803.777	27485
803.919	27663
804.061	28029
804.204	27648
804.346	27625
804.488	27599
804.63	27652
804.773	27618
804.915	27698
805.057	27759
805.199	27663
805.341	27614
805.483	27861
805.626	27812
805.768	27755
805.91	27850
806.052	27979
806.194	27800
806.336	27865
806.478	27831
806.62	27724
806.762	27888
806.904	28116
807.046	28265
807.188	28230
807.33	28154
807.472	28242
807.614	28196
807.756	28177
807.898	28078
808.04	28093
808.182	28013
808.324	28025
808.465	28086
808.607	28413
808.749	28394
808.891	28634
809.033	28634
809.174	28603
809.316	28459
809.458	28401
809.6	28428
809.741	28565
809.883	28584
810.025	28820
810.166	28698
810.308	28702
810.45	28733
810.591	28653
810.733	28561
810.875	28519
811.016	28401
811.158	28386
811.299	28470
811.441	28596
811.582	28592
811.724	28428
811.865	28493
812.007	28466
812.148	28634
812.29	28641
812.431	28607
812.573	28797
812.714	28782
812.855	29018
812.997	29132
813.138	29235
813.279	29151
813.421	29006
813.562	28904
813.703	28786
813.845	28824
813.986	28478
814.127	28287
814.268	28185
814.41	28375
814.551	28188
814.692	28169
814.833	28086
814.974	27979
815.115	28135
815.256	27998
815.397	28188
815.539	27998
815.68	27918
815.821	27899
815.962	27956
816.103	28040
816.244	27914
816.385	27838
816.526	27770
816.666	27629
816.807	27538
816.948	27553
817.089	27564
817.23	27583
817.371	27481
817.512	27625
817.653	27447
817.793	27355
817.934	27477
818.075	27622
818.216	27504
818.356	27523
818.497	27374
818.638	27173
818.778	27252
818.919	27180
819.06	27443
819.2	27336
819.341	27523
819.481	27386
819.622	27694
819.762	27854
819.903	27728
820.043	27622
820.184	27568
820.324	27675
820.465	27462
820.605	27690
820.746	27625
820.886	27447
821.026	27618
821.167	27641
821.307	27553
821.447	27557
821.588	27408
821.728	27306
821.868	27142
822.008	27070
822.149	27081
822.289	27009
822.429	26739
822.569	26705
822.709	26518
822.849	26442
822.99	26560
823.13	26465
823.27	26290
823.41	26309
823.55	26324
823.69	26328
823.83	26419
823.97	26221
824.11	26210
824.25	26149
824.389	26157
824.529	26180
824.669	26168
824.809	26278
824.949	26202
825.089	26119
825.228	26149
825.368	26016
825.508	25921
825.648	26008
825.787	26107
825.927	26012
826.067	25902
826.206	25955
826.346	26035
826.485	26081
826.625	25936
826.765	26149
826.904	26172
827.044	25712
827.183	25807
827.323	25643
827.462	25750
827.601	25818
827.741	25776
827.88	25708
828.02	25742
828.159	25674
828.298	25746
828.437	25746
828.577	25651
828.716	25860
828.855	25628
828.994	25396
829.134	25438
829.273	25472
829.412	25244
829.551	25320
829.69	25362
829.829	25346
829.968	25407
830.107	25464
830.246	25426
830.385	25312
830.524	25240
830.663	25179
830.802	25198
830.941	24962
831.08	24973
831.219	25046
831.357	25015
831.496	25263
831.635	24913
831.774	24920
831.913	24939
832.051	24738
832.19	24806
832.329	24871
832.467	24722
832.606	24665
832.744	24551
832.883	24658
833.022	24753
833.16	24932
833.299	24715
833.437	24673
833.576	24787
833.714	24810
833.852	24791
833.991	24654
834.129	24749
834.267	24795
834.406	24871
834.544	24730
834.682	24802
834.821	24673
834.959	24859
835.097	24673
835.235	24802
835.373	24749
835.511	24642
835.65	24639
835.788	24570
835.926	24604
836.064	24426
836.202	24429
836.34	24593
836.478	24681
836.615	24578
836.753	24498
836.891	24589
837.029	24521
837.167	24494
837.305	24490
837.443	24414
837.58	24475
837.718	24426
837.856	24361
837.993	24502
838.131	24372
838.269	24285
838.406	24235
838.544	24216
838.681	24106
838.819	23992
838.956	23843
839.094	23824
839.231	23874
839.369	24003
839.506	24079
839.643	24239
839.781	23786
839.918	23832
840.055	23745
840.193	23760
840.33	23813
840.467	23783
840.604	23817
840.742	23969
840.879	23672
841.016	23687
841.153	23676
841.29	23798
841.427	23710
841.564	23764
841.701	23748
841.838	23748
841.975	23642
842.112	23733
842.249	23714
842.385	23642
842.522	23783
842.659	23581
842.796	23509
842.933	23554
843.069	23490
843.206	23406
843.343	23619
843.479	23486
843.616	23524
843.752	23322
843.889	23410
844.025	23364
844.162	23296
844.298	23337
844.435	23330
844.571	23227
844.708	23284
844.844	23501
844.98	23436
845.117	23288
845.253	23292
845.389	23117
845.525	23151
845.661	23193
845.798	23121
845.934	23132
846.07	23010
846.206	23090
846.342	23220
846.478	22984
846.614	22968
846.75	22687
846.886	22763
847.022	22831
847.158	22889
847.294	22847
847.429	22733
847.565	22706
847.701	23029
847.837	22470
847.972	22478
848.108	22512
848.244	22706
848.379	22363
848.515	22538
848.65	22421
848.786	22249
848.921	22310
849.057	22489
849.192	22519
849.328	22470
849.463	22207
849.598	22265
849.734	22318
849.869	22223
850.004	22131
850.14	22158
850.275	22150
850.41	22105
850.545	22101
850.68	22135
850.815	22036
850.95	22204
851.085	22527
851.22	22337
851.355	22143
851.49	22162
851.625	22207
851.76	22200
851.895	22158
852.03	22070
852.165	22158
852.299	22246
852.434	22192
852.569	22177
852.703	22124
852.838	22112
852.973	22287
853.107	22219
853.242	22055
853.376	22044
853.511	21869
853.645	21968
853.78	22063
853.914	21937
854.048	21873
854.183	21994
854.317	21937
854.451	22143
854.585	21930
854.72	21888
854.854	22090
854.988	21918
855.122	21979
855.256	21876
855.39	22036
855.524	22055
855.658	22105
855.792	22048
855.926	22067
856.06	22006
856.194	22055
856.327	21918
856.461	21915
856.595	21804
856.729	21869
856.862	22059
856.996	22025
857.13	22048
857.263	21998
857.397	22116
857.53	22025
857.664	22086
857.797	21937
857.931	22124
858.064	22025
858.197	22143
858.331	21964
858.464	21842
858.597	21823
858.731	21793
858.864	21808
858.997	21888
859.13	21991
859.263	21922
859.396	22051
859.529	22044
859.662	21918
859.795	21880
859.928	21991
860.061	21975
860.194	22143
860.327	22112
860.46	22017
860.592	22044
860.725	22082
860.858	22044
860.99	21968
861.123	21922
861.256	21975
861.388	21975
861.521	22580
861.653	21732
861.786	21644
861.918	21831
862.05	21759
862.183	21876
862.315	21888
862.447	21895
862.58	21861
862.712	21599
862.844	21713
862.976	21766
863.108	21713
863.24	22036
863.372	21660
863.504	21709
863.636	21618
863.768	21698
863.9	21694
864.032	21682
864.164	21648
864.296	21686
864.428	21641
864.559	21701
864.691	21671
864.823	21637
864.954	21568
865.086	21625
865.217	21538
865.349	21496
865.48	21583
865.612	21595
865.743	21675
865.875	21549
866.006	21557
866.137	21538
866.269	21466
866.4	21519
866.531	21485
866.662	21462
866.793	21344
866.924	21534
867.055	21530
867.186	21458
867.317	21504
867.448	21530
867.579	21557
867.71	21416
867.841	21424
867.972	21431
868.103	21519
868.233	21496
868.364	21412
868.495	21644
868.625	21690
868.756	21751
868.886	21701
869.017	21701
869.147	21892
869.278	21774
869.408	21831
869.539	21720
869.669	21808
869.799	21774
869.929	21816
870.06	21781
870.19	22055
870.32	22093
870.45	22074
870.58	22082
870.71	22173
870.84	22234
870.97	22097
871.1	22204
871.23	22367
871.36	22382
871.489	22219
871.619	22234
871.749	22291
871.879	22325
872.008	22478
872.138	22318
872.267	22333
872.397	22295
872.526	22067
872.656	22261
872.785	22109
872.915	22405
873.044	22447
873.173	22299
873.303	22379
873.432	22432
873.561	22561
873.69	22360
873.819	22367
873.948	22405
874.077	22344
874.206	22234
874.335	22379
874.464	22550
874.593	22428
874.722	22516
874.851	22683
874.979	22637
875.108	22618
875.237	22592
875.365	22451
875.494	22580
875.623	22592
875.751	22603
875.88	22672
876.008	22687
876.136	22698
876.265	22930
876.393	23064
876.521	23098
876.65	23079
876.778	22980
876.906	23014
877.034	22961
877.162	23044
877.29	22911
877.418	22961
877.546	22946
877.674	22919
877.802	22965
877.93	22869
878.058	22869
878.185	22873
878.313	22896
878.441	22843
878.568	22664
878.696	22866
878.824	22957
878.951	23083
879.079	23147
879.206	23132
879.333	23025
879.461	23018
879.588	23056
879.715	23018
879.842	23242
879.97	23010
880.097	22763
880.224	22706
880.351	22687
880.478	22721
880.605	22748
880.732	22797
880.859	22908
880.986	22782
881.112	22816
881.239	22599
881.366	22470
881.493	22535
881.619	22272
881.746	22268
881.872	22348
881.999	22287
882.125	22257
882.252	22329
882.378	22253
882.505	22314
882.631	22215
882.757	22131
882.883	21953
883.01	22010
883.136	21949
883.262	21892
883.388	21930
883.514	21975
883.64	21991
883.766	21892
883.892	21690
884.018	21667
884.143	22074
884.269	21941
884.395	21797
884.52	21648
884.646	21660
884.772	21492
884.897	21534
885.023	21656
885.148	21770
885.274	21686
885.399	21720
885.524	21747
885.65	21564
885.775	21568
885.9	21675
886.025	21732
886.15	21523
886.275	21492
886.4	21481
886.525	21561
886.65	21424
886.775	21458
886.9	21690
887.025	21835
887.149	21545
887.274	21469
887.399	21412
887.523	21382
887.648	21252
887.773	21176
887.897	21454
888.021	21526
888.146	21294
888.27	21332
888.395	21469
888.519	21443
888.643	21302
888.767	21370
888.891	21336
889.015	21233
889.139	21165
889.263	21173
889.387	21310
889.511	21325
889.635	21249
889.759	21157
889.883	21062
890.006	21268
890.13	21256
890.254	21001
890.377	21066
890.501	20861
890.624	20864
890.748	21009
890.871	20952
890.995	20823
891.118	20762
891.241	20739
891.364	20716
891.488	20823
891.611	20743
891.734	20678
891.857	20716
891.98	20693
892.103	20785
892.226	20773
892.349	20640
892.471	20488
892.594	20693
892.717	20811
892.839	20545
892.962	20571
893.085	20575
893.207	20678
893.33	20438
893.452	20423
893.575	20716
893.697	20537
893.819	20792
893.941	20887
894.064	20777
894.186	20507
894.308	20465
894.43	20712
894.552	20788
894.674	20686
894.796	20526
894.918	20632
895.04	20552
895.161	20636
895.283	20655
895.405	20526
895.526	20636
895.648	20640
895.769	20640
895.891	20579
896.012	20720
896.134	20629
896.255	20617
896.376	20533
896.498	20655
896.619	20693
896.74	20712
896.861	20606
896.982	20807
897.103	21024
897.224	20883
897.345	20872
897.466	20967
897.587	20792
897.708	20899
897.828	20906
897.949	20845
898.07	20826
898.19	20857
898.311	20944
898.431	20838
898.552	20857
898.672	20914
898.792	20982
898.913	20804
899.033	20682
899.153	20708
899.273	20613
899.393	20575
899.513	20651
899.633	20621
899.753	20682
899.873	20480
899.993	20735
900.113	20617
900.232	20476
900.352	20412
900.472	20393
900.591	20324
900.711	20347
900.83	20252
900.95	20473
901.069	20393
901.189	20240
901.308	20043
901.427	19928
901.546	19898
901.665	19963
901.784	19913
901.904	19837
902.023	19719
902.141	19540
902.26	19525
902.379	19537
902.498	19514
902.617	19434
902.735	19381
902.854	19331
902.973	19266
903.091	19118
903.21	19107
903.328	19069
903.446	18966
903.565	19004
903.683	18817
903.801	18837
903.919	18837
904.038	18821
904.156	18677
904.274	18738
904.392	18669
904.51	18654
904.627	18608
904.745	18700
904.863	18684
904.981	18342
905.098	18308
905.216	18285
905.334	18342
905.451	18353
905.569	18289
905.686	18330
905.803	18289
905.921	18087
906.038	18167
906.155	18201
906.272	18148
906.389	18022
906.506	17927
906.623	17908
906.74	17821
906.857	17775
906.974	17832
907.091	17912
907.208	18007
907.324	17969
907.441	17649
907.557	17665
907.674	17497
907.79	17467
907.907	17482
908.023	17558
908.139	17627
908.256	17516
908.372	17429
908.488	17497
908.604	17353
908.72	17326
908.836	17311
908.952	17299
909.068	17334
909.184	17334
909.3	17242
909.415	17383
909.531	17204
909.647	17029
909.762	17018
909.878	16858
909.993	17041
910.108	16980
910.224	16847
910.339	17006
910.454	16835
910.57	16778
910.685	16831
910.8	16991
910.915	16881
911.03	16748
911.145	16653
911.259	16493
911.374	16603
911.489	16519
911.604	16481
911.718	16344
911.833	16318
911.947	16299
912.062	16215
912.176	16333
912.291	16272
912.405	16291
912.519	16565
912.633	16546
912.748	16280
912.862	16409
912.976	16090
913.09	16063
913.204	16090
913.318	16044
913.431	16276
913.545	16207
913.659	16219
913.772	16025
913.886	15880
914	15960
914.113	16036
914.226	16162
914.34	16025
914.453	15808
914.566	15972
914.68	15785
914.793	15800
914.906	15587
915.019	15477
915.132	15428
915.245	15401
915.358	15595
915.47	15572
915.583	15542
915.696	15454
915.809	15542
915.921	15675
916.034	15447
916.146	15329
916.259	15450
916.371	15450
916.483	15454
916.595	15416
916.708	15359
916.82	15367
916.932	15279
917.044	15268
917.156	15176
917.268	15176
917.38	15169
917.491	15157
917.603	15184
917.715	15317
917.826	15393
917.938	15222
918.049	15043
918.161	15074
918.272	15298
918.384	15218
918.495	15081
918.606	14921
918.717	14785
918.828	14861
918.939	14918
919.05	14807
919.161	14921
919.272	14686
919.383	14773
919.494	14933
919.604	15032
919.715	14914
919.826	14777
919.936	14834
920.047	14876
920.157	14807
920.267	15032
920.378	14845
920.488	14895
920.598	15036
920.708	15157
920.818	14952
920.928	14967
921.038	15173
921.148	15112
921.258	14765
921.368	14746
921.477	14629
921.587	14530
921.697	14427
921.806	14575
921.916	14473
922.025	14214
922.134	14199
922.244	14233
922.353	14301
922.462	14016
922.571	14077
922.68	13868
922.789	13856
922.898	13902
923.007	13894
923.116	13879
923.224	13871
923.333	13803
923.442	13727
923.55	13742
923.659	13765
923.767	13731
923.876	13651
923.984	13769
924.092	13636
924.201	13651
924.309	13586
924.417	13605
924.525	13624
924.633	13537
924.741	14374
924.849	13346
924.956	13453
925.064	13346
925.172	13289
925.279	13194
925.387	13327
925.494	13263
925.602	13403
925.709	13270
925.816	13190
925.924	13240
926.031	13331
926.138	13152
926.245	13270
926.352	13133
926.459	13278
926.566	13350
926.673	13133
926.779	13122
926.886	13137
926.993	12928
927.099	12875
927.206	12875
927.312	12764
927.419	12867
927.525	12768
927.631	12875
927.737	12692
927.843	12627
927.95	12608
928.056	12525
928.162	12570
928.267	12741
928.373	13240
928.479	12760
928.585	12544
928.69	12593
928.796	12722
928.901	12437
929.007	12346
929.112	12570
929.218	12433
929.323	12350
929.428	12251
929.533	12506
929.638	12228
929.743	12319
929.848	12308
929.953	12304
930.058	12117
930.163	12049
930.267	12060
930.372	12205
930.477	11992
930.581	12289
930.685	12041
930.79	11897
930.894	11874
930.998	11878
931.103	11977
931.207	11615
931.311	11589
931.415	11455
931.519	11280
931.623	11250
