Data from test_V78500241_300.txt Node
Date: Fri Mar 25 15:43:52 CST 2022
User: usil
Spectrometer: V785-0024
Trigger mode: 0
Integration Time (sec): 4.000000E-1
Scans to average: 1
Nonlinearity correction enabled: false
Boxcar width: 0
Storing dark spectrum: false
XAxis mode: Wavelengths
Number of Pixels in Spectrum: 1024
>>>>>Begin Spectral Data<<<<<
801.071	29052
801.214	29117
801.356	28786
801.499	28835
801.641	28702
801.783	28748
801.926	28820
802.068	28679
802.211	28478
802.353	28596
802.496	28314
802.638	28413
802.78	28215
802.923	28265
803.065	28356
803.208	28440
803.35	28341
803.492	28424
803.635	28668
803.777	28401
803.919	28622
804.061	28862
804.204	28386
804.346	28440
804.488	28390
804.63	28512
804.773	28382
804.915	28409
805.057	28634
805.199	28618
805.341	28557
805.483	28462
805.626	28580
805.768	28493
805.91	28508
806.052	28596
806.194	28504
806.336	28778
806.478	28588
806.62	28455
806.762	28729
806.904	28888
807.046	29254
807.188	28976
807.33	29147
807.472	29121
807.614	28877
807.756	29022
807.898	28687
808.04	28881
808.182	28824
808.324	28782
808.465	28801
808.607	29098
808.749	28991
808.891	29284
809.033	29421
809.174	29337
809.316	29315
809.458	29235
809.6	29204
809.741	29254
809.883	29200
810.025	29452
810.166	29467
810.308	29372
810.45	29459
810.591	29353
810.733	29261
810.875	29200
811.016	29079
811.158	29124
811.299	29356
811.441	29307
811.582	29242
811.724	29083
811.865	29117
812.007	29075
812.148	29117
812.29	29322
812.431	29406
812.573	29467
812.714	29585
812.855	29653
812.997	29764
813.138	29885
813.279	29836
813.421	29779
813.562	29707
813.703	29486
813.845	29364
813.986	29052
814.127	28911
814.268	28759
814.41	28805
814.551	28843
814.692	28892
814.833	28733
814.974	28710
815.115	28812
815.256	28656
815.397	28687
815.539	28850
815.68	28615
815.821	28577
815.962	28729
816.103	28550
816.244	28405
816.385	28413
816.526	28363
816.666	28219
816.807	28230
816.948	28162
817.089	28181
817.23	28158
817.371	28147
817.512	28093
817.653	27994
817.793	27972
817.934	27991
818.075	27991
818.216	27983
818.356	27922
818.497	27884
818.638	27739
818.778	27656
818.919	27656
819.06	27739
819.2	27884
819.341	27987
819.481	28086
819.622	28166
819.762	28234
819.903	28166
820.043	28272
820.184	28029
820.324	28059
820.465	28105
820.605	28128
820.746	28093
820.886	27960
821.026	28131
821.167	28032
821.307	28112
821.447	27922
821.588	27903
821.728	27804
821.868	27587
822.008	27564
822.149	27500
822.289	27447
822.429	27275
822.569	27165
822.709	27123
822.849	27005
822.99	26887
823.13	26823
823.27	26838
823.41	26682
823.55	26530
823.69	26670
823.83	26609
823.97	26823
824.11	26533
824.25	26495
824.389	26552
824.529	26564
824.669	26488
824.809	26659
824.949	26625
825.089	26560
825.228	26541
825.368	26431
825.508	26282
825.648	26286
825.787	26495
825.927	26469
826.067	26366
826.206	26389
826.346	26533
826.485	26336
826.625	26309
826.765	26450
826.904	26434
827.044	26145
827.183	26164
827.323	26035
827.462	26103
827.601	26138
827.741	26130
827.88	26058
828.02	25921
828.159	26024
828.298	26168
828.437	26115
828.577	25906
828.716	26221
828.855	25940
828.994	25788
829.134	25704
829.273	25879
829.412	25685
829.551	25613
829.69	25723
829.829	25738
829.968	25776
830.107	25715
830.246	25780
830.385	25696
830.524	25723
830.663	25449
830.802	25419
830.941	25346
831.08	25343
831.219	25438
831.357	25282
831.496	25548
831.635	25308
831.774	25194
831.913	25148
832.051	25065
832.19	25103
832.329	25080
832.467	24973
832.606	24989
832.744	24920
832.883	24878
833.022	25000
833.16	24958
833.299	24924
833.437	25046
833.576	24970
833.714	24935
833.852	25027
833.991	25110
834.129	25000
834.267	25076
834.406	24859
834.544	25004
834.682	25046
834.821	24939
834.959	25072
835.097	24970
835.235	24970
835.373	24943
835.511	24897
835.65	25008
835.788	24890
835.926	24684
836.064	24715
836.202	24635
836.34	24806
836.478	24901
836.615	24859
836.753	24913
836.891	24905
837.029	24817
837.167	24684
837.305	24711
837.443	24623
837.58	24623
837.718	24646
837.856	24779
837.993	24589
838.131	24566
838.269	24437
838.406	24422
838.544	24429
838.681	24334
838.819	24300
838.956	23980
839.094	24076
839.231	24110
839.369	24159
839.506	24502
839.643	24300
839.781	24007
839.918	23950
840.055	23965
840.193	23996
840.33	23977
840.467	24030
840.604	23977
840.742	24315
840.879	23855
841.016	23813
841.153	23843
841.29	24038
841.427	23927
841.564	23897
841.701	23821
841.838	23912
841.975	23710
842.112	23897
842.249	23805
842.385	23710
842.522	23851
842.659	23722
842.796	23642
842.933	23604
843.069	23630
843.206	23440
843.343	23653
843.479	23562
843.616	23573
843.752	23318
843.889	23406
844.025	23566
844.162	23395
844.298	23433
844.435	23436
844.571	23360
844.708	23311
844.844	23490
844.98	23531
845.117	23570
845.253	23372
845.389	23269
845.525	23284
845.661	23223
845.798	23060
845.934	23113
846.07	23037
846.206	23151
846.342	23208
846.478	23018
846.614	22873
846.75	22763
846.886	22721
847.022	22904
847.158	22835
847.294	22767
847.429	22805
847.565	22729
847.701	23143
847.837	22554
847.972	22481
848.108	22565
848.244	22584
848.379	22386
848.515	22440
848.65	22382
848.786	22417
848.921	22443
849.057	22538
849.192	22538
849.328	22538
849.463	22382
849.598	22268
849.734	22329
849.869	22360
850.004	22032
850.14	22051
850.275	22109
850.41	21998
850.545	22166
850.68	22112
850.815	22051
850.95	22036
851.085	22211
851.22	22196
851.355	22139
851.49	22150
851.625	22067
851.76	22051
851.895	21968
852.03	22013
852.165	22093
852.299	22093
852.434	22139
852.569	22150
852.703	22135
852.838	22082
852.973	22234
853.107	22246
853.242	22063
853.376	21850
853.511	21857
853.645	21850
853.78	22006
853.914	22025
854.048	21698
854.183	21869
854.317	21953
854.451	22032
854.585	21998
854.72	21846
854.854	21960
854.988	21766
855.122	21846
855.256	21800
855.39	21922
855.524	22013
855.658	21956
855.792	22029
855.926	21922
856.06	21857
856.194	21964
856.327	21922
856.461	21846
856.595	21869
856.729	21857
856.862	22032
856.996	21926
857.13	21873
857.263	22059
857.397	21953
857.53	21895
857.664	21804
857.797	21956
857.931	22006
858.064	22036
858.197	21956
858.331	21956
858.464	21739
858.597	21846
858.731	21804
858.864	21899
858.997	21770
859.13	21793
859.263	21846
859.396	22021
859.529	21812
859.662	21804
859.795	21724
859.928	21854
860.061	22029
860.194	22059
860.327	21975
860.46	21934
860.592	21949
860.725	21934
860.858	21998
860.99	21812
861.123	21835
861.256	21774
861.388	21899
861.521	22497
861.653	21835
861.786	21694
861.918	21709
862.05	21895
862.183	21785
862.315	21945
862.447	21926
862.58	21865
862.712	21610
862.844	21625
862.976	21614
863.108	21675
863.24	21861
863.372	21504
863.504	21606
863.636	21492
863.768	21526
863.9	21557
864.032	21515
864.164	21538
864.296	21682
864.428	21656
864.559	21599
864.691	21667
864.823	21534
864.954	21545
865.086	21564
865.217	21564
865.349	21523
865.48	21504
865.612	21443
865.743	21534
865.875	21389
866.006	21344
866.137	21485
866.269	21450
866.4	21408
866.531	21344
866.662	21382
866.793	21325
866.924	21325
867.055	21428
867.186	21245
867.317	21386
867.448	21203
867.579	21275
867.71	21237
867.841	21237
867.972	21249
868.103	21272
868.233	21367
868.364	21397
868.495	21637
868.625	21572
868.756	21641
868.886	21481
869.017	21641
869.147	21583
869.278	21652
869.408	21534
869.539	21549
869.669	21591
869.799	21485
869.929	21717
870.06	21686
870.19	21819
870.32	21816
870.45	21987
870.58	21998
870.71	22128
870.84	22074
870.97	21934
871.1	21998
871.23	22074
871.36	22090
871.489	22063
871.619	22055
871.749	22120
871.879	22223
872.008	22382
872.138	22185
872.267	22059
872.397	22006
872.526	22036
872.656	22029
872.785	21979
872.915	22253
873.044	22284
873.173	22211
873.303	22276
873.432	22413
873.561	22299
873.69	22272
873.819	22333
873.948	22223
874.077	22154
874.206	22086
874.335	22291
874.464	22394
874.593	22485
874.722	22367
874.851	22443
874.979	22554
875.108	22672
875.237	22333
875.365	22436
875.494	22413
875.623	22557
875.751	22428
875.88	22527
876.008	22584
876.136	22538
876.265	22839
876.393	22946
876.521	22927
876.65	22831
876.778	22835
876.906	22801
877.034	22767
877.162	22824
877.29	22767
877.418	22786
877.546	22733
877.674	22816
877.802	22862
877.93	22706
878.058	22725
878.185	22656
878.313	22778
878.441	22805
878.568	22618
878.696	22721
878.824	22778
878.951	22820
879.079	22923
879.206	23060
879.333	22968
879.461	22809
879.588	22835
879.715	22949
879.842	22965
879.97	22752
880.097	22649
880.224	22637
880.351	22622
880.478	22596
880.605	22554
880.732	22637
880.859	22839
880.986	22645
881.112	22740
881.239	22436
881.366	22394
881.493	22284
881.619	22230
881.746	22310
881.872	22196
881.999	22078
882.125	22048
882.252	22249
882.378	22215
882.505	22207
882.631	22029
882.757	21911
882.883	21983
883.01	21850
883.136	21762
883.262	21808
883.388	21656
883.514	21991
883.64	21979
883.766	21679
883.892	21641
884.018	21625
884.143	21800
884.269	21899
884.395	21603
884.52	21485
884.646	21530
884.772	21416
884.897	21458
885.023	21469
885.148	21549
885.274	21618
885.399	21534
885.524	21450
885.65	21553
885.775	21568
885.9	21553
886.025	21572
886.15	21534
886.275	21507
886.4	21458
886.525	21481
886.65	21374
886.775	21439
886.9	21641
887.025	21698
887.149	21393
887.274	21272
887.399	21199
887.523	21184
887.648	21192
887.773	21256
887.897	21230
888.021	21249
888.146	21272
888.27	21382
888.395	21268
888.519	21287
888.643	21336
888.767	21275
888.891	21070
889.015	21165
889.139	21043
889.263	20963
889.387	21043
889.511	21214
889.635	21108
889.759	21009
889.883	20979
890.006	20944
890.13	21211
890.254	21032
890.377	20857
890.501	20739
890.624	20705
890.748	20781
890.871	20785
890.995	20632
891.118	20552
891.241	20670
891.364	20602
891.488	20697
891.611	20552
891.734	20545
891.857	20678
891.98	20537
892.103	20697
892.226	20492
892.349	20659
892.471	20503
892.594	20488
892.717	20583
892.839	20427
892.962	20431
893.085	20484
893.207	20423
893.33	20362
893.452	20343
893.575	20670
893.697	20461
893.819	20648
893.941	20697
894.064	20640
894.186	20503
894.308	20396
894.43	20564
894.552	20575
894.674	20545
894.796	20355
894.918	20423
895.04	20431
895.161	20530
895.283	20476
895.405	20362
895.526	20503
895.648	20389
895.769	20560
895.891	20545
896.012	20590
896.134	20556
896.255	20511
896.376	20469
896.498	20514
896.619	20511
896.74	20476
896.861	20556
896.982	20933
897.103	20967
897.224	20838
897.345	20689
897.466	20712
897.587	20743
897.708	20975
897.828	20785
897.949	20731
898.07	20564
898.19	20575
898.311	20731
898.431	20689
898.552	20712
898.672	20716
898.792	20651
898.913	20697
899.033	20587
899.153	20533
899.273	20377
899.393	20511
899.513	20381
899.633	20343
899.753	20389
899.873	20313
899.993	20450
900.113	20313
900.232	20400
900.352	20347
900.472	20240
900.591	20164
900.711	20172
900.83	20103
900.95	20351
901.069	20267
901.189	20050
901.308	19883
901.427	19814
901.546	19822
901.665	19799
901.784	19830
901.904	19765
902.023	19495
902.141	19240
902.26	19308
902.379	19358
902.498	19312
902.617	19110
902.735	19362
902.854	19228
902.973	19251
903.091	18947
903.21	18981
903.328	18958
903.446	18924
903.565	18833
903.683	18741
903.801	18700
903.919	18593
904.038	18681
904.156	18464
904.274	18608
904.392	18532
904.51	18509
904.627	18410
904.745	18513
904.863	18414
904.981	18311
905.098	18224
905.216	18129
905.334	18205
905.451	18190
905.569	18091
905.686	18155
905.803	18091
905.921	17874
906.038	18007
906.155	17923
906.272	17874
906.389	17798
906.506	17703
906.623	17764
906.74	17638
906.857	17577
906.974	17505
907.091	17623
907.208	17718
907.324	17627
907.441	17589
907.557	17429
907.674	17455
907.79	17356
907.907	17376
908.023	17459
908.139	17322
908.256	17235
908.372	17277
908.488	17246
908.604	17170
908.72	16965
908.836	17200
908.952	17006
909.068	17064
909.184	17197
909.3	16915
909.415	17143
909.531	17025
909.647	16805
909.762	16801
909.878	16801
909.993	16889
910.108	16660
910.224	16687
910.339	16611
910.454	16630
910.57	16653
910.685	16516
910.8	16771
910.915	16759
911.03	16611
911.145	16413
911.259	16371
911.374	16261
911.489	16223
911.604	16185
911.718	16120
911.833	16071
911.947	16059
912.062	15949
912.176	16128
912.291	16154
912.405	16169
912.519	16314
912.633	16280
912.748	16109
912.862	16055
912.976	15865
913.09	15869
913.204	15789
913.318	15827
913.431	15998
913.545	15960
913.659	15937
913.772	15903
913.886	15781
914	15694
914.113	15770
914.226	15778
914.34	15705
914.453	15599
914.566	15720
914.68	15599
914.793	15542
914.906	15428
915.019	15359
915.132	15306
915.245	15245
915.358	15374
915.47	15340
915.583	15272
915.696	15222
915.809	15370
915.921	15511
916.034	15207
916.146	15203
916.259	15081
916.371	15135
916.483	15131
916.595	15123
916.708	15131
916.82	15047
916.932	15154
917.044	15100
917.156	15043
917.268	14952
917.38	14929
917.491	14842
917.603	15032
917.715	14994
917.826	15047
917.938	14891
918.049	14712
918.161	14929
918.272	15051
918.384	14975
918.495	14914
918.606	14762
918.717	14533
918.828	14705
918.939	14682
919.05	14560
919.161	14598
919.272	14415
919.383	14465
919.494	14686
919.604	14857
919.715	14655
919.826	14549
919.936	14648
920.047	14682
920.157	14701
920.267	14689
920.378	14667
920.488	14602
920.598	14758
920.708	14937
920.818	14746
920.928	14758
921.038	14929
921.148	14842
921.258	14617
921.368	14446
921.477	14366
921.587	14332
921.697	14244
921.806	14438
921.916	14263
922.025	14058
922.134	14005
922.244	13909
922.353	13982
922.462	13818
922.571	13833
922.68	13666
922.789	13632
922.898	13636
923.007	13590
923.116	13696
923.224	13601
923.333	13552
923.442	13441
923.55	13453
923.659	13518
923.767	13483
923.876	13377
923.984	13464
924.092	13403
924.201	13320
924.309	13369
924.417	13430
924.525	13297
924.633	13301
924.741	14252
924.849	13118
924.956	13240
925.064	13004
925.172	13038
925.279	12981
925.387	13023
925.494	13038
925.602	13221
925.709	13118
925.816	12886
925.924	12935
926.031	13072
926.138	12973
926.245	12962
926.352	12924
926.459	13023
926.566	13034
926.673	12814
926.779	12741
926.886	12734
926.993	12589
927.099	12711
927.206	12517
927.312	12509
927.419	12665
927.525	12578
927.631	12684
927.737	12486
927.843	12502
927.95	12289
928.056	12384
928.162	12346
928.267	12483
928.373	13072
928.479	12513
928.585	12281
928.69	12323
928.796	12338
928.901	12140
929.007	12117
929.112	12194
929.218	12262
929.323	12213
929.428	12068
929.533	12315
929.638	12087
929.743	12064
929.848	12102
929.953	12091
930.058	11893
930.163	11874
930.267	11847
930.372	11973
930.477	11752
930.581	12030
930.685	11843
930.79	11691
930.894	11699
930.998	11623
931.103	11710
931.207	11440
931.311	11330
931.415	11193
931.519	11105
931.623	10972
