Data from test_V78500241_1375.txt Node
Date: Fri Mar 25 15:51:19 CST 2022
User: usil
Spectrometer: V785-0024
Trigger mode: 0
Integration Time (sec): 4.000000E-1
Scans to average: 1
Nonlinearity correction enabled: false
Boxcar width: 0
Storing dark spectrum: false
XAxis mode: Wavelengths
Number of Pixels in Spectrum: 1024
>>>>>Begin Spectral Data<<<<<
801.071	28257
801.214	28044
801.356	27956
801.499	27835
801.641	27682
801.783	27633
801.926	27759
802.068	27812
802.211	27515
802.353	27606
802.496	27427
802.638	27431
802.78	27256
802.923	27218
803.065	27279
803.208	27348
803.35	27279
803.492	27401
803.635	27557
803.777	27416
803.919	27633
804.061	27892
804.204	27572
804.346	27431
804.488	27408
804.63	27606
804.773	27420
804.915	27610
805.057	27656
805.199	27568
805.341	27690
805.483	27778
805.626	27652
805.768	27580
805.91	27648
806.052	27656
806.194	27622
806.336	27994
806.478	27759
806.62	27770
806.762	27831
806.904	28006
807.046	28242
807.188	28097
807.33	28166
807.472	28177
807.614	28154
807.756	28207
807.898	28006
808.04	27964
808.182	27930
808.324	28021
808.465	28169
808.607	28352
808.749	28306
808.891	28550
809.033	28459
809.174	28386
809.316	28516
809.458	28398
809.6	28459
809.741	28512
809.883	28497
810.025	28710
810.166	28672
810.308	28653
810.45	28755
810.591	28451
810.733	28401
810.875	28428
811.016	28344
811.158	28265
811.299	28478
811.441	28443
811.582	28493
811.724	28478
811.865	28314
812.007	28318
812.148	28409
812.29	28436
812.431	28546
812.573	28672
812.714	28706
812.855	28923
812.997	29117
813.138	29086
813.279	28995
813.421	28911
813.562	28881
813.703	28694
813.845	28706
813.986	28314
814.127	28188
814.268	27998
814.41	28215
814.551	27991
814.692	27998
814.833	28040
814.974	28067
815.115	28173
815.256	27854
815.397	28002
815.539	27934
815.68	27983
815.821	27739
815.962	27968
816.103	27827
816.244	27739
816.385	27728
816.526	27515
816.666	27526
816.807	27401
816.948	27401
817.089	27561
817.23	27523
817.371	27389
817.512	27416
817.653	27272
817.793	27199
817.934	27393
818.075	27466
818.216	27431
818.356	27363
818.497	27252
818.638	27146
818.778	27165
818.919	27252
819.06	27222
819.2	27112
819.341	27355
819.481	27420
819.622	27583
819.762	27701
819.903	27637
820.043	27564
820.184	27481
820.324	27435
820.465	27606
820.605	27355
820.746	27504
820.886	27332
821.026	27469
821.167	27447
821.307	27595
821.447	27340
821.588	27313
821.728	27192
821.868	26899
822.008	26872
822.149	26868
822.289	26906
822.429	26636
822.569	26609
822.709	26549
822.849	26453
822.99	26343
823.13	26507
823.27	26290
823.41	26134
823.55	26183
823.69	26278
823.83	26301
823.97	26134
824.11	25993
824.25	25970
824.389	25993
824.529	26001
824.669	26050
824.809	26062
824.949	26024
825.089	26233
825.228	26016
825.368	25746
825.508	25837
825.648	25769
825.787	25830
825.927	25883
826.067	25932
826.206	25909
826.346	25898
826.485	25845
826.625	25837
826.765	26020
826.904	25890
827.044	25597
827.183	25795
827.323	25472
827.462	25655
827.601	25605
827.741	25643
827.88	25552
828.02	25559
828.159	25495
828.298	25685
828.437	25601
828.577	25605
828.716	25704
828.855	25525
828.994	25194
829.134	25266
829.273	25411
829.412	25209
829.551	25270
829.69	25445
829.829	25331
829.968	25362
830.107	25392
830.246	25206
830.385	25247
830.524	25247
830.663	25076
830.802	24867
830.941	24783
831.08	24840
831.219	24924
831.357	24886
831.496	25145
831.635	24875
831.774	24897
831.913	24768
832.051	24665
832.19	24749
832.329	24658
832.467	24490
832.606	24464
832.744	24544
832.883	24589
833.022	24471
833.16	24578
833.299	24631
833.437	24642
833.576	24631
833.714	24673
833.852	24646
833.991	24623
834.129	24757
834.267	24620
834.406	24639
834.544	24669
834.682	24616
834.821	24604
834.959	24658
835.097	24547
835.235	24696
835.373	24536
835.511	24597
835.65	24505
835.788	24475
835.926	24186
836.064	24300
836.202	24338
836.34	24513
836.478	24441
836.615	24338
836.753	24505
836.891	24517
837.029	24365
837.167	24426
837.305	24391
837.443	24361
837.58	24289
837.718	24369
837.856	24384
837.993	24247
838.131	24277
838.269	24083
838.406	24083
838.544	24057
838.681	23809
838.819	23973
838.956	23745
839.094	23649
839.231	23908
839.369	23950
839.506	24182
839.643	23942
839.781	23680
839.918	23668
840.055	23733
840.193	23722
840.33	23760
840.467	23608
840.604	23737
840.742	23916
840.879	23364
841.016	23634
841.153	23577
841.29	23710
841.427	23604
841.564	23695
841.701	23505
841.838	23585
841.975	23425
842.112	23421
842.249	23474
842.385	23463
842.522	23687
842.659	23455
842.796	23395
842.933	23398
843.069	23414
843.206	23292
843.343	23421
843.479	23417
843.616	23356
843.752	23189
843.889	23242
844.025	23360
844.162	23159
844.298	23235
844.435	23105
844.571	23041
844.708	23132
844.844	23273
844.98	23334
845.117	23353
845.253	22999
845.389	23086
845.525	23044
845.661	22927
845.798	22919
845.934	22980
846.07	22881
846.206	22930
846.342	23067
846.478	22942
846.614	22592
846.75	22641
846.886	22698
847.022	22759
847.158	22668
847.294	22660
847.429	22618
847.565	22626
847.701	22927
847.837	22386
847.972	22344
848.108	22318
848.244	22573
848.379	22310
848.515	22257
848.65	22109
848.786	22261
848.921	22284
849.057	22333
849.192	22322
849.328	22169
849.463	22352
849.598	22120
849.734	22192
849.869	22078
850.004	21964
850.14	22082
850.275	22112
850.41	21991
850.545	21956
850.68	21956
850.815	21941
850.95	22006
851.085	22253
851.22	22070
851.355	21979
851.49	21922
851.625	21998
851.76	21899
851.895	21972
852.03	21899
852.165	21899
852.299	22021
852.434	22040
852.569	22010
852.703	21994
852.838	22063
852.973	22169
853.107	22128
853.242	21987
853.376	21800
853.511	21660
853.645	21800
853.78	21960
853.914	21903
854.048	21774
854.183	21842
854.317	21785
854.451	21994
854.585	21739
854.72	21759
854.854	21945
854.988	21717
855.122	21778
855.256	21701
855.39	21838
855.524	21911
855.658	21880
855.792	21793
855.926	21724
856.06	21873
856.194	21907
856.327	21797
856.461	21759
856.595	21857
856.729	21850
856.862	21956
856.996	21812
857.13	21899
857.263	21972
857.397	21907
857.53	21880
857.664	21873
857.797	21861
857.931	21850
858.064	21800
858.197	21907
858.331	21846
858.464	21918
858.597	21679
858.731	21797
858.864	21831
858.997	21823
859.13	21766
859.263	21709
859.396	21899
859.529	21869
859.662	21827
859.795	21781
859.928	21865
860.061	21972
860.194	22093
860.327	21785
860.46	21857
860.592	21857
860.725	22078
860.858	21975
860.99	21888
861.123	21648
861.256	21747
861.388	21816
861.521	22592
861.653	21713
861.786	21561
861.918	21686
862.05	21648
862.183	21846
862.315	21728
862.447	21831
862.58	21743
862.712	21469
862.844	21530
862.976	21633
863.108	21705
863.24	21975
863.372	21473
863.504	21469
863.636	21583
863.768	21564
863.9	21485
864.032	21340
864.164	21393
864.296	21652
864.428	21675
864.559	21591
864.691	21610
864.823	21458
864.954	21545
865.086	21466
865.217	21401
865.349	21275
865.48	21348
865.612	21424
865.743	21553
865.875	21439
866.006	21473
866.137	21386
866.269	21477
866.4	21416
866.531	21367
866.662	21397
866.793	21382
866.924	21370
867.055	21256
867.186	21492
867.317	21351
867.448	21405
867.579	21351
867.71	21336
867.841	21393
867.972	21340
868.103	21340
868.233	21321
868.364	21340
868.495	21439
868.625	21599
868.756	21629
868.886	21610
869.017	21492
869.147	21667
869.278	21656
869.408	21713
869.539	21568
869.669	21572
869.799	21709
869.929	21720
870.06	21679
870.19	21884
870.32	21983
870.45	21972
870.58	21968
870.71	22029
870.84	22036
870.97	21930
871.1	22017
871.23	22139
871.36	22135
871.489	22211
871.619	22124
871.749	22188
871.879	22234
872.008	22223
872.138	22120
872.267	22105
872.397	22002
872.526	21979
872.656	22029
872.785	21994
872.915	22192
873.044	22253
873.173	22139
873.303	22200
873.432	22344
873.561	22325
873.69	22150
873.819	22261
873.948	22310
874.077	22253
874.206	22074
874.335	22246
874.464	22398
874.593	22424
874.722	22322
874.851	22443
874.979	22519
875.108	22363
875.237	22447
875.365	22257
875.494	22287
875.623	22474
875.751	22226
875.88	22417
876.008	22500
876.136	22664
876.265	22896
876.393	22961
876.521	22908
876.65	22858
876.778	22930
876.906	22615
877.034	22596
877.162	22824
877.29	22615
877.418	22729
877.546	22896
877.674	22752
877.802	22729
877.93	22782
878.058	22733
878.185	22660
878.313	22656
878.441	22561
878.568	22554
878.696	22710
878.824	22797
878.951	22740
879.079	22934
879.206	23140
879.333	22927
879.461	22908
879.588	22824
879.715	23071
879.842	22885
879.97	22854
880.097	22565
880.224	22672
880.351	22698
880.478	22584
880.605	22554
880.732	22584
880.859	22748
880.986	22649
881.112	22664
881.239	22512
881.366	22242
881.493	22268
881.619	22196
881.746	22177
881.872	22204
881.999	22204
882.125	22139
882.252	22230
882.378	22025
882.505	22230
882.631	22017
882.757	21953
882.883	21934
883.01	21918
883.136	21911
883.262	21675
883.388	21667
883.514	21789
883.64	21941
883.766	21827
883.892	21568
884.018	21690
884.143	21823
884.269	21953
884.395	21454
884.52	21462
884.646	21519
884.772	21549
884.897	21386
885.023	21542
885.148	21511
885.274	21724
885.399	21614
885.524	21420
885.65	21534
885.775	21553
885.9	21435
886.025	21519
886.15	21458
886.275	21378
886.4	21340
886.525	21542
886.65	21370
886.775	21294
886.9	21618
887.025	21656
887.149	21450
887.274	21332
887.399	21207
887.523	21150
887.648	21264
887.773	21135
887.897	21306
888.021	21272
888.146	21074
888.27	21298
888.395	21340
888.519	21275
888.643	21340
888.767	21363
888.891	21169
889.015	21077
889.139	21036
889.263	21047
889.387	21195
889.511	21256
889.635	21226
889.759	21024
889.883	21062
890.006	21066
890.13	21062
890.254	20994
890.377	21005
890.501	20845
890.624	20693
890.748	20902
890.871	20636
890.995	20602
891.118	20705
891.241	20583
891.364	20720
891.488	20762
891.611	20674
891.734	20621
891.857	20819
891.98	20587
892.103	20609
892.226	20583
892.349	20503
892.471	20374
892.594	20446
892.717	20564
892.839	20419
892.962	20476
893.085	20434
893.207	20545
893.33	20419
893.452	20404
893.575	20583
893.697	20488
893.819	20659
893.941	20648
894.064	20549
894.186	20492
894.308	20469
894.43	20575
894.552	20651
894.674	20621
894.796	20549
894.918	20442
895.04	20492
895.161	20545
895.283	20495
895.405	20457
895.526	20446
895.648	20526
895.769	20427
895.891	20549
896.012	20632
896.134	20625
896.255	20530
896.376	20389
896.498	20461
896.619	20556
896.74	20473
896.861	20629
896.982	20819
897.103	20895
897.224	20785
897.345	20758
897.466	20667
897.587	20640
897.708	20925
897.828	20746
897.949	20678
898.07	20507
898.19	20640
898.311	20663
898.431	20743
898.552	20579
898.672	20834
898.792	20845
898.913	20796
899.033	20644
899.153	20556
899.273	20320
899.393	20564
899.513	20488
899.633	20492
899.753	20511
899.873	20488
899.993	20583
900.113	20332
900.232	20438
900.352	20404
900.472	20317
900.591	20275
900.711	20298
900.83	20134
900.95	20237
901.069	20320
901.189	20115
901.308	20001
901.427	19883
901.546	19902
901.665	19757
901.784	19795
901.904	19662
902.023	19556
902.141	19388
902.26	19426
902.379	19377
902.498	19301
902.617	19236
902.735	19339
902.854	19217
902.973	19164
903.091	18951
903.21	18973
903.328	18985
903.446	18840
903.565	18597
903.683	18715
903.801	18684
903.919	18802
904.038	18661
904.156	18555
904.274	18642
904.392	18566
904.51	18574
904.627	18498
904.745	18570
904.863	18585
904.981	18437
905.098	18270
905.216	18330
905.334	18224
905.451	18235
905.569	18163
905.686	18197
905.803	18174
905.921	18003
906.038	18057
906.155	17965
906.272	17893
906.389	17935
906.506	17779
906.623	17805
906.74	17714
906.857	17684
906.974	17691
907.091	17847
907.208	17855
907.324	17760
907.441	17543
907.557	17459
907.674	17501
907.79	17368
907.907	17486
908.023	17467
908.139	17589
908.256	17379
908.372	17296
908.488	17292
908.604	17284
908.72	17155
908.836	17204
908.952	17075
909.068	17166
909.184	17239
909.3	17239
909.415	17155
909.531	17136
909.647	16938
909.762	16877
909.878	16919
909.993	16942
910.108	16809
910.224	16812
910.339	16877
910.454	16683
910.57	16615
910.685	16596
910.8	16816
910.915	16843
911.03	16641
911.145	16580
911.259	16523
911.374	16424
911.489	16375
911.604	16337
911.718	16215
911.833	16325
911.947	16162
912.062	16124
912.176	16223
912.291	16268
912.405	16253
912.519	16462
912.633	16409
912.748	16246
912.862	16211
912.976	16059
913.09	15941
913.204	15934
913.318	16029
913.431	16200
913.545	16166
913.659	15998
913.772	15937
913.886	15873
914	15838
914.113	15892
914.226	15888
914.34	15930
914.453	15660
914.566	15899
914.68	15679
914.793	15732
914.906	15462
915.019	15530
915.132	15359
915.245	15435
915.358	15424
915.47	15382
915.583	15431
915.696	15382
915.809	15485
915.921	15473
916.034	15291
916.146	15279
916.259	15275
916.371	15355
916.483	15363
916.595	15310
916.708	15313
916.82	15226
916.932	15150
917.044	15176
917.156	15161
917.268	15093
917.38	15100
917.491	15066
917.603	15074
917.715	15138
917.826	15218
917.938	14899
918.049	14910
918.161	15009
918.272	15241
918.384	15245
918.495	14956
918.606	14819
918.717	14823
918.828	14838
918.939	14834
919.05	14701
919.161	14743
919.272	14556
919.383	14716
919.494	14842
919.604	14948
919.715	14712
919.826	14750
919.936	14800
920.047	14868
920.157	14705
920.267	14914
920.378	14823
920.488	14720
920.598	14944
920.708	15074
920.818	14986
920.928	14819
921.038	14982
921.148	14979
921.258	14758
921.368	14727
921.477	14480
921.587	14514
921.697	14389
921.806	14499
921.916	14415
922.025	14176
922.134	14100
922.244	14145
922.353	14103
922.462	13932
922.571	14027
922.68	13700
922.789	13769
922.898	13799
923.007	13658
923.116	13784
923.224	13700
923.333	13731
923.442	13677
923.55	13597
923.659	13616
923.767	13670
923.876	13510
923.984	13696
924.092	13495
924.201	13567
924.309	13548
924.417	13491
924.525	13506
924.633	13422
924.741	14317
924.849	13270
924.956	13312
925.064	13190
925.172	13122
925.279	13057
925.387	13228
925.494	13160
925.602	13244
925.709	13266
925.816	13103
925.924	13160
926.031	13251
926.138	13122
926.245	13107
926.352	13027
926.459	13160
926.566	13168
926.673	13031
926.779	12901
926.886	12939
926.993	12757
927.099	12738
927.206	12677
927.312	12604
927.419	12825
927.525	12726
927.631	12760
927.737	12654
927.843	12650
927.95	12471
928.056	12479
928.162	12509
928.267	12639
928.373	13225
928.479	12547
928.585	12380
928.69	12547
928.796	12559
928.901	12410
929.007	12270
929.112	12452
929.218	12353
929.323	12300
929.428	12228
929.533	12456
929.638	12125
929.743	12235
929.848	12197
929.953	12258
930.058	12140
930.163	11988
930.267	11942
930.372	12041
930.477	11904
930.581	12163
930.685	11931
930.79	11870
930.894	11805
930.998	11794
931.103	11988
931.207	11684
931.311	11547
931.415	11433
931.519	11212
931.623	11128
