Data from test_V78500241_2201.txt Node
Date: Fri Mar 25 15:57:02 CST 2022
User: usil
Spectrometer: V785-0024
Trigger mode: 0
Integration Time (sec): 4.000000E-1
Scans to average: 1
Nonlinearity correction enabled: false
Boxcar width: 0
Storing dark spectrum: false
XAxis mode: Wavelengths
Number of Pixels in Spectrum: 1024
>>>>>Begin Spectral Data<<<<<
801.071	28710
801.214	28786
801.356	28554
801.499	28409
801.641	28261
801.783	28280
801.926	28409
802.068	28356
802.211	28390
802.353	28356
802.496	28139
802.638	28086
802.78	28097
802.923	27899
803.065	28078
803.208	28021
803.35	27926
803.492	28196
803.635	28086
803.777	28177
803.919	28257
804.061	28675
804.204	28363
804.346	28226
804.488	28162
804.63	28306
804.773	28169
804.915	28291
805.057	28462
805.199	28303
805.341	28405
805.483	28451
805.626	28421
805.768	28306
805.91	28630
806.052	28542
806.194	28459
806.336	28622
806.478	28580
806.62	28367
806.762	28679
806.904	28706
807.046	28938
807.188	28938
807.33	28968
807.472	28953
807.614	28896
807.756	28930
807.898	28721
808.04	28759
808.182	28653
808.324	28927
808.465	28854
808.607	29060
808.749	29094
808.891	29311
809.033	29121
809.174	29166
809.316	29277
809.458	29166
809.6	29048
809.741	29307
809.883	29307
810.025	29455
810.166	29429
810.308	29459
810.45	29452
810.591	29250
810.733	29273
810.875	29029
811.016	29029
811.158	28995
811.299	29360
811.441	29379
811.582	29345
811.724	29109
811.865	29136
812.007	29178
812.148	29060
812.29	29261
812.431	29280
812.573	29649
812.714	29604
812.855	29653
812.997	29843
813.138	29939
813.279	29802
813.421	29661
813.562	29710
813.703	29554
813.845	29436
813.986	29064
814.127	28953
814.268	28987
814.41	29052
814.551	28812
814.692	28927
814.833	28839
814.974	28858
815.115	28888
815.256	28672
815.397	28877
815.539	28679
815.68	28535
815.821	28634
815.962	28755
816.103	28675
816.244	28466
816.385	28550
816.526	28363
816.666	28226
816.807	28223
816.948	28287
817.089	28367
817.23	28234
817.371	28120
817.512	28109
817.653	28109
817.793	28055
817.934	28188
818.075	28246
818.216	28124
818.356	28093
818.497	28048
818.638	27857
818.778	27861
818.919	27899
819.06	28063
819.2	28169
819.341	28367
819.481	28131
819.622	28344
819.762	28561
819.903	28398
820.043	28462
820.184	28284
820.324	28238
820.465	28375
820.605	28219
820.746	28295
820.886	28185
821.026	28352
821.167	28333
821.307	28261
821.447	28280
821.588	28109
821.728	28021
821.868	27857
822.008	27774
822.149	27633
822.289	27656
822.429	27260
822.569	27374
822.709	27313
822.849	27127
822.99	27116
823.13	27024
823.27	27275
823.41	27024
823.55	26994
823.69	27043
823.83	26982
823.97	26845
824.11	26743
824.25	26842
824.389	26777
824.529	26895
824.669	26857
824.809	26914
824.949	26906
825.089	26796
825.228	26921
825.368	26587
825.508	26724
825.648	26743
825.787	26621
825.927	26811
826.067	26720
826.206	26731
826.346	26800
826.485	26861
826.625	26716
826.765	26693
826.904	26670
827.044	26530
827.183	26438
827.323	26412
827.462	26507
827.601	26355
827.741	26427
827.88	26492
828.02	26206
828.159	26328
828.298	26415
828.437	26457
828.577	26396
828.716	26571
828.855	26290
828.994	26027
829.134	26058
829.273	26202
829.412	26065
829.551	25982
829.69	25856
829.829	26054
829.968	26252
830.107	26077
830.246	26058
830.385	26031
830.524	26054
830.663	25795
830.802	25788
830.941	25723
831.08	25624
831.219	25765
831.357	25715
831.496	25966
831.635	25624
831.774	25670
831.913	25689
832.051	25460
832.19	25521
832.329	25575
832.467	25217
832.606	25449
832.744	25209
832.883	25320
833.022	25358
833.16	25411
833.299	25495
833.437	25350
833.576	25476
833.714	25422
833.852	25495
833.991	25457
834.129	25544
834.267	25495
834.406	25525
834.544	25518
834.682	25460
834.821	25373
834.959	25632
835.097	25403
835.235	25563
835.373	25453
835.511	25422
835.65	25217
835.788	25259
835.926	25038
836.064	24992
836.202	25198
836.34	25335
836.478	25316
836.615	25278
836.753	25126
836.891	25278
837.029	25266
837.167	25187
837.305	25232
837.443	25133
837.58	24939
837.718	25046
837.856	25183
837.993	25126
838.131	25129
838.269	24875
838.406	24897
838.544	24779
838.681	24703
838.819	24722
838.956	24475
839.094	24585
839.231	24505
839.369	24734
839.506	24924
839.643	24711
839.781	24597
839.918	24433
840.055	24445
840.193	24623
840.33	24517
840.467	24532
840.604	24445
840.742	24852
840.879	24384
841.016	24410
841.153	24285
841.29	24593
841.427	24422
841.564	24441
841.701	24467
841.838	24467
841.975	24330
842.112	24407
842.249	24220
842.385	24186
842.522	24555
842.659	24330
842.796	24270
842.933	24201
843.069	24163
843.206	24174
843.343	24270
843.479	24148
843.616	24152
843.752	23882
843.889	23958
844.025	24030
844.162	23878
844.298	24087
844.435	23984
844.571	23961
844.708	24129
844.844	24102
844.98	24053
845.117	24015
845.253	23897
845.389	23855
845.525	23866
845.661	23920
845.798	23665
845.934	23676
846.07	23611
846.206	23741
846.342	23904
846.478	23752
846.614	23585
846.75	23349
846.886	23467
847.022	23554
847.158	23417
847.294	23512
847.429	23463
847.565	23349
847.701	23615
847.837	23208
847.972	23155
848.108	23250
848.244	23345
848.379	23022
848.515	23060
848.65	22987
848.786	23064
848.921	23056
849.057	23048
849.192	23117
849.328	23041
849.463	22995
849.598	22934
849.734	22824
849.869	22843
850.004	22706
850.14	22774
850.275	22786
850.41	22687
850.545	22634
850.68	22873
850.815	22889
850.95	22733
851.085	23075
851.22	22923
851.355	22835
851.49	22786
851.625	22740
851.76	22637
851.895	22710
852.03	22759
852.165	22805
852.299	22771
852.434	22908
852.569	22843
852.703	22843
852.838	22771
852.973	22801
853.107	22892
853.242	22755
853.376	22672
853.511	22474
853.645	22588
853.78	22599
853.914	22698
854.048	22500
854.183	22512
854.317	22679
854.451	22793
854.585	22660
854.72	22599
854.854	22588
854.988	22443
855.122	22603
855.256	22500
855.39	22569
855.524	22672
855.658	22702
855.792	22607
855.926	22577
856.06	22687
856.194	22763
856.327	22660
856.461	22519
856.595	22599
856.729	22596
856.862	22694
856.996	22694
857.13	22736
857.263	22702
857.397	22622
857.53	22645
857.664	22565
857.797	22645
857.931	22618
858.064	22607
858.197	22637
858.331	22656
858.464	22428
858.597	22432
858.731	22455
858.864	22584
858.997	22580
859.13	22580
859.263	22668
859.396	22618
859.529	22664
859.662	22675
859.795	22443
859.928	22580
860.061	22698
860.194	22710
860.327	22721
860.46	22599
860.592	22721
860.725	22706
860.858	22721
860.99	22694
861.123	22542
861.256	22588
861.388	22542
861.521	23318
861.653	22394
861.786	22337
861.918	22363
862.05	22398
862.183	22584
862.315	22500
862.447	22634
862.58	22375
862.712	22257
862.844	22261
862.976	22284
863.108	22489
863.24	22748
863.372	22265
863.504	22238
863.636	22306
863.768	22459
863.9	22169
864.032	22265
864.164	22246
864.296	22382
864.428	22287
864.559	22363
864.691	22333
864.823	22272
864.954	22295
865.086	22253
865.217	22154
865.349	22078
865.48	22112
865.612	22154
865.743	22337
865.875	22147
866.006	22162
866.137	22131
866.269	22185
866.4	22150
866.531	22109
866.662	22044
866.793	22169
866.924	22032
867.055	22154
867.186	22169
867.317	22090
867.448	22029
867.579	22017
867.71	21975
867.841	21926
867.972	22230
868.103	22025
868.233	22078
868.364	22116
868.495	22226
868.625	22306
868.756	22447
868.886	22276
869.017	22299
869.147	22485
869.278	22451
869.408	22268
869.539	22276
869.669	22398
869.799	22455
869.929	22481
870.06	22443
870.19	22687
870.32	22607
870.45	22710
870.58	22820
870.71	22889
870.84	22721
870.97	22740
871.1	22717
871.23	22911
871.36	22904
871.489	22968
871.619	23029
871.749	22980
871.879	22980
872.008	23060
872.138	22927
872.267	22934
872.397	22828
872.526	22740
872.656	22805
872.785	22862
872.915	22908
873.044	23041
873.173	22908
873.303	23181
873.432	23041
873.561	23098
873.69	22984
873.819	23041
873.948	23060
874.077	22957
874.206	22911
874.335	22965
874.464	22999
874.593	23250
874.722	23185
874.851	23136
874.979	23075
875.108	23136
875.237	23105
875.365	23083
875.494	23022
875.623	23227
875.751	23136
875.88	23315
876.008	23242
876.136	23277
876.265	23604
876.393	23619
876.521	23611
876.65	23653
876.778	23726
876.906	23490
877.034	23520
877.162	23448
877.29	23486
877.418	23611
877.546	23535
877.674	23501
877.802	23535
877.93	23493
878.058	23307
878.185	23349
878.313	23478
878.441	23436
878.568	23284
878.696	23455
878.824	23531
878.951	23642
879.079	23615
879.206	23748
879.333	23596
879.461	23440
879.588	23604
879.715	23657
879.842	23707
879.97	23551
880.097	23337
880.224	23391
880.351	23334
880.478	23292
880.605	23356
880.732	23284
880.859	23493
880.986	23345
881.112	23280
881.239	23121
881.366	23098
881.493	22946
881.619	22999
881.746	22881
881.872	22889
881.999	22835
882.125	22759
882.252	22854
882.378	22866
882.505	22927
882.631	22733
882.757	22519
882.883	22565
883.01	22478
883.136	22493
883.262	22382
883.388	22436
883.514	22577
883.64	22542
883.766	22424
883.892	22280
884.018	22489
884.143	22615
884.269	22466
884.395	22424
884.52	22230
884.646	22280
884.772	22124
884.897	22112
885.023	22230
885.148	22257
885.274	22344
885.399	22333
885.524	22223
885.65	22268
885.775	22230
885.9	22158
886.025	22375
886.15	22242
886.275	22093
886.4	22128
886.525	22051
886.65	22040
886.775	22105
886.9	22318
887.025	22466
887.149	22086
887.274	21994
887.399	22051
887.523	22074
887.648	21892
887.773	21804
887.897	21930
888.021	21835
888.146	21968
888.27	22017
888.395	22067
888.519	22017
888.643	21907
888.767	21945
888.891	21895
889.015	21717
889.139	21770
889.263	21816
889.387	21816
889.511	21785
889.635	21808
889.759	21793
889.883	21603
890.006	21698
890.13	21747
890.254	21652
890.377	21732
890.501	21431
890.624	21439
890.748	21435
890.871	21428
890.995	21450
891.118	21142
891.241	21325
891.364	21207
891.488	21447
891.611	21249
891.734	21252
891.857	21336
891.98	21249
892.103	21325
892.226	21435
892.349	21279
892.471	21066
892.594	21207
892.717	21192
892.839	21214
892.962	21214
893.085	21222
893.207	21180
893.33	20963
893.452	21051
893.575	21157
893.697	21169
893.819	21310
893.941	21382
894.064	21291
894.186	21127
894.308	21051
894.43	21199
894.552	21272
894.674	21192
894.796	21085
894.918	21093
895.04	21123
895.161	21180
895.283	21150
895.405	20998
895.526	21055
895.648	21161
895.769	21157
895.891	21192
896.012	21192
896.134	21237
896.255	21123
896.376	21077
896.498	21104
896.619	21180
896.74	21241
896.861	21157
896.982	21545
897.103	21564
897.224	21431
897.345	21302
897.466	21313
897.587	21256
897.708	21428
897.828	21389
897.949	21256
898.07	21146
898.19	21222
898.311	21466
898.431	21180
898.552	21306
898.672	21447
898.792	21355
898.913	21272
899.033	21256
899.153	21180
899.273	20990
899.393	21066
899.513	21116
899.633	21211
899.753	21131
899.873	20979
899.993	21085
900.113	21036
900.232	21116
900.352	20845
900.472	20800
900.591	20815
900.711	20838
900.83	20830
900.95	20880
901.069	20967
901.189	20750
901.308	20495
901.427	20503
901.546	20404
901.665	20495
901.784	20351
901.904	20244
902.023	20218
902.141	19894
902.26	20024
902.379	20020
902.498	19871
902.617	19917
902.735	19993
902.854	19803
902.973	19807
903.091	19582
903.21	19670
903.328	19594
903.446	19426
903.565	19403
903.683	19373
903.801	19263
903.919	19327
904.038	19282
904.156	19057
904.274	19221
904.392	19129
904.51	19072
904.627	18973
904.745	19110
904.863	19122
904.981	18996
905.098	18738
905.216	18760
905.334	18734
905.451	18878
905.569	18654
905.686	18871
905.803	18734
905.921	18658
906.038	18665
906.155	18517
906.272	18475
906.389	18513
906.506	18338
906.623	18254
906.74	18357
906.857	18224
906.974	18159
907.091	18289
907.208	18407
907.324	18285
907.441	18076
907.557	18057
907.674	18026
907.79	17855
907.907	17999
908.023	18136
908.139	18091
908.256	17999
908.372	17882
908.488	17863
908.604	17897
908.72	17672
908.836	17695
908.952	17707
909.068	17866
909.184	17843
909.3	17756
909.415	17748
909.531	17722
909.647	17414
909.762	17459
909.878	17406
909.993	17505
910.108	17387
910.224	17410
910.339	17398
910.454	17242
910.57	17284
910.685	17113
910.8	17368
910.915	17425
911.03	17140
911.145	17079
911.259	17079
911.374	17060
911.489	16904
911.604	16862
911.718	16767
911.833	16774
911.947	16630
912.062	16580
912.176	16771
912.291	16801
912.405	16725
912.519	16873
912.633	16858
912.748	16774
912.862	16771
912.976	16653
913.09	16497
913.204	16478
913.318	16459
913.431	16573
913.545	16634
913.659	16622
913.772	16375
913.886	16413
914	16386
914.113	16333
914.226	16394
914.34	16390
914.453	16284
914.566	16352
914.68	16215
914.793	16215
914.906	15964
915.019	15930
915.132	15934
915.245	15827
915.358	15937
915.47	15922
915.583	15892
915.696	15926
915.809	15926
915.921	16059
916.034	15857
916.146	15747
916.259	15838
916.371	15918
916.483	15816
916.595	15759
916.708	15793
916.82	15682
916.932	15667
917.044	15724
917.156	15804
917.268	15561
917.38	15637
917.491	15572
917.603	15599
917.715	15542
917.826	15595
917.938	15492
918.049	15279
918.161	15481
918.272	15682
918.384	15530
918.495	15526
918.606	15310
918.717	15306
918.828	15317
918.939	15325
919.05	15222
919.161	15241
919.272	15051
919.383	15157
919.494	15260
919.604	15466
919.715	15233
919.826	15176
919.936	15173
920.047	15287
920.157	15146
920.267	15370
920.378	15176
920.488	15203
920.598	15367
920.708	15469
920.818	15416
920.928	15367
921.038	15553
921.148	15428
921.258	15184
921.368	15009
921.477	14998
921.587	14994
921.697	14876
921.806	14880
921.916	14788
922.025	14629
922.134	14575
922.244	14480
922.353	14716
922.462	14514
922.571	14415
922.68	14229
922.789	14172
922.898	14240
923.007	14180
923.116	14248
923.224	14210
923.333	14164
923.442	14134
923.55	13997
923.659	14024
923.767	14062
923.876	13932
923.984	14031
924.092	13902
924.201	14020
924.309	13982
924.417	13936
924.525	13772
924.633	13849
924.741	14632
924.849	13696
924.956	13822
925.064	13632
925.172	13540
925.279	13609
925.387	13689
925.494	13582
925.602	13712
925.709	13613
925.816	13499
925.924	13540
926.031	13666
926.138	13571
926.245	13556
926.352	13434
926.459	13597
926.566	13540
926.673	13518
926.779	13369
926.886	13301
926.993	13198
927.099	13114
927.206	13129
927.312	13114
927.419	13149
927.525	13072
927.631	13168
927.737	12981
927.843	13000
927.95	12837
928.056	12901
928.162	12943
928.267	13057
928.373	13636
928.479	13023
928.585	12749
928.69	12920
928.796	12916
928.901	12821
929.007	12707
929.112	12848
929.218	12715
929.323	12745
929.428	12662
929.533	12791
929.638	12582
929.743	12620
929.848	12654
929.953	12585
930.058	12521
930.163	12296
930.267	12388
930.372	12399
930.477	12277
930.581	12498
930.685	12410
930.79	12228
930.894	12243
930.998	12125
931.103	12281
931.207	11927
931.311	11878
931.415	11847
931.519	11592
931.623	11573
