Data from test_V78500241_886.txt Node
Date: Fri Mar 25 15:47:56 CST 2022
User: usil
Spectrometer: V785-0024
Trigger mode: 0
Integration Time (sec): 4.000000E-1
Scans to average: 1
Nonlinearity correction enabled: false
Boxcar width: 0
Storing dark spectrum: false
XAxis mode: Wavelengths
Number of Pixels in Spectrum: 1024
>>>>>Begin Spectral Data<<<<<
801.071	28265
801.214	28013
801.356	27797
801.499	27755
801.641	27599
801.783	27660
801.926	27660
802.068	27564
802.211	27580
802.353	27549
802.496	27332
802.638	27340
802.78	27264
802.923	27268
803.065	27226
803.208	27336
803.35	27363
803.492	27424
803.635	27492
803.777	27492
803.919	27549
804.061	27785
804.204	27583
804.346	27469
804.488	27496
804.63	27534
804.773	27401
804.915	27515
805.057	27648
805.199	27599
805.341	27656
805.483	27717
805.626	27644
805.768	27644
805.91	27755
806.052	27622
806.194	27496
806.336	27857
806.478	27854
806.62	27652
806.762	27736
806.904	27808
807.046	28257
807.188	28169
807.33	28150
807.472	28116
807.614	28154
807.756	28082
807.898	27968
808.04	27968
808.182	28013
808.324	27991
808.465	27956
808.607	28185
808.749	28284
808.891	28356
809.033	28489
809.174	28466
809.316	28246
809.458	28280
809.6	28291
809.741	28390
809.883	28584
810.025	28733
810.166	28706
810.308	28622
810.45	28580
810.591	28478
810.733	28455
810.875	28310
811.016	28284
811.158	28265
811.299	28535
811.441	28485
811.582	28607
811.724	28428
811.865	28352
812.007	28371
812.148	28356
812.29	28375
812.431	28577
812.573	28797
812.714	28733
812.855	28999
812.997	28968
813.138	29022
813.279	29037
813.421	29029
813.562	29006
813.703	28721
813.845	28607
813.986	28310
814.127	28162
814.268	28067
814.41	28074
814.551	27941
814.692	28131
814.833	28040
814.974	28002
815.115	28154
815.256	27926
815.397	27865
815.539	27941
815.68	27808
815.821	27831
815.962	27918
816.103	27778
816.244	27732
816.385	27701
816.526	27724
816.666	27458
816.807	27416
816.948	27454
817.089	27477
817.23	27416
817.371	27412
817.512	27523
817.653	27462
817.793	27424
817.934	27336
818.075	27340
818.216	27370
818.356	27306
818.497	27199
818.638	27165
818.778	27252
818.919	27233
819.06	27131
819.2	27310
819.341	27420
819.481	27329
819.622	27481
819.762	27785
819.903	27625
820.043	27629
820.184	27523
820.324	27485
820.465	27542
820.605	27542
820.746	27469
820.886	27389
821.026	27412
821.167	27363
821.307	27439
821.447	27386
821.588	27176
821.728	27260
821.868	27055
822.008	26899
822.149	27024
822.289	26765
822.429	26724
822.569	26617
822.709	26499
822.849	26400
822.99	26423
823.13	26446
823.27	26320
823.41	26157
823.55	26172
823.69	26206
823.83	26282
823.97	26138
824.11	26096
824.25	26088
824.389	26062
824.529	26157
824.669	26043
824.809	26107
824.949	26183
825.089	26122
825.228	26100
825.368	25970
825.508	25997
825.648	25966
825.787	25936
825.927	25959
826.067	25928
826.206	25936
826.346	25997
826.485	25966
826.625	25890
826.765	25978
826.904	25955
827.044	25563
827.183	25746
827.323	25563
827.462	25742
827.601	25529
827.741	25662
827.88	25609
828.02	25575
828.159	25506
828.298	25552
828.437	25753
828.577	25453
828.716	25734
828.855	25613
828.994	25339
829.134	25335
829.273	25453
829.412	25365
829.551	25339
829.69	25419
829.829	25358
829.968	25358
830.107	25476
830.246	25285
830.385	25198
830.524	25232
830.663	25099
830.802	24996
830.941	24924
831.08	25008
831.219	25034
831.357	24962
831.496	25175
831.635	24886
831.774	24783
831.913	24768
832.051	24753
832.19	24620
832.329	24760
832.467	24601
832.606	24517
832.744	24475
832.883	24627
833.022	24498
833.16	24707
833.299	24688
833.437	24589
833.576	24783
833.714	24760
833.852	24764
833.991	24688
834.129	24738
834.267	24661
834.406	24642
834.544	24726
834.682	24681
834.821	24722
834.959	24726
835.097	24566
835.235	24722
835.373	24589
835.511	24551
835.65	24604
835.788	24540
835.926	24304
836.064	24319
836.202	24289
836.34	24456
836.478	24620
836.615	24528
836.753	24433
836.891	24395
837.029	24631
837.167	24475
837.305	24361
837.443	24395
837.58	24235
837.718	24315
837.856	24251
837.993	24338
838.131	24262
838.269	24114
838.406	24186
838.544	24201
838.681	23999
838.819	23882
838.956	23836
839.094	23786
839.231	23832
839.369	23973
839.506	24159
839.643	24022
839.781	23786
839.918	23710
840.055	23775
840.193	23794
840.33	23847
840.467	23733
840.604	23771
840.742	24038
840.879	23585
841.016	23745
841.153	23596
841.29	23786
841.427	23710
841.564	23611
841.701	23771
841.838	23630
841.975	23471
842.112	23585
842.249	23604
842.385	23406
842.522	23695
842.659	23634
842.796	23452
842.933	23406
843.069	23330
843.206	23288
843.343	23520
843.479	23471
843.616	23486
843.752	23296
843.889	23273
844.025	23421
844.162	23105
844.298	23284
844.435	23124
844.571	23223
844.708	23322
844.844	23512
844.98	23307
845.117	23345
845.253	23208
845.389	23117
845.525	23083
845.661	23071
845.798	23064
845.934	23025
846.07	22991
846.206	23006
846.342	22995
846.478	22919
846.614	22771
846.75	22618
846.886	22683
847.022	22748
847.158	22824
847.294	22664
847.429	22672
847.565	22736
847.701	22987
847.837	22413
847.972	22363
848.108	22493
848.244	22523
848.379	22333
848.515	22238
848.65	22280
848.786	22306
848.921	22253
849.057	22436
849.192	22284
849.328	22363
849.463	22322
849.598	22322
849.734	22204
849.869	22257
850.004	21953
850.14	22090
850.275	22105
850.41	21960
850.545	21998
850.68	22067
850.815	22017
850.95	22044
851.085	22162
851.22	22196
851.355	22101
851.49	22063
851.625	22059
851.76	21869
851.895	21937
852.03	21979
852.165	22093
852.299	22112
852.434	22169
852.569	22036
852.703	22029
852.838	22036
852.973	22211
853.107	22291
853.242	22116
853.376	21835
853.511	21797
853.645	21793
853.78	22013
853.914	21800
854.048	21880
854.183	21774
854.317	21876
854.451	22021
854.585	21778
854.72	21915
854.854	21968
854.988	21880
855.122	21861
855.256	21842
855.39	21766
855.524	21926
855.658	21869
855.792	21884
855.926	21880
856.06	21915
856.194	21930
856.327	21873
856.461	21781
856.595	21819
856.729	21808
856.862	22002
856.996	21934
857.13	21949
857.263	21956
857.397	21972
857.53	21865
857.664	21934
857.797	21895
857.931	21911
858.064	21846
858.197	21960
858.331	21861
858.464	21732
858.597	21846
858.731	21831
858.864	21808
858.997	21873
859.13	21800
859.263	21819
859.396	21850
859.529	21907
859.662	21778
859.795	21789
859.928	21918
860.061	21960
860.194	22074
860.327	21922
860.46	21831
860.592	21903
860.725	21998
860.858	22082
860.99	21835
861.123	21751
861.256	21789
861.388	21835
861.521	22474
861.653	21766
861.786	21644
861.918	21701
862.05	21686
862.183	21732
862.315	21838
862.447	21854
862.58	21743
862.712	21542
862.844	21428
862.976	21675
863.108	21599
863.24	21949
863.372	21488
863.504	21576
863.636	21614
863.768	21614
863.9	21549
864.032	21462
864.164	21549
864.296	21637
864.428	21641
864.559	21667
864.691	21454
864.823	21561
864.954	21530
865.086	21374
865.217	21473
865.349	21340
865.48	21450
865.612	21549
865.743	21576
865.875	21504
866.006	21458
866.137	21393
866.269	21386
866.4	21553
866.531	21435
866.662	21393
866.793	21401
866.924	21443
867.055	21412
867.186	21363
867.317	21325
867.448	21355
867.579	21351
867.71	21249
867.841	21230
867.972	21367
868.103	21393
868.233	21367
868.364	21313
868.495	21519
868.625	21511
868.756	21732
868.886	21431
869.017	21686
869.147	21698
869.278	21705
869.408	21606
869.539	21473
869.669	21747
869.799	21682
869.929	21759
870.06	21785
870.19	21926
870.32	21953
870.45	21968
870.58	21960
870.71	22059
870.84	22135
870.97	22017
871.1	22055
871.23	22177
871.36	22253
871.489	22059
871.619	22192
871.749	22223
871.879	22223
872.008	22318
872.138	22223
872.267	22207
872.397	22097
872.526	21930
872.656	21903
872.785	21975
872.915	22310
873.044	22257
873.173	22333
873.303	22268
873.432	22272
873.561	22417
873.69	22337
873.819	22265
873.948	22295
874.077	22257
874.206	22112
874.335	22173
874.464	22337
874.593	22462
874.722	22398
874.851	22402
874.979	22440
875.108	22386
875.237	22443
875.365	22261
875.494	22481
875.623	22500
875.751	22379
875.88	22519
876.008	22554
876.136	22645
876.265	22713
876.393	22892
876.521	22793
876.65	22896
876.778	22858
876.906	22862
877.034	22721
877.162	22938
877.29	22740
877.418	22881
877.546	22778
877.674	22634
877.802	22713
877.93	22892
878.058	22771
878.185	22653
878.313	22793
878.441	22862
878.568	22607
878.696	22774
878.824	22782
878.951	22961
879.079	23025
879.206	22957
879.333	22949
879.461	22850
879.588	22995
879.715	22987
879.842	23056
879.97	22949
880.097	22645
880.224	22611
880.351	22637
880.478	22725
880.605	22535
880.732	22485
880.859	22843
880.986	22668
881.112	22592
881.239	22493
881.366	22318
881.493	22268
881.619	22295
881.746	22162
881.872	22341
881.999	22154
882.125	22097
882.252	22101
882.378	22112
882.505	22299
882.631	22013
882.757	22013
882.883	21895
883.01	21865
883.136	21835
883.262	21876
883.388	21648
883.514	21827
883.64	21941
883.766	21713
883.892	21656
884.018	21663
884.143	21865
884.269	21960
884.395	21530
884.52	21542
884.646	21572
884.772	21397
884.897	21477
885.023	21416
885.148	21633
885.274	21629
885.399	21614
885.524	21652
885.65	21606
885.775	21511
885.9	21370
886.025	21778
886.15	21382
886.275	21481
886.4	21431
886.525	21488
886.65	21500
886.775	21477
886.9	21507
887.025	21682
887.149	21428
887.274	21351
887.399	21306
887.523	21325
887.648	21207
887.773	21150
887.897	21405
888.021	21336
888.146	21222
888.27	21329
888.395	21355
888.519	21214
888.643	21268
888.767	21211
888.891	21245
889.015	21119
889.139	21112
889.263	21024
889.387	21245
889.511	21325
889.635	21237
889.759	21028
889.883	21123
890.006	21043
890.13	21070
890.254	20960
890.377	21074
890.501	20925
890.624	20674
890.748	20811
890.871	20686
890.995	20674
891.118	20625
891.241	20670
891.364	20731
891.488	20727
891.611	20533
891.734	20651
891.857	20758
891.98	20621
892.103	20564
892.226	20648
892.349	20640
892.471	20457
892.594	20492
892.717	20541
892.839	20625
892.962	20583
893.085	20667
893.207	20362
893.33	20396
893.452	20446
893.575	20602
893.697	20587
893.819	20689
893.941	20746
894.064	20659
894.186	20461
894.308	20393
894.43	20564
894.552	20667
894.674	20678
894.796	20339
894.918	20473
895.04	20530
895.161	20606
895.283	20602
895.405	20480
895.526	20484
895.648	20560
895.769	20537
895.891	20541
896.012	20701
896.134	20579
896.255	20522
896.376	20495
896.498	20476
896.619	20545
896.74	20514
896.861	20571
896.982	20872
897.103	20971
897.224	20777
897.345	20845
897.466	20655
897.587	20826
897.708	20880
897.828	20712
897.949	20644
898.07	20552
898.19	20613
898.311	20815
898.431	20811
898.552	20727
898.672	20902
898.792	20895
898.913	20727
899.033	20644
899.153	20636
899.273	20370
899.393	20381
899.513	20484
899.633	20533
899.753	20473
899.873	20282
899.993	20571
900.113	20438
900.232	20366
900.352	20480
900.472	20259
900.591	20168
900.711	20294
900.83	20252
900.95	20396
901.069	20400
901.189	20122
901.308	19894
901.427	19723
901.546	19947
901.665	19811
901.784	19868
901.904	19655
902.023	19567
902.141	19403
902.26	19381
902.379	19445
902.498	19282
902.617	19377
902.735	19327
902.854	19206
902.973	19285
903.091	19095
903.21	19008
903.328	18882
903.446	18901
903.565	18810
903.683	18878
903.801	18779
903.919	18757
904.038	18616
904.156	18700
904.274	18722
904.392	18593
904.51	18460
904.627	18509
904.745	18448
904.863	18582
904.981	18353
905.098	18247
905.216	18243
905.334	18190
905.451	18167
905.569	18308
905.686	18361
905.803	18213
905.921	17980
906.038	18106
906.155	18178
906.272	17916
906.389	17961
906.506	17756
906.623	17775
906.74	17737
906.857	17661
906.974	17695
907.091	17813
907.208	17927
907.324	17885
907.441	17680
907.557	17562
907.674	17471
907.79	17368
907.907	17467
908.023	17554
908.139	17532
908.256	17539
908.372	17273
908.488	17376
908.604	17322
908.72	17170
908.836	17136
908.952	17067
909.068	17273
909.184	17299
909.3	17162
909.415	17151
909.531	17162
909.647	16927
909.762	16942
909.878	16866
909.993	16968
910.108	16736
910.224	16854
910.339	16839
910.454	16736
910.57	16740
910.685	16550
910.8	16892
910.915	16881
911.03	16641
911.145	16565
911.259	16535
911.374	16550
911.489	16363
911.604	16341
911.718	16261
911.833	16238
911.947	16230
912.062	16177
912.176	16242
912.291	16192
912.405	16333
912.519	16409
912.633	16386
912.748	16272
912.862	16139
912.976	16116
913.09	15918
913.204	15945
913.318	16109
913.431	16112
913.545	16109
913.659	16177
913.772	15983
913.886	15846
914	15819
914.113	16017
914.226	15926
914.34	15808
914.453	15736
914.566	15907
914.68	15816
914.793	15644
914.906	15523
915.019	15473
915.132	15279
915.245	15504
915.358	15542
915.47	15492
915.583	15431
915.696	15382
915.809	15530
915.921	15458
916.034	15386
916.146	15336
916.259	15317
916.371	15378
916.483	15466
916.595	15283
916.708	15355
916.82	15329
916.932	15283
917.044	15306
917.156	15123
917.268	15116
917.38	15108
917.491	15123
917.603	15066
917.715	15173
917.826	15233
917.938	15085
918.049	14914
918.161	15009
918.272	15066
918.384	15135
918.495	15036
918.606	14853
918.717	14762
918.828	14838
918.939	14811
919.05	14804
919.161	14781
919.272	14613
919.383	14712
919.494	14849
919.604	15108
919.715	14842
919.826	14735
919.936	14796
920.047	14796
920.157	14773
920.267	14975
920.378	14746
920.488	14750
920.598	14845
920.708	15123
920.818	14921
920.928	14868
921.038	15077
921.148	15070
921.258	14724
921.368	14648
921.477	14533
921.587	14488
921.697	14454
921.806	14560
921.916	14393
922.025	14233
922.134	14138
922.244	14039
922.353	14187
922.462	14046
922.571	13974
922.68	13807
922.789	13822
922.898	13852
923.007	13784
923.116	13849
923.224	13799
923.333	13765
923.442	13639
923.55	13605
923.659	13624
923.767	13708
923.876	13548
923.984	13689
924.092	13582
924.201	13476
924.309	13548
924.417	13499
924.525	13506
924.633	13525
924.741	14434
924.849	13225
924.956	13377
925.064	13244
925.172	13122
925.279	13149
925.387	13285
925.494	13190
925.602	13407
925.709	13308
925.816	13084
925.924	13190
926.031	13171
926.138	13156
926.245	13175
926.352	12977
926.459	13190
926.566	13236
926.673	13015
926.779	12897
926.886	12943
926.993	12837
927.099	12787
927.206	12757
927.312	12738
927.419	12768
927.525	12791
927.631	12738
927.737	12601
927.843	12681
927.95	12532
928.056	12540
928.162	12544
928.267	12703
928.373	13213
928.479	12627
928.585	12414
928.69	12532
928.796	12513
928.901	12445
929.007	12270
929.112	12452
929.218	12311
929.323	12258
929.428	12376
929.533	12452
929.638	12220
929.743	12254
929.848	12304
929.953	12194
930.058	12148
930.163	12007
930.267	11897
930.372	12163
930.477	11931
930.581	12159
930.685	12030
930.79	11821
930.894	11870
930.998	11836
931.103	12053
931.207	11630
931.311	11547
931.415	11474
931.519	11254
931.623	11189
