Data from test_V78500241_1601.txt Node
Date: Fri Mar 25 15:52:53 CST 2022
User: usil
Spectrometer: V785-0024
Trigger mode: 0
Integration Time (sec): 4.000000E-1
Scans to average: 1
Nonlinearity correction enabled: false
Boxcar width: 0
Storing dark spectrum: false
XAxis mode: Wavelengths
Number of Pixels in Spectrum: 1024
>>>>>Begin Spectral Data<<<<<
801.071	27857
801.214	27789
801.356	27553
801.499	27587
801.641	27485
801.783	27310
801.926	27443
802.068	27340
802.211	27351
802.353	27249
802.496	27184
802.638	27077
802.78	27005
802.923	26971
803.065	26982
803.208	27077
803.35	27089
803.492	27275
803.635	27332
803.777	27264
803.919	27317
804.061	27591
804.204	27302
804.346	27222
804.488	27272
804.63	27302
804.773	27195
804.915	27329
805.057	27416
805.199	27199
805.341	27393
805.483	27553
805.626	27488
805.768	27275
805.91	27477
806.052	27439
806.194	27420
806.336	27481
806.478	27374
806.62	27450
806.762	27576
806.904	27816
807.046	27960
807.188	27808
807.33	27899
807.472	27819
807.614	27778
807.756	27888
807.898	27724
808.04	27633
808.182	27835
808.324	27698
808.465	27869
808.607	28013
808.749	28067
808.891	28150
809.033	28188
809.174	28169
809.316	27930
809.458	28025
809.6	28101
809.741	28105
809.883	28253
810.025	28500
810.166	28249
810.308	28352
810.45	28303
810.591	28120
810.733	28158
810.875	28010
811.016	27998
811.158	27816
811.299	28211
811.441	28086
811.582	28162
811.724	28051
811.865	27956
812.007	28055
812.148	28051
812.29	28040
812.431	28280
812.573	28257
812.714	28470
812.855	28702
812.997	28713
813.138	28774
813.279	28748
813.421	28538
813.562	28538
813.703	28348
813.845	28154
813.986	27937
814.127	27972
814.268	27671
814.41	27831
814.551	27797
814.692	27835
814.833	27679
814.974	27591
815.115	27682
815.256	27686
815.397	27545
815.539	27614
815.68	27583
815.821	27481
815.962	27519
816.103	27553
816.244	27329
816.385	27313
816.526	27275
816.666	27024
816.807	26998
816.948	27150
817.089	27291
817.23	27116
817.371	26982
817.512	27039
817.653	27017
817.793	26967
817.934	27047
818.075	27028
818.216	27024
818.356	26868
818.497	26857
818.638	26701
818.778	26716
818.919	26800
819.06	26849
819.2	26883
819.341	27013
819.481	26994
819.622	27165
819.762	27351
819.903	27256
820.043	27173
820.184	27176
820.324	27081
820.465	27264
820.605	27081
820.746	27131
820.886	27028
821.026	27131
821.167	26944
821.307	27142
821.447	26944
821.588	27047
821.728	26918
821.868	26632
822.008	26568
822.149	26511
822.289	26431
822.429	26229
822.569	26225
822.709	26157
822.849	26073
822.99	26039
823.13	25928
823.27	25906
823.41	25841
823.55	25700
823.69	25898
823.83	25715
823.97	25746
824.11	25635
824.25	25624
824.389	25731
824.529	25719
824.669	25655
824.809	25849
824.949	25772
825.089	25651
825.228	25700
825.368	25540
825.508	25529
825.648	25495
825.787	25575
825.927	25670
826.067	25529
826.206	25502
826.346	25544
826.485	25514
826.625	25525
826.765	25533
826.904	25597
827.044	25266
827.183	25304
827.323	25225
827.462	25160
827.601	25289
827.741	25145
827.88	25244
828.02	25046
828.159	25171
828.298	25316
828.437	25297
828.577	25099
828.716	25213
828.855	25156
828.994	24867
829.134	24901
829.273	24935
829.412	24856
829.551	24844
829.69	25080
829.829	24928
829.968	25053
830.107	25004
830.246	24992
830.385	24894
830.524	24833
830.663	24604
830.802	24646
830.941	24361
831.08	24388
831.219	24578
831.357	24566
831.496	24700
831.635	24528
831.774	24467
831.913	24486
832.051	24361
832.19	24304
832.329	24380
832.467	24235
832.606	24034
832.744	24224
832.883	24155
833.022	24129
833.16	24209
833.299	24209
833.437	24258
833.576	24399
833.714	24270
833.852	24376
833.991	24300
834.129	24334
834.267	24281
834.406	24205
834.544	24311
834.682	24174
834.821	24243
834.959	24437
835.097	24114
835.235	24353
835.373	24209
835.511	24117
835.65	24136
835.788	24121
835.926	23897
836.064	23893
836.202	23954
836.34	24106
836.478	24091
836.615	23996
836.753	24232
836.891	24083
837.029	24026
837.167	24011
837.305	23897
837.443	23931
837.58	23828
837.718	24015
837.856	23977
837.993	23859
838.131	23942
838.269	23821
838.406	23878
838.544	23657
838.681	23509
838.819	23360
838.956	23421
839.094	23250
839.231	23501
839.369	23570
839.506	23828
839.643	23615
839.781	23383
839.918	23391
840.055	23334
840.193	23379
840.33	23250
840.467	23277
840.604	23364
840.742	23596
840.879	23200
841.016	23345
841.153	23098
841.29	23455
841.427	23360
841.564	23410
841.701	23303
841.838	23239
841.975	23140
842.112	23220
842.249	23220
842.385	23064
842.522	23269
842.659	23193
842.796	22900
842.933	23010
843.069	22934
843.206	22991
843.343	23079
843.479	23079
843.616	23067
843.752	22889
843.889	22713
844.025	22987
844.162	22767
844.298	22953
844.435	22828
844.571	22866
844.708	22877
844.844	22976
844.98	22930
845.117	22965
845.253	22740
845.389	22554
845.525	22748
845.661	22596
845.798	22455
845.934	22630
846.07	22447
846.206	22531
846.342	22630
846.478	22580
846.614	22489
846.75	22215
846.886	22249
847.022	22295
847.158	22360
847.294	22230
847.429	22253
847.565	22257
847.701	22588
847.837	21911
847.972	22044
848.108	22021
848.244	22078
848.379	21880
848.515	21915
848.65	21930
848.786	21953
848.921	21911
849.057	22048
849.192	21983
849.328	22029
849.463	21915
849.598	21789
849.734	21770
849.869	21819
850.004	21641
850.14	21568
850.275	21633
850.41	21583
850.545	21557
850.68	21599
850.815	21831
850.95	21637
851.085	21823
851.22	21739
851.355	21690
851.49	21572
851.625	21507
851.76	21652
851.895	21606
852.03	21450
852.165	21663
852.299	21652
852.434	21709
852.569	21660
852.703	21694
852.838	21720
852.973	21690
853.107	21732
853.242	21603
853.376	21439
853.511	21332
853.645	21382
853.78	21660
853.914	21523
854.048	21393
854.183	21291
854.317	21469
854.451	21633
854.585	21542
854.72	21523
854.854	21663
854.988	21458
855.122	21492
855.256	21382
855.39	21481
855.524	21469
855.658	21526
855.792	21538
855.926	21549
856.06	21595
856.194	21469
856.327	21496
856.461	21443
856.595	21485
856.729	21405
856.862	21511
856.996	21416
857.13	21564
857.263	21576
857.397	21504
857.53	21351
857.664	21557
857.797	21386
857.931	21671
858.064	21450
858.197	21564
858.331	21450
858.464	21408
858.597	21378
858.731	21378
858.864	21424
858.997	21382
859.13	21424
859.263	21447
859.396	21416
859.529	21454
859.662	21382
859.795	21454
859.928	21515
860.061	21618
860.194	21656
860.327	21515
860.46	21431
860.592	21644
860.725	21633
860.858	21576
860.99	21428
861.123	21405
861.256	21412
861.388	21447
861.521	22223
861.653	21302
861.786	21272
861.918	21264
862.05	21412
862.183	21431
862.315	21481
862.447	21386
862.58	21447
862.712	21260
862.844	21142
862.976	21237
863.108	21252
863.24	21568
863.372	21081
863.504	21268
863.636	21188
863.768	21157
863.9	21161
864.032	21070
864.164	21207
864.296	21199
864.428	21256
864.559	21199
864.691	21161
864.823	21127
864.954	21108
865.086	21268
865.217	21005
865.349	21066
865.48	21047
865.612	21077
865.743	21218
865.875	21211
866.006	20994
866.137	21096
866.269	21192
866.4	20986
866.531	20979
866.662	21089
866.793	20960
866.924	21051
867.055	20960
867.186	20990
867.317	21047
867.448	20925
867.579	20804
867.71	20891
867.841	21005
867.972	21017
868.103	21062
868.233	20982
868.364	20948
868.495	21127
868.625	21233
868.756	21378
868.886	21192
869.017	21214
869.147	21332
869.278	21351
869.408	21332
869.539	21237
869.669	21313
869.799	21272
869.929	21355
870.06	21378
870.19	21591
870.32	21542
870.45	21705
870.58	21671
870.71	21835
870.84	21709
870.97	21671
871.1	21656
871.23	21793
871.36	21793
871.489	21724
871.619	21861
871.749	21812
871.879	22010
872.008	21960
872.138	21899
872.267	21930
872.397	21606
872.526	21652
872.656	21622
872.785	21675
872.915	21968
873.044	21930
873.173	21873
873.303	21903
873.432	21831
873.561	21945
873.69	21880
873.819	21838
873.948	21975
874.077	21930
874.206	21838
874.335	21987
874.464	21998
874.593	22090
874.722	21968
874.851	22093
874.979	22097
875.108	22131
875.237	22063
875.365	22032
875.494	22109
875.623	22215
875.751	22093
875.88	22101
876.008	22139
876.136	22238
876.265	22470
876.393	22645
876.521	22489
876.65	22592
876.778	22485
876.906	22436
877.034	22363
877.162	22443
877.29	22333
877.418	22455
877.546	22481
877.674	22379
877.802	22504
877.93	22447
878.058	22394
878.185	22261
878.313	22352
878.441	22455
878.568	22360
878.696	22470
878.824	22447
878.951	22542
879.079	22687
879.206	22778
879.333	22538
879.461	22341
879.588	22649
879.715	22641
879.842	22702
879.97	22672
880.097	22128
880.224	22166
880.351	22341
880.478	22295
880.605	22242
880.732	22200
880.859	22424
880.986	22253
881.112	22230
881.239	22116
881.366	22048
881.493	21968
881.619	21861
881.746	21854
881.872	21869
881.999	21785
882.125	21739
882.252	21850
882.378	21785
882.505	21876
882.631	21633
882.757	21549
882.883	21515
883.01	21519
883.136	21504
883.262	21340
883.388	21374
883.514	21526
883.64	21500
883.766	21428
883.892	21374
884.018	21214
884.143	21473
884.269	21534
884.395	21367
884.52	21161
884.646	21233
884.772	21142
884.897	20967
885.023	21169
885.148	21302
885.274	21370
885.399	21260
885.524	21093
885.65	21150
885.775	21169
885.9	21150
886.025	21294
886.15	21275
886.275	21142
886.4	21005
886.525	21237
886.65	21066
886.775	21169
886.9	21260
887.025	21348
887.149	21100
887.274	20971
887.399	20960
887.523	20963
887.648	20838
887.773	20864
887.897	20944
888.021	20960
888.146	20819
888.27	21077
888.395	21028
888.519	21028
888.643	20921
888.767	20994
888.891	20800
889.015	20746
889.139	20849
889.263	20754
889.387	20876
889.511	20979
889.635	20910
889.759	20758
889.883	20781
890.006	20765
890.13	20887
890.254	20644
890.377	20667
890.501	20678
890.624	20476
890.748	20522
890.871	20473
890.995	20275
891.118	20278
891.241	20320
891.364	20400
891.488	20442
891.611	20347
891.734	20309
891.857	20362
891.98	20301
892.103	20347
892.226	20355
892.349	20298
892.471	20039
892.594	20221
892.717	20240
892.839	20267
892.962	20339
893.085	20358
893.207	20210
893.33	20130
893.452	20092
893.575	20366
893.697	20210
893.819	20385
893.941	20343
894.064	20404
894.186	20271
894.308	20077
894.43	20218
894.552	20294
894.674	20267
894.796	20130
894.918	20183
895.04	20115
895.161	20256
895.283	20149
895.405	20172
895.526	20339
895.648	20225
895.769	20229
895.891	20278
896.012	20267
896.134	20183
896.255	20244
896.376	20122
896.498	20195
896.619	20355
896.74	20271
896.861	20290
896.982	20457
897.103	20674
897.224	20473
897.345	20370
897.466	20362
897.587	20499
897.708	20457
897.828	20434
897.949	20446
898.07	20221
898.19	20400
898.311	20560
898.431	20377
898.552	20385
898.672	20499
898.792	20560
898.913	20492
899.033	20324
899.153	20305
899.273	20218
899.393	20256
899.513	20164
899.633	20199
899.753	20267
899.873	20122
899.993	20202
900.113	20046
900.232	20145
900.352	20111
900.472	19997
900.591	19875
900.711	19970
900.83	19887
900.95	20027
901.069	20001
901.189	19784
901.308	19677
901.427	19518
901.546	19525
901.665	19563
901.784	19499
901.904	19468
902.023	19285
902.141	19206
902.26	19187
902.379	19133
902.498	19103
902.617	19122
902.735	19046
902.854	19019
902.973	18958
903.091	18650
903.21	18795
903.328	18661
903.446	18669
903.565	18517
903.683	18513
903.801	18452
903.919	18399
904.038	18422
904.156	18209
904.274	18384
904.392	18357
904.51	18361
904.627	18304
904.745	18410
904.863	18289
904.981	18098
905.098	18015
905.216	18003
905.334	18053
905.451	17927
905.569	17882
905.686	17969
905.803	17977
905.921	17836
906.038	17786
906.155	17794
906.272	17604
906.389	17745
906.506	17429
906.623	17554
906.74	17539
906.857	17364
906.974	17379
907.091	17467
907.208	17661
907.324	17436
907.441	17356
907.557	17143
907.674	17185
907.79	17147
907.907	17261
908.023	17258
908.139	17181
908.256	17143
908.372	17094
908.488	17041
908.604	17010
908.72	17029
908.836	16885
908.952	16824
909.068	16991
909.184	17037
909.3	16877
909.415	16900
909.531	16976
909.647	16835
909.762	16641
909.878	16634
909.993	16649
910.108	16592
910.224	16569
910.339	16626
910.454	16603
910.57	16451
910.685	16299
910.8	16649
910.915	16577
911.03	16455
911.145	16303
911.259	16265
911.374	16238
911.489	16116
911.604	16017
911.718	15899
911.833	15968
911.947	15922
912.062	15755
912.176	15926
912.291	15998
912.405	15956
912.519	16223
912.633	16147
912.748	16029
912.862	15884
912.976	15873
913.09	15694
913.204	15720
913.318	15827
913.431	15888
913.545	15831
913.659	15857
913.772	15701
913.886	15591
914	15610
914.113	15629
914.226	15698
914.34	15603
914.453	15382
914.566	15584
914.68	15564
914.793	15462
914.906	15256
915.019	15222
915.132	15104
915.245	15241
915.358	15272
915.47	15218
915.583	15214
915.696	15188
915.809	15367
915.921	15260
916.034	15123
916.146	15150
916.259	14967
916.371	15081
916.483	15074
916.595	15017
916.708	14998
916.82	15032
916.932	14994
917.044	14883
917.156	14944
917.268	14800
917.38	14975
917.491	14823
917.603	14921
917.715	14830
917.826	14925
917.938	14823
918.049	14693
918.161	14716
918.272	14948
918.384	14842
918.495	14746
918.606	14598
918.717	14583
918.828	14667
918.939	14579
919.05	14537
919.161	14583
919.272	14396
919.383	14469
919.494	14655
919.604	14826
919.715	14522
919.826	14495
919.936	14518
920.047	14579
920.157	14507
920.267	14765
920.378	14556
920.488	14370
920.598	14682
920.708	14800
920.818	14720
920.928	14701
921.038	14781
921.148	14807
921.258	14518
921.368	14336
921.477	14336
921.587	14328
921.697	14096
921.806	14324
921.916	14218
922.025	14062
922.134	13989
922.244	13883
922.353	13925
922.462	13776
922.571	13761
922.68	13655
922.789	13556
922.898	13563
923.007	13544
923.116	13689
923.224	13567
923.333	13548
923.442	13453
923.55	13438
923.659	13476
923.767	13460
923.876	13327
923.984	13521
924.092	13343
924.201	13320
924.309	13400
924.417	13308
924.525	13217
924.633	13358
924.741	14237
924.849	13122
924.956	13221
925.064	13114
925.172	12901
925.279	13000
925.387	13156
925.494	13015
925.602	13122
925.709	12958
925.816	12852
925.924	12871
926.031	12996
926.138	12875
926.245	12989
926.352	12875
926.459	13000
926.566	13000
926.673	12897
926.779	12764
926.886	12734
926.993	12623
927.099	12582
927.206	12536
927.312	12483
927.419	12616
927.525	12608
927.631	12566
927.737	12399
927.843	12448
927.95	12319
928.056	12353
928.162	12395
928.267	12464
928.373	13122
928.479	12494
928.585	12159
928.69	12338
928.796	12350
928.901	12243
929.007	12136
929.112	12258
929.218	12251
929.323	12129
929.428	12053
929.533	12194
929.638	11988
929.743	12038
929.848	12148
929.953	12049
930.058	12030
930.163	11783
930.267	11733
930.372	11958
930.477	11790
930.581	12068
930.685	11805
930.79	11722
930.894	11699
930.998	11710
931.103	11741
931.207	11429
931.311	11349
931.415	11292
931.519	11048
931.623	11079
