Data from test_V78500241_2129.txt Node
Date: Fri Mar 25 15:56:32 CST 2022
User: usil
Spectrometer: V785-0024
Trigger mode: 0
Integration Time (sec): 4.000000E-1
Scans to average: 1
Nonlinearity correction enabled: false
Boxcar width: 0
Storing dark spectrum: false
XAxis mode: Wavelengths
Number of Pixels in Spectrum: 1024
>>>>>Begin Spectral Data<<<<<
801.071	28999
801.214	28999
801.356	28820
801.499	28660
801.641	28668
801.783	28592
801.926	28626
802.068	28436
802.211	28455
802.353	28573
802.496	28428
802.638	28360
802.78	28204
802.923	28223
803.065	28120
803.208	28249
803.35	28325
803.492	28508
803.635	28401
803.777	28451
803.919	28618
804.061	28862
804.204	28618
804.346	28443
804.488	28337
804.63	28504
804.773	28474
804.915	28679
805.057	28649
805.199	28569
805.341	28637
805.483	28580
805.626	28599
805.768	28531
805.91	28752
806.052	28763
806.194	28485
806.336	28854
806.478	28782
806.62	28752
806.762	28725
806.904	29094
807.046	29288
807.188	29193
807.33	29174
807.472	29117
807.614	29155
807.756	29143
807.898	28953
808.04	29018
808.182	29079
808.324	29071
808.465	29166
808.607	29246
808.749	29379
808.891	29391
809.033	29649
809.174	29611
809.316	29330
809.458	29535
809.6	29345
809.741	29433
809.883	29535
810.025	29802
810.166	29722
810.308	29775
810.45	29668
810.591	29493
810.733	29554
810.875	29497
811.016	29406
811.158	29132
811.299	29627
811.441	29649
811.582	29623
811.724	29497
811.865	29204
812.007	29440
812.148	29493
812.29	29531
812.431	29543
812.573	29821
812.714	29745
812.855	29912
812.997	29866
813.138	30129
813.279	30072
813.421	29965
813.562	29813
813.703	29752
813.845	29775
813.986	29490
814.127	29429
814.268	29124
814.41	29159
814.551	29151
814.692	29102
814.833	29254
814.974	29121
815.115	29250
815.256	29029
815.397	29075
815.539	29181
815.68	29041
815.821	28774
815.962	29022
816.103	28927
816.244	28763
816.385	28866
816.526	28626
816.666	28687
816.807	28573
816.948	28596
817.089	28626
817.23	28500
817.371	28554
817.512	28561
817.653	28436
817.793	28234
817.934	28314
818.075	28588
818.216	28504
818.356	28523
818.497	28390
818.638	28268
818.778	28169
818.919	28211
819.06	28215
819.2	28356
819.341	28592
819.481	28561
819.622	28615
819.762	28847
819.903	28748
820.043	28706
820.184	28607
820.324	28580
820.465	28683
820.605	28656
820.746	28710
820.886	28512
821.026	28569
821.167	28656
821.307	28729
821.447	28554
821.588	28226
821.728	28333
821.868	28158
822.008	28059
822.149	27846
822.289	27869
822.429	27679
822.569	27519
822.709	27701
822.849	27492
822.99	27545
823.13	27485
823.27	27374
823.41	27325
823.55	27226
823.69	27374
823.83	27211
823.97	27348
824.11	27135
824.25	27047
824.389	27256
824.529	27195
824.669	26998
824.809	27214
824.949	27249
825.089	27192
825.228	27188
825.368	26956
825.508	26982
825.648	26956
825.787	27020
825.927	27108
826.067	27058
826.206	27062
826.346	26998
826.485	27077
826.625	27070
826.765	27093
826.904	27127
827.044	26975
827.183	26895
827.323	26583
827.462	26785
827.601	26750
827.741	26796
827.88	26842
828.02	26720
828.159	26686
828.298	26739
828.437	26872
828.577	26651
828.716	26765
828.855	26632
828.994	26305
829.134	26503
829.273	26473
829.412	26412
829.551	26324
829.69	26358
829.829	26480
829.968	26396
830.107	26583
830.246	26480
830.385	26237
830.524	26358
830.663	26313
830.802	26161
830.941	25868
831.08	26012
831.219	25963
831.357	26138
831.496	26290
831.635	26031
831.774	25982
831.913	25928
832.051	25856
832.19	25780
832.329	25807
832.467	25605
832.606	25632
832.744	25586
832.883	25670
833.022	25590
833.16	25582
833.299	25742
833.437	25693
833.576	25909
833.714	25780
833.852	25822
833.991	25772
834.129	25784
834.267	25890
834.406	25791
834.544	25906
834.682	25799
834.821	25734
834.959	25875
835.097	25647
835.235	25894
835.373	25624
835.511	25757
835.65	25597
835.788	25635
835.926	25578
836.064	25369
836.202	25388
836.34	25559
836.478	25753
836.615	25559
836.753	25597
836.891	25529
837.029	25651
837.167	25483
837.305	25483
837.443	25510
837.58	25457
837.718	25468
837.856	25381
837.993	25308
838.131	25422
838.269	25312
838.406	25282
838.544	25285
838.681	25050
838.819	24943
838.956	24878
839.094	24863
839.231	24939
839.369	25122
839.506	25175
839.643	25126
839.781	24916
839.918	24817
840.055	24814
840.193	24760
840.33	24700
840.467	24783
840.604	24867
840.742	25008
840.879	24673
841.016	24650
841.153	24547
841.29	24859
841.427	24798
841.564	24787
841.701	24639
841.838	24787
841.975	24547
842.112	24669
842.249	24703
842.385	24532
842.522	24749
842.659	24623
842.796	24570
842.933	24479
843.069	24414
843.206	24414
843.343	24597
843.479	24593
843.616	24460
843.752	24361
843.889	24418
844.025	24467
844.162	24315
844.298	24338
844.435	24334
844.571	24270
844.708	24369
844.844	24429
844.98	24460
845.117	24372
845.253	24220
845.389	24079
845.525	24243
845.661	24064
845.798	23973
845.934	24106
846.07	24015
846.206	24129
846.342	24136
846.478	24083
846.614	23783
846.75	23722
846.886	23760
847.022	23836
847.158	23760
847.294	23916
847.429	23737
847.565	23794
847.701	23866
847.837	23520
847.972	23535
848.108	23573
848.244	23414
848.379	23417
848.515	23353
848.65	23433
848.786	23391
848.921	23376
849.057	23512
849.192	23383
849.328	23368
849.463	23376
849.598	23216
849.734	23322
849.869	23208
850.004	23155
850.14	23124
850.275	23014
850.41	23121
850.545	23079
850.68	22908
850.815	23132
850.95	23003
851.085	23318
851.22	23258
851.355	23109
851.49	23166
851.625	23025
851.76	23067
851.895	23044
852.03	23022
852.165	23227
852.299	23098
852.434	23220
852.569	23174
852.703	23174
852.838	23136
852.973	23033
853.107	23258
853.242	22957
853.376	22923
853.511	22771
853.645	22793
853.78	22980
853.914	22934
854.048	22812
854.183	22938
854.317	23124
854.451	23216
854.585	22938
854.72	22896
854.854	22999
854.988	22866
855.122	22896
855.256	22873
855.39	22820
855.524	22961
855.658	22938
855.792	22904
855.926	22866
856.06	23025
856.194	22991
856.327	22995
856.461	22839
856.595	22965
856.729	22946
856.862	22965
856.996	22976
857.13	23052
857.263	23064
857.397	23006
857.53	22759
857.664	22991
857.797	22854
857.931	23010
858.064	22930
858.197	23025
858.331	22934
858.464	22889
858.597	22866
858.731	22885
858.864	22729
858.997	22831
859.13	22957
859.263	22835
859.396	22885
859.529	22812
859.662	22949
859.795	22790
859.928	22911
860.061	23052
860.194	23094
860.327	22953
860.46	22889
860.592	23136
860.725	23124
860.858	22987
860.99	22946
861.123	22759
861.256	22892
861.388	22938
861.521	23490
861.653	22858
861.786	22664
861.918	22698
862.05	22812
862.183	22839
862.315	22889
862.447	22881
862.58	22824
862.712	22622
862.844	22580
862.976	22729
863.108	22672
863.24	23094
863.372	22622
863.504	22573
863.636	22660
863.768	22713
863.9	22603
864.032	22573
864.164	22542
864.296	22702
864.428	22752
864.559	22557
864.691	22721
864.823	22554
864.954	22569
865.086	22504
865.217	22382
865.349	22413
865.48	22398
865.612	22504
865.743	22523
865.875	22497
866.006	22375
866.137	22580
866.269	22485
866.4	22577
866.531	22382
866.662	22489
866.793	22455
866.924	22325
867.055	22363
867.186	22325
867.317	22325
867.448	22272
867.579	22375
867.71	22207
867.841	22360
867.972	22382
868.103	22436
868.233	22417
868.364	22489
868.495	22493
868.625	22596
868.756	22850
868.886	22508
869.017	22538
869.147	22694
869.278	22725
869.408	22748
869.539	22649
869.669	22687
869.799	22733
869.929	22805
870.06	22771
870.19	23071
870.32	22984
870.45	23090
870.58	22946
870.71	23170
870.84	23212
870.97	22995
871.1	23181
871.23	23197
871.36	23379
871.489	23132
871.619	23231
871.749	23231
871.879	23231
872.008	23383
872.138	23246
872.267	23288
872.397	23147
872.526	23064
872.656	23048
872.785	23098
872.915	23250
873.044	23326
873.173	23364
873.303	23353
873.432	23220
873.561	23277
873.69	23181
873.819	23265
873.948	23318
874.077	23303
874.206	23136
874.335	23273
874.464	23387
874.593	23452
874.722	23486
874.851	23493
874.979	23547
875.108	23478
875.237	23376
875.365	23315
875.494	23391
875.623	23592
875.751	23417
875.88	23528
876.008	23570
876.136	23699
876.265	23847
876.393	23828
876.521	24011
876.65	23897
876.778	23866
876.906	23790
877.034	23836
877.162	23672
877.29	23729
877.418	23866
877.546	23821
877.674	23729
877.802	23817
877.93	23748
878.058	23904
878.185	23589
878.313	23703
878.441	23748
878.568	23707
878.696	23684
878.824	23771
878.951	23927
879.079	23931
879.206	24117
879.333	23821
879.461	23942
879.588	23821
879.715	23847
879.842	24007
879.97	23809
880.097	23653
880.224	23672
880.351	23714
880.478	23589
880.605	23543
880.732	23737
880.859	23767
880.986	23726
881.112	23608
881.239	23398
881.366	23398
881.493	23174
881.619	23227
881.746	23200
881.872	23178
881.999	23124
882.125	23208
882.252	23334
882.378	23094
882.505	23288
882.631	22980
882.757	22820
882.883	22930
883.01	22812
883.136	22793
883.262	22656
883.388	22793
883.514	22809
883.64	22866
883.766	22782
883.892	22508
884.018	22672
884.143	22824
884.269	22782
884.395	22504
884.52	22413
884.646	22462
884.772	22531
884.897	22192
885.023	22447
885.148	22527
885.274	22653
885.399	22436
885.524	22497
885.65	22535
885.775	22447
885.9	22436
886.025	22584
886.15	22535
886.275	22436
886.4	22405
886.525	22428
886.65	22394
886.775	22436
886.9	22535
887.025	22592
887.149	22337
887.274	22402
887.399	22268
887.523	22150
887.648	22070
887.773	22051
887.897	22226
888.021	22215
888.146	22185
888.27	22451
888.395	22424
888.519	22314
888.643	22287
888.767	22219
888.891	22135
889.015	21983
889.139	22185
889.263	21987
889.387	22128
889.511	22246
889.635	22188
889.759	22059
889.883	21975
890.006	21968
890.13	22044
890.254	22002
890.377	21846
890.501	21800
890.624	21675
890.748	21842
890.871	21622
890.995	21587
891.118	21515
891.241	21542
891.364	21610
891.488	21648
891.611	21622
891.734	21424
891.857	21625
891.98	21530
892.103	21698
892.226	21515
892.349	21481
892.471	21336
892.594	21458
892.717	21534
892.839	21332
892.962	21447
893.085	21428
893.207	21245
893.33	21237
893.452	21192
893.575	21488
893.697	21321
893.819	21580
893.941	21690
894.064	21500
894.186	21439
894.308	21332
894.43	21538
894.552	21583
894.674	21447
894.796	21439
894.918	21401
895.04	21397
895.161	21492
895.283	21523
895.405	21241
895.526	21507
895.648	21439
895.769	21310
895.891	21553
896.012	21603
896.134	21481
896.255	21454
896.376	21351
896.498	21393
896.619	21473
896.74	21447
896.861	21439
896.982	21720
897.103	21800
897.224	21599
897.345	21603
897.466	21591
897.587	21648
897.708	21652
897.828	21633
897.949	21545
898.07	21443
898.19	21469
898.311	21625
898.431	21603
898.552	21580
898.672	21656
898.792	21667
898.913	21732
899.033	21534
899.153	21408
899.273	21363
899.393	21306
899.513	21534
899.633	21332
899.753	21287
899.873	21245
899.993	21378
900.113	21351
900.232	21256
900.352	21207
900.472	21108
900.591	21123
900.711	21233
900.83	21013
900.95	21142
901.069	21203
901.189	21127
901.308	20800
901.427	20823
901.546	20648
901.665	20667
901.784	20648
901.904	20522
902.023	20434
902.141	20301
902.26	20278
902.379	20374
902.498	20225
902.617	20081
902.735	20240
902.854	20111
902.973	20088
903.091	19944
903.21	19822
903.328	19795
903.446	19727
903.565	19609
903.683	19704
903.801	19487
903.919	19681
904.038	19658
904.156	19396
904.274	19453
904.392	19362
904.51	19403
904.627	19445
904.745	19373
904.863	19350
904.981	19168
905.098	19099
905.216	18970
905.334	19118
905.451	19076
905.569	19065
905.686	19072
905.803	18989
905.921	18867
906.038	18894
906.155	18856
906.272	18787
906.389	18787
906.506	18593
906.623	18574
906.74	18593
906.857	18437
906.974	18536
907.091	18646
907.208	18684
907.324	18506
907.441	18426
907.557	18334
907.674	18319
907.79	18178
907.907	18209
908.023	18304
908.139	18228
908.256	18178
908.372	18026
908.488	18171
908.604	18015
908.72	17950
908.836	17961
908.952	17931
909.068	18022
909.184	18155
909.3	17931
909.415	18057
909.531	18003
909.647	17756
909.762	17718
909.878	17687
909.993	17642
910.108	17703
910.224	17490
910.339	17691
910.454	17501
910.57	17501
910.685	17524
910.8	17710
910.915	17608
911.03	17455
911.145	17334
911.259	17128
911.374	17197
911.489	17178
911.604	17170
911.718	16946
911.833	16976
911.947	16961
912.062	16896
912.176	17010
912.291	17037
912.405	16987
912.519	17151
912.633	17197
912.748	17048
912.862	16972
912.976	16843
913.09	16710
913.204	16733
913.318	16797
913.431	16911
913.545	16835
913.659	16873
913.772	16793
913.886	16736
914	16554
914.113	16599
914.226	16687
914.34	16637
914.453	16531
914.566	16516
914.68	16455
914.793	16451
914.906	16257
915.019	16196
915.132	16169
915.245	16025
915.358	16154
915.47	16162
915.583	16196
915.696	16173
915.809	16249
915.921	16379
916.034	16112
916.146	16219
916.259	15998
916.371	16143
916.483	16032
916.595	16010
916.708	16048
916.82	15964
916.932	15941
917.044	15922
917.156	15922
917.268	15747
917.38	15743
917.491	15724
917.603	15770
917.715	15892
917.826	15785
917.938	15690
918.049	15618
918.161	15641
918.272	15850
918.384	15675
918.495	15701
918.606	15462
918.717	15439
918.828	15564
918.939	15595
919.05	15317
919.161	15492
919.272	15306
919.383	15306
919.494	15523
919.604	15663
919.715	15447
919.826	15439
919.936	15374
920.047	15492
920.157	15466
920.267	15667
920.378	15515
920.488	15447
920.598	15610
920.708	15705
920.818	15648
920.928	15454
921.038	15778
921.148	15629
921.258	15389
921.368	15351
921.477	15222
921.587	15165
921.697	15055
921.806	15226
921.916	15032
922.025	14914
922.134	14804
922.244	14788
922.353	14815
922.462	14644
922.571	14689
922.68	14446
922.789	14480
922.898	14495
923.007	14298
923.116	14480
923.224	14381
923.333	14419
923.442	14317
923.55	14336
923.659	14240
923.767	14389
923.876	14225
923.984	14309
924.092	14218
924.201	14256
924.309	14210
924.417	14180
924.525	14092
924.633	14130
924.741	14918
924.849	13909
924.956	13997
925.064	13879
925.172	13784
925.279	13818
925.387	13818
925.494	13803
925.602	13898
925.709	13894
925.816	13742
925.924	13776
926.031	13845
926.138	13712
926.245	13753
926.352	13734
926.459	13685
926.566	13887
926.673	13685
926.779	13544
926.886	13624
926.993	13343
927.099	13381
927.206	13350
927.312	13320
927.419	13343
927.525	13263
927.631	13373
927.737	13285
927.843	13171
927.95	13088
928.056	13179
928.162	13156
928.267	13278
928.373	13826
928.479	13213
928.585	13004
928.69	13190
928.796	13213
928.901	12966
929.007	12878
929.112	13012
929.218	12962
929.323	12913
929.428	12894
929.533	12981
929.638	12787
929.743	12684
929.848	12806
929.953	12726
930.058	12612
930.163	12525
930.267	12559
930.372	12639
930.477	12441
930.581	12646
930.685	12585
930.79	12437
930.894	12464
930.998	12407
931.103	12479
931.207	12148
931.311	12049
931.415	11882
931.519	11817
931.623	11748
