Data from test_V78500241_3399.txt Node
Date: Fri Mar 25 16:05:20 CST 2022
User: usil
Spectrometer: V785-0024
Trigger mode: 0
Integration Time (sec): 4.000000E-1
Scans to average: 1
Nonlinearity correction enabled: false
Boxcar width: 0
Storing dark spectrum: false
XAxis mode: Wavelengths
Number of Pixels in Spectrum: 1024
>>>>>Begin Spectral Data<<<<<
801.071	28459
801.214	28470
801.356	28276
801.499	28188
801.641	27983
801.783	27998
801.926	28166
802.068	27975
802.211	28143
802.353	27930
802.496	27968
802.638	27816
802.78	27656
802.923	27675
803.065	27633
803.208	27660
803.35	27690
803.492	27903
803.635	27998
803.777	27816
803.919	27956
804.061	28295
804.204	28078
804.346	27808
804.488	27865
804.63	28032
804.773	27953
804.915	28131
805.057	27975
805.199	28010
805.341	28082
805.483	27979
805.626	28188
805.768	27953
805.91	28223
806.052	28219
806.194	28082
806.336	28116
806.478	28226
806.62	28116
806.762	28276
806.904	28440
807.046	28607
807.188	28577
807.33	28645
807.472	28599
807.614	28500
807.756	28462
807.898	28542
808.04	28299
808.182	28459
808.324	28401
808.465	28485
808.607	28835
808.749	28752
808.891	28904
809.033	28980
809.174	28923
809.316	28881
809.458	28721
809.6	28885
809.741	29029
809.883	28900
810.025	29189
810.166	29044
810.308	29105
810.45	29086
810.591	29044
810.733	28881
810.875	28835
811.016	28725
811.158	28774
811.299	28831
811.441	28938
811.582	28972
811.724	29006
811.865	28744
812.007	28672
812.148	28881
812.29	28854
812.431	28923
812.573	29071
812.714	29280
812.855	29246
812.997	29448
813.138	29592
813.279	29406
813.421	29315
813.562	29155
813.703	29155
813.845	29102
813.986	28729
814.127	28687
814.268	28634
814.41	28622
814.551	28687
814.692	28634
814.833	28481
814.974	28561
815.115	28660
815.256	28531
815.397	28443
815.539	28519
815.68	28348
815.821	28185
815.962	28348
816.103	28348
816.244	28173
816.385	28173
816.526	28177
816.666	27869
816.807	27785
816.948	27960
817.089	27895
817.23	27800
817.371	27987
817.512	27724
817.653	27823
817.793	27755
817.934	27762
818.075	27842
818.216	27838
818.356	27861
818.497	27549
818.638	27595
818.778	27675
818.919	27606
819.06	27648
819.2	27690
819.341	27857
819.481	27622
819.622	27945
819.762	28185
819.903	28287
820.043	28025
820.184	27979
820.324	27899
820.465	27960
820.605	27975
820.746	27960
820.886	27808
821.026	27880
821.167	27884
821.307	27975
821.447	27937
821.588	27774
821.728	27709
821.868	27492
822.008	27393
822.149	27249
822.289	27298
822.429	27074
822.569	26944
822.709	26986
822.849	26891
822.99	26876
823.13	26792
823.27	26731
823.41	26727
823.55	26549
823.69	26682
823.83	26670
823.97	26663
824.11	26499
824.25	26294
824.389	26560
824.529	26537
824.669	26480
824.809	26617
824.949	26438
825.089	26606
825.228	26621
825.368	26339
825.508	26313
825.648	26377
825.787	26324
825.927	26511
826.067	26412
826.206	26434
826.346	26431
826.485	26541
826.625	26419
826.765	26560
826.904	26366
827.044	26187
827.183	26157
827.323	26020
827.462	26069
827.601	26126
827.741	26073
827.88	26134
828.02	25738
828.159	26176
828.298	26145
828.437	26077
828.577	26077
828.716	26225
828.855	25928
828.994	25795
829.134	25738
829.273	25830
829.412	25780
829.551	25723
829.69	25639
829.829	25883
829.968	25921
830.107	25704
830.246	25769
830.385	25704
830.524	25780
830.663	25677
830.802	25476
830.941	25403
831.08	25232
831.219	25529
831.357	25518
831.496	25734
831.635	25438
831.774	25217
831.913	25324
832.051	25129
832.19	25103
832.329	25088
832.467	25065
832.606	25103
832.744	25004
832.883	25156
833.022	24939
833.16	25027
833.299	25038
833.437	25088
833.576	25168
833.714	25118
833.852	25209
833.991	25194
834.129	25240
834.267	25133
834.406	25133
834.544	25171
834.682	25160
834.821	25118
834.959	25343
835.097	25088
835.235	25129
835.373	25145
835.511	25145
835.65	24886
835.788	24951
835.926	24692
836.064	24677
836.202	24806
836.34	24909
836.478	25053
836.615	24829
836.753	24901
836.891	24871
837.029	24989
837.167	24844
837.305	24859
837.443	24734
837.58	24707
837.718	24791
837.856	24681
837.993	24700
838.131	24658
838.269	24639
838.406	24673
838.544	24589
838.681	24346
838.819	24380
838.956	24319
839.094	24311
839.231	24254
839.369	24380
839.506	24631
839.643	24399
839.781	24289
839.918	24098
840.055	24327
840.193	24197
840.33	24182
840.467	24159
840.604	24053
840.742	24467
840.879	23969
841.016	24144
841.153	24121
841.29	24327
841.427	24068
841.564	24159
841.701	24079
841.838	24140
841.975	23992
842.112	24049
842.249	23980
842.385	23893
842.522	24136
842.659	23984
842.796	23923
842.933	23878
843.069	23790
843.206	23794
843.343	23980
843.479	23901
843.616	23916
843.752	23577
843.889	23589
844.025	23783
844.162	23707
844.298	23760
844.435	23665
844.571	23608
844.708	23752
844.844	23779
844.98	23813
845.117	23843
845.253	23573
845.389	23543
845.525	23474
845.661	23543
845.798	23467
845.934	23619
846.07	23379
846.206	23501
846.342	23551
846.478	23379
846.614	23200
846.75	23067
846.886	23181
847.022	23216
847.158	23185
847.294	23064
847.429	23193
847.565	23018
847.701	23391
847.837	22953
847.972	22850
848.108	22995
848.244	22812
848.379	22900
848.515	22748
848.65	22683
848.786	22721
848.921	22736
849.057	22824
849.192	22698
849.328	22679
849.463	22755
849.598	22744
849.734	22687
849.869	22573
850.004	22360
850.14	22611
850.275	22409
850.41	22398
850.545	22390
850.68	22413
850.815	22618
850.95	22371
851.085	22698
851.22	22630
851.355	22630
851.49	22470
851.625	22455
851.76	22447
851.895	22462
852.03	22485
852.165	22523
852.299	22588
852.434	22580
852.569	22356
852.703	22470
852.838	22584
852.973	22466
853.107	22637
853.242	22489
853.376	22341
853.511	22128
853.645	22181
853.78	22436
853.914	22325
854.048	22276
854.183	22333
854.317	22272
854.451	22367
854.585	22306
854.72	22196
854.854	22424
854.988	22249
855.122	22348
855.256	22112
855.39	22280
855.524	22360
855.658	22295
855.792	22303
855.926	22287
856.06	22405
856.194	22303
856.327	22322
856.461	22249
856.595	22284
856.729	22257
856.862	22322
856.996	22386
857.13	22363
857.263	22493
857.397	22390
857.53	22257
857.664	22424
857.797	22421
857.931	22417
858.064	22253
858.197	22478
858.331	22341
858.464	22299
858.597	22249
858.731	22314
858.864	22314
858.997	22436
859.13	22284
859.263	22291
859.396	22398
859.529	22360
859.662	22261
859.795	22253
859.928	22325
860.061	22535
860.194	22386
860.327	22280
860.46	22405
860.592	22394
860.725	22554
860.858	22428
860.99	22246
861.123	22185
861.256	22234
861.388	22344
861.521	23212
861.653	22280
861.786	22116
861.918	22109
862.05	22207
862.183	22207
862.315	22249
862.447	22306
862.58	22211
862.712	22200
862.844	21979
862.976	22040
863.108	22181
863.24	22603
863.372	21915
863.504	21861
863.636	21895
863.768	21994
863.9	21949
864.032	22013
864.164	21991
864.296	22010
864.428	22040
864.559	22040
864.691	22116
864.823	22006
864.954	22025
865.086	21949
865.217	21816
865.349	21846
865.48	21937
865.612	21926
865.743	21930
865.875	21899
866.006	21941
866.137	22032
866.269	22021
866.4	21857
866.531	21804
866.662	21861
866.793	21857
866.924	21766
867.055	21808
867.186	21808
867.317	21854
867.448	21903
867.579	21800
867.71	21675
867.841	21728
867.972	21835
868.103	21747
868.233	21816
868.364	21842
868.495	21800
868.625	21941
868.756	22109
868.886	21941
869.017	22078
869.147	22196
869.278	22211
869.408	22120
869.539	22059
869.669	22169
869.799	22143
869.929	22257
870.06	22124
870.19	22417
870.32	22344
870.45	22367
870.58	22375
870.71	22634
870.84	22436
870.97	22443
871.1	22424
871.23	22618
871.36	22615
871.489	22504
871.619	22554
871.749	22561
871.879	22626
872.008	22691
872.138	22736
872.267	22607
872.397	22573
872.526	22615
872.656	22489
872.785	22519
872.915	22771
873.044	22759
873.173	22653
873.303	22706
873.432	22771
873.561	22687
873.69	22740
873.819	22691
873.948	22683
874.077	22687
874.206	22630
874.335	22641
874.464	22862
874.593	22919
874.722	22812
874.851	22984
874.979	22797
875.108	22980
875.237	22984
875.365	22854
875.494	22790
875.623	22942
875.751	22885
875.88	22972
876.008	22995
876.136	23079
876.265	23181
876.393	23364
876.521	23330
876.65	23398
876.778	23235
876.906	23193
877.034	23098
877.162	23288
877.29	23155
877.418	23242
877.546	23292
877.674	23140
877.802	23178
877.93	23318
878.058	23242
878.185	23254
878.313	23147
878.441	23178
878.568	23162
878.696	23136
878.824	23181
878.951	23364
879.079	23512
879.206	23596
879.333	23376
879.461	23296
879.588	23463
879.715	23383
879.842	23448
879.97	23322
880.097	23166
880.224	23037
880.351	23155
880.478	23181
880.605	23041
880.732	22999
880.859	23296
880.986	23197
881.112	23056
881.239	22957
881.366	22812
881.493	22748
881.619	22725
881.746	22649
881.872	22656
881.999	22675
882.125	22660
882.252	22599
882.378	22535
882.505	22641
882.631	22478
882.757	22375
882.883	22481
883.01	22280
883.136	22314
883.262	22238
883.388	22128
883.514	22246
883.64	22291
883.766	22299
883.892	22200
884.018	22234
884.143	22246
884.269	22287
884.395	22006
884.52	21949
884.646	21945
884.772	21918
884.897	21857
885.023	21972
885.148	21949
885.274	22105
885.399	21964
885.524	21945
885.65	22086
885.775	22055
885.9	21861
886.025	21994
886.15	21960
886.275	21899
886.4	21827
886.525	21987
886.65	21934
886.775	21865
886.9	22048
887.025	21983
887.149	22044
887.274	21728
887.399	21637
887.523	21732
887.648	21709
887.773	21564
887.897	21667
888.021	21717
888.146	21660
888.27	21827
888.395	21774
888.519	21675
888.643	21739
888.767	21690
888.891	21709
889.015	21599
889.139	21576
889.263	21458
889.387	21572
889.511	21705
889.635	21701
889.759	21553
889.883	21428
890.006	21542
890.13	21568
890.254	21458
890.377	21416
890.501	21272
890.624	21142
890.748	21329
890.871	21138
890.995	20994
891.118	21036
891.241	21093
891.364	21047
891.488	21123
891.611	21176
891.734	21017
891.857	21077
891.98	21119
892.103	21047
892.226	21176
892.349	21024
892.471	21005
892.594	21093
892.717	20979
892.839	20925
892.962	20994
893.085	20982
893.207	20914
893.33	20876
893.452	20762
893.575	20914
893.697	20830
893.819	21093
893.941	21062
894.064	21020
894.186	20857
894.308	20826
894.43	20937
894.552	21157
894.674	20998
894.796	20842
894.918	21024
895.04	20883
895.161	21116
895.283	21005
895.405	20857
895.526	20891
895.648	20990
895.769	20929
895.891	20941
896.012	20876
896.134	20986
896.255	20944
896.376	20842
896.498	20948
896.619	20937
896.74	20975
896.861	20914
896.982	21222
897.103	21386
897.224	21169
897.345	21081
897.466	20937
897.587	21161
897.708	21321
897.828	21230
897.949	20986
898.07	21009
898.19	20963
898.311	21214
898.431	21055
898.552	21043
898.672	21089
898.792	21199
898.913	21036
899.033	20929
899.153	20861
899.273	20899
899.393	20864
899.513	20948
899.633	20876
899.753	20918
899.873	20750
899.993	20929
900.113	20735
900.232	20830
900.352	20720
900.472	20632
900.591	20507
900.711	20564
900.83	20720
900.95	20701
901.069	20731
901.189	20545
901.308	20290
901.427	20149
901.546	20214
901.665	20168
901.784	20187
901.904	20092
902.023	20020
902.141	19765
902.26	19685
902.379	19818
902.498	19772
902.617	19723
902.735	19696
902.854	19696
902.973	19567
903.091	19365
903.21	19358
903.328	19384
903.446	19225
903.565	19285
903.683	19247
903.801	19061
903.919	19080
904.038	19084
904.156	19031
904.274	18985
904.392	18905
904.51	18837
904.627	18901
904.745	19019
904.863	18993
904.981	18753
905.098	18669
905.216	18544
905.334	18650
905.451	18540
905.569	18646
905.686	18635
905.803	18715
905.921	18391
906.038	18490
906.155	18410
906.272	18327
906.389	18308
906.506	18079
906.623	18136
906.74	18178
906.857	18102
906.974	17912
907.091	18159
907.208	18209
907.324	18057
907.441	18022
907.557	17824
907.674	17741
907.79	17794
907.907	17817
908.023	17798
908.139	17817
908.256	17741
908.372	17760
908.488	17653
908.604	17577
908.72	17604
908.836	17566
908.952	17516
909.068	17570
909.184	17596
909.3	17509
909.415	17554
909.531	17566
909.647	17250
909.762	17288
909.878	17299
909.993	17288
910.108	17273
910.224	17189
910.339	17166
910.454	17124
910.57	17143
910.685	16953
910.8	17330
910.915	17147
911.03	17140
911.145	16866
911.259	16752
911.374	16854
911.489	16801
911.604	16748
911.718	16641
911.833	16535
911.947	16508
912.062	16466
912.176	16596
912.291	16580
912.405	16531
912.519	16649
912.633	16831
912.748	16558
912.862	16478
912.976	16390
913.09	16310
913.204	16379
913.318	16451
913.431	16508
913.545	16485
913.659	16478
913.772	16303
913.886	16333
914	16219
914.113	16337
914.226	16432
914.34	16306
914.453	16040
914.566	16207
914.68	15991
914.793	16044
914.906	15930
915.019	15781
915.132	15698
915.245	15793
915.358	15819
915.47	15778
915.583	15888
915.696	15838
915.809	15850
915.921	15953
916.034	15728
916.146	15606
916.259	15637
916.371	15701
916.483	15823
916.595	15587
916.708	15584
916.82	15591
916.932	15545
917.044	15500
917.156	15538
917.268	15378
917.38	15466
917.491	15397
917.603	15580
917.715	15485
917.826	15507
917.938	15359
918.049	15222
918.161	15321
918.272	15591
918.384	15416
918.495	15256
918.606	15157
918.717	15104
918.828	15218
918.939	15123
919.05	15066
919.161	15062
919.272	14990
919.383	14956
919.494	15237
919.604	15355
919.715	15195
919.826	14986
919.936	15097
920.047	15207
920.157	15146
920.267	15329
920.378	15165
920.488	15161
920.598	15287
920.708	15389
920.818	15279
920.928	15211
921.038	15420
921.148	15382
921.258	15051
921.368	14891
921.477	14948
921.587	14857
921.697	14777
921.806	14807
921.916	14781
922.025	14564
922.134	14549
922.244	14499
922.353	14583
922.462	14438
922.571	14248
922.68	14225
922.789	14031
922.898	14206
923.007	14039
923.116	14168
923.224	14191
923.333	14142
923.442	13944
923.55	13898
923.659	13967
923.767	13986
923.876	13833
923.984	13883
924.092	13845
924.201	13814
924.309	13898
924.417	13947
924.525	13814
924.633	13780
924.741	14743
924.849	13567
924.956	13605
925.064	13571
925.172	13476
925.279	13476
925.387	13544
925.494	13529
925.602	13666
925.709	13586
925.816	13377
925.924	13407
926.031	13483
926.138	13346
926.245	13460
926.352	13426
926.459	13411
926.566	13445
926.673	13441
926.779	13202
926.886	13194
926.993	13126
927.099	13084
927.206	13053
927.312	13099
927.419	13072
927.525	12993
927.631	13053
927.737	12951
927.843	12890
927.95	12745
928.056	12741
928.162	12821
928.267	12958
928.373	13400
928.479	12966
928.585	12684
928.69	12757
928.796	12848
928.901	12715
929.007	12525
929.112	12608
929.218	12665
929.323	12578
929.428	12467
929.533	12627
929.638	12547
929.743	12517
929.848	12494
929.953	12475
930.058	12372
930.163	12224
930.267	12251
930.372	12399
930.477	12136
930.581	12388
930.685	12323
930.79	12194
930.894	12152
930.998	12148
931.103	12254
931.207	11821
931.311	11843
931.415	11741
931.519	11474
931.623	11452
