Data from test_V78500241_1042.txt Node
Date: Fri Mar 25 15:49:01 CST 2022
User: usil
Spectrometer: V785-0024
Trigger mode: 0
Integration Time (sec): 4.000000E-1
Scans to average: 1
Nonlinearity correction enabled: false
Boxcar width: 0
Storing dark spectrum: false
XAxis mode: Wavelengths
Number of Pixels in Spectrum: 1024
>>>>>Begin Spectral Data<<<<<
801.071	28074
801.214	27960
801.356	27728
801.499	27595
801.641	27523
801.783	27553
801.926	27629
802.068	27405
802.211	27507
802.353	27439
802.496	27104
802.638	26940
802.78	27233
802.923	27074
803.065	27074
803.208	27161
803.35	27165
803.492	27203
803.635	27485
803.777	27226
803.919	27306
804.061	27660
804.204	27393
804.346	27306
804.488	27329
804.63	27313
804.773	27279
804.915	27450
805.057	27420
805.199	27218
805.341	27416
805.483	27420
805.626	27462
805.768	27370
805.91	27595
806.052	27595
806.194	27477
806.336	27648
806.478	27641
806.62	27542
806.762	27793
806.904	27755
807.046	28074
807.188	27953
807.33	28097
807.472	28025
807.614	27850
807.756	27838
807.898	27903
808.04	27762
808.182	27770
808.324	27838
808.465	27808
808.607	27945
808.749	28112
808.891	28280
809.033	28325
809.174	28192
809.316	28139
809.458	28226
809.6	28021
809.741	28082
809.883	28325
810.025	28424
810.166	28405
810.308	28508
810.45	28417
810.591	28367
810.733	28314
810.875	28090
811.016	28253
811.158	28139
811.299	28306
811.441	28405
811.582	28413
811.724	28173
811.865	28169
812.007	28268
812.148	28150
812.29	28200
812.431	28470
812.573	28588
812.714	28569
812.855	28748
812.997	28725
813.138	28862
813.279	28942
813.421	28725
813.562	28649
813.703	28679
813.845	28478
813.986	28139
814.127	27979
814.268	27800
814.41	27907
814.551	27759
814.692	27949
814.833	27895
814.974	27895
815.115	27937
815.256	27793
815.397	27694
815.539	27663
815.68	27587
815.821	27507
815.962	27690
816.103	27660
816.244	27462
816.385	27412
816.526	27511
816.666	27294
816.807	27180
816.948	27214
817.089	27393
817.23	27230
817.371	27093
817.512	27230
817.653	27127
817.793	27237
817.934	27150
818.075	27165
818.216	27161
818.356	27203
818.497	26826
818.638	26876
818.778	26910
818.919	26906
819.06	26986
819.2	27096
819.341	27226
819.481	27074
819.622	27241
819.762	27511
819.903	27393
820.043	27256
820.184	27363
820.324	27245
820.465	27359
820.605	27275
820.746	27302
820.886	27176
821.026	27325
821.167	27260
821.307	27298
821.447	27222
821.588	26944
821.728	26967
821.868	26743
822.008	26743
822.149	26533
822.289	26621
822.429	26328
822.569	26240
822.709	26278
822.849	26157
822.99	26161
823.13	25993
823.27	25925
823.41	25989
823.55	25978
823.69	25932
823.83	25932
823.97	25856
824.11	25822
824.25	25715
824.389	25818
824.529	25913
824.669	25772
824.809	25970
824.949	25849
825.089	25841
825.228	25723
825.368	25677
825.508	25605
825.648	25769
825.787	25803
825.927	25719
826.067	25662
826.206	25715
826.346	25738
826.485	25769
826.625	25769
826.765	25772
826.904	25643
827.044	25441
827.183	25468
827.323	25346
827.462	25381
827.601	25388
827.741	25422
827.88	25388
828.02	25327
828.159	25415
828.298	25392
828.437	25419
828.577	25255
828.716	25365
828.855	25270
828.994	25091
829.134	25095
829.273	25168
829.412	25050
829.551	25137
829.69	25160
829.829	25145
829.968	25103
830.107	25168
830.246	25152
830.385	25019
830.524	24962
830.663	24871
830.802	24646
830.941	24665
831.08	24863
831.219	24749
831.357	24760
831.496	24932
831.635	24734
831.774	24555
831.913	24551
832.051	24574
832.19	24456
832.329	24395
832.467	24330
832.606	24380
832.744	24376
832.883	24403
833.022	24353
833.16	24285
833.299	24464
833.437	24369
833.576	24532
833.714	24429
833.852	24494
833.991	24399
834.129	24517
834.267	24422
834.406	24521
834.544	24285
834.682	24380
834.821	24334
834.959	24563
835.097	24319
835.235	24418
835.373	24422
835.511	24395
835.65	24330
835.788	24311
835.926	24091
836.064	24205
836.202	24129
836.34	24224
836.478	24239
836.615	24213
836.753	24330
836.891	24258
837.029	24197
837.167	24220
837.305	24270
837.443	24072
837.58	24049
837.718	24098
837.856	24038
837.993	24049
838.131	23969
838.269	23939
838.406	24072
838.544	23885
838.681	23703
838.819	23703
838.956	23630
839.094	23551
839.231	23596
839.369	23646
839.506	23942
839.643	23882
839.781	23543
839.918	23501
840.055	23528
840.193	23482
840.33	23623
840.467	23490
840.604	23474
840.742	23718
840.879	23398
841.016	23421
841.153	23364
841.29	23543
841.427	23459
841.564	23497
841.701	23497
841.838	23417
841.975	23414
842.112	23349
842.249	23326
842.385	23280
842.522	23539
842.659	23280
842.796	23162
842.933	23239
843.069	23239
843.206	23124
843.343	23178
843.479	23151
843.616	23372
843.752	22965
843.889	23033
844.025	23056
844.162	22892
844.298	23075
844.435	22987
844.571	23003
844.708	23018
844.844	23143
844.98	23178
845.117	23064
845.253	22968
845.389	22984
845.525	22877
845.661	22885
845.798	22725
845.934	22771
846.07	22664
846.206	22812
846.342	22858
846.478	22580
846.614	22573
846.75	22523
846.886	22451
847.022	22577
847.158	22538
847.294	22428
847.429	22367
847.565	22474
847.701	22656
847.837	22223
847.972	22166
848.108	22276
848.244	22310
848.379	22147
848.515	21972
848.65	22112
848.786	22131
848.921	22017
849.057	22067
849.192	22242
849.328	22128
849.463	22063
849.598	22090
849.734	21998
849.869	21926
850.004	21793
850.14	21812
850.275	21903
850.41	21747
850.545	21804
850.68	21823
850.815	21774
850.95	21831
851.085	21895
851.22	21895
851.355	21812
851.49	21819
851.625	21827
851.76	21819
851.895	21751
852.03	21713
852.165	21873
852.299	21751
852.434	21892
852.569	21819
852.703	21873
852.838	21994
852.973	21911
853.107	21968
853.242	21739
853.376	21766
853.511	21553
853.645	21488
853.78	21743
853.914	21667
854.048	21519
854.183	21713
854.317	21641
854.451	21705
854.585	21614
854.72	21561
854.854	21656
854.988	21443
855.122	21644
855.256	21606
855.39	21545
855.524	21568
855.658	21679
855.792	21751
855.926	21648
856.06	21557
856.194	21819
856.327	21591
856.461	21587
856.595	21644
856.729	21610
856.862	21857
856.996	21652
857.13	21679
857.263	21797
857.397	21793
857.53	21644
857.664	21728
857.797	21751
857.931	21759
858.064	21580
858.197	21751
858.331	21705
858.464	21530
858.597	21481
858.731	21576
858.864	21705
858.997	21667
859.13	21637
859.263	21694
859.396	21728
859.529	21580
859.662	21572
859.795	21587
859.928	21603
860.061	21884
860.194	21899
860.327	21648
860.46	21690
860.592	21717
860.725	21892
860.858	21762
860.99	21709
861.123	21618
861.256	21641
861.388	21679
861.521	22333
861.653	21545
861.786	21348
861.918	21496
862.05	21389
862.183	21663
862.315	21671
862.447	21644
862.58	21424
862.712	21344
862.844	21370
862.976	21439
863.108	21564
863.24	21873
863.372	21321
863.504	21264
863.636	21249
863.768	21443
863.9	21279
864.032	21279
864.164	21378
864.296	21439
864.428	21462
864.559	21412
864.691	21363
864.823	21481
864.954	21378
865.086	21340
865.217	21401
865.349	21272
865.48	21237
865.612	21203
865.743	21336
865.875	21211
866.006	21214
866.137	21264
866.269	21207
866.4	21245
866.531	21264
866.662	21233
866.793	21157
866.924	21188
867.055	21169
867.186	21199
867.317	21184
867.448	21165
867.579	21157
867.71	21116
867.841	21112
867.972	21241
868.103	21245
868.233	21252
868.364	21188
868.495	21169
868.625	21439
868.756	21462
868.886	21249
869.017	21424
869.147	21599
869.278	21496
869.408	21454
869.539	21363
869.669	21511
869.799	21530
869.929	21561
870.06	21614
870.19	21797
870.32	21682
870.45	21812
870.58	21793
870.71	21895
870.84	22010
870.97	21823
871.1	21762
871.23	21956
871.36	21994
871.489	21926
871.619	21934
871.749	22010
871.879	21975
872.008	22105
872.138	22055
872.267	22017
872.397	21869
872.526	21869
872.656	21937
872.785	21816
872.915	21975
873.044	22120
873.173	21968
873.303	22128
873.432	22086
873.561	22059
873.69	22109
873.819	21945
873.948	22192
874.077	22067
874.206	21926
874.335	22025
874.464	22002
874.593	22200
874.722	22166
874.851	22268
874.979	22116
875.108	22265
875.237	22162
875.365	22215
875.494	22147
875.623	22318
875.751	22333
875.88	22147
876.008	22295
876.136	22466
876.265	22694
876.393	22740
876.521	22660
876.65	22763
876.778	22580
876.906	22599
877.034	22546
877.162	22535
877.29	22542
877.418	22519
877.546	22554
877.674	22679
877.802	22569
877.93	22478
878.058	22535
878.185	22512
878.313	22554
878.441	22341
878.568	22531
878.696	22596
878.824	22634
878.951	22653
879.079	22763
879.206	22976
879.333	22793
879.461	22634
879.588	22630
879.715	22828
879.842	22881
879.97	22683
880.097	22409
880.224	22432
880.351	22538
880.478	22394
880.605	22405
880.732	22421
880.859	22615
880.986	22489
881.112	22493
881.239	22116
881.366	22143
881.493	22048
881.619	22070
881.746	22070
881.872	22013
881.999	21930
882.125	21850
882.252	21991
882.378	21953
882.505	22074
882.631	21930
882.757	21865
882.883	21835
883.01	21701
883.136	21667
883.262	21663
883.388	21515
883.514	21827
883.64	21717
883.766	21633
883.892	21435
884.018	21496
884.143	21648
884.269	21690
884.395	21431
884.52	21336
884.646	21306
884.772	21252
884.897	21214
885.023	21275
885.148	21428
885.274	21477
885.399	21488
885.524	21332
885.65	21355
885.775	21325
885.9	21359
886.025	21363
886.15	21408
886.275	21317
886.4	21241
886.525	21195
886.65	21256
886.775	21298
886.9	21504
887.025	21561
887.149	21294
887.274	21176
887.399	21127
887.523	21142
887.648	20994
887.773	21142
887.897	21176
888.021	21032
888.146	21001
888.27	21142
888.395	21161
888.519	21051
888.643	21123
888.767	21157
888.891	20994
889.015	20910
889.139	20979
889.263	20880
889.387	20979
889.511	21043
889.635	21074
889.759	20811
889.883	20785
890.006	20796
890.13	21062
890.254	20765
890.377	20830
890.501	20712
890.624	20533
890.748	20636
890.871	20492
890.995	20393
891.118	20469
891.241	20408
891.364	20507
891.488	20552
891.611	20415
891.734	20476
891.857	20533
891.98	20537
892.103	20507
892.226	20484
892.349	20385
892.471	20237
892.594	20377
892.717	20404
892.839	20393
892.962	20355
893.085	20393
893.207	20450
893.33	20168
893.452	20282
893.575	20317
893.697	20355
893.819	20655
893.941	20556
894.064	20564
894.186	20294
894.308	20294
894.43	20446
894.552	20560
894.674	20499
894.796	20294
894.918	20298
895.04	20263
895.161	20423
895.283	20370
895.405	20377
895.526	20328
895.648	20286
895.769	20484
895.891	20480
896.012	20328
896.134	20415
896.255	20309
896.376	20278
896.498	20271
896.619	20351
896.74	20328
896.861	20351
896.982	20609
897.103	20773
897.224	20625
897.345	20488
897.466	20484
897.587	20518
897.708	20655
897.828	20651
897.949	20461
898.07	20560
898.19	20415
898.311	20636
898.431	20526
898.552	20549
898.672	20575
898.792	20587
898.913	20583
899.033	20518
899.153	20355
899.273	20122
899.393	20282
899.513	20347
899.633	20324
899.753	20343
899.873	20313
899.993	20404
900.113	20214
900.232	20221
900.352	20172
900.472	20244
900.591	20073
900.711	20122
900.83	20012
900.95	20214
901.069	20130
901.189	19936
901.308	19833
901.427	19601
901.546	19731
901.665	19677
901.784	19613
901.904	19681
902.023	19502
902.141	19308
902.26	19251
902.379	19190
902.498	19255
902.617	19187
902.735	19194
902.854	19107
902.973	19152
903.091	18909
903.21	18882
903.328	18829
903.446	18844
903.565	18673
903.683	18635
903.801	18597
903.919	18608
904.038	18570
904.156	18426
904.274	18452
904.392	18365
904.51	18365
904.627	18414
904.745	18361
904.863	18403
904.981	18270
905.098	18167
905.216	18095
905.334	18057
905.451	18095
905.569	18057
905.686	18178
905.803	18182
905.921	17870
906.038	18026
906.155	17726
906.272	17771
906.389	17817
906.506	17623
906.623	17554
906.74	17733
906.857	17570
906.974	17501
907.091	17592
907.208	17623
907.324	17608
907.441	17543
907.557	17315
907.674	17383
907.79	17315
907.907	17318
908.023	17212
908.139	17356
908.256	17208
908.372	17254
908.488	17277
908.604	17079
908.72	17018
908.836	17056
908.952	17071
909.068	17090
909.184	17178
909.3	16995
909.415	17018
909.531	16987
909.647	16839
909.762	16786
909.878	16649
909.993	16733
910.108	16698
910.224	16630
910.339	16687
910.454	16577
910.57	16421
910.685	16493
910.8	16736
910.915	16683
911.03	16558
911.145	16466
911.259	16306
911.374	16268
911.489	16287
911.604	16207
911.718	16230
911.833	16067
911.947	16048
912.062	15945
912.176	16135
912.291	16196
912.405	16078
912.519	16291
912.633	16234
912.748	16188
912.862	16101
912.976	15884
913.09	15793
913.204	15926
913.318	15899
913.431	15975
913.545	16036
913.659	16017
913.772	15819
913.886	15736
914	15705
914.113	15800
914.226	15724
914.34	15743
914.453	15629
914.566	15663
914.68	15564
914.793	15553
914.906	15370
915.019	15359
915.132	15237
915.245	15306
915.358	15302
915.47	15298
915.583	15351
915.696	15397
915.809	15329
915.921	15424
916.034	15302
916.146	15272
916.259	15138
916.371	15222
916.483	15264
916.595	15119
916.708	15180
916.82	15165
916.932	15093
917.044	15032
917.156	15028
917.268	14876
917.38	14994
917.491	14853
917.603	14864
917.715	15047
917.826	15039
917.938	14990
918.049	14731
918.161	14918
918.272	15032
918.384	14998
918.495	14937
918.606	14762
918.717	14648
918.828	14708
918.939	14743
919.05	14655
919.161	14716
919.272	14480
919.383	14514
919.494	14781
919.604	14921
919.715	14648
919.826	14537
919.936	14678
920.047	14716
920.157	14667
920.267	14902
920.378	14724
920.488	14625
920.598	14777
920.708	14918
920.818	14861
920.928	14819
921.038	14914
921.148	15024
921.258	14549
921.368	14530
921.477	14427
921.587	14450
921.697	14336
921.806	14423
921.916	14267
922.025	14058
922.134	14065
922.244	13993
922.353	14092
922.462	13997
922.571	13913
922.68	13712
922.789	13670
922.898	13708
923.007	13590
923.116	13677
923.224	13655
923.333	13704
923.442	13514
923.55	13525
923.659	13499
923.767	13544
923.876	13346
923.984	13533
924.092	13396
924.201	13362
924.309	13362
924.417	13434
924.525	13388
924.633	13350
924.741	14107
924.849	13129
924.956	13377
925.064	13187
925.172	13110
925.279	13057
925.387	13057
925.494	13103
925.602	13304
925.709	13084
925.816	12993
925.924	13031
926.031	13171
926.138	12954
926.245	13015
926.352	13019
926.459	13072
926.566	13084
926.673	13046
926.779	12837
926.886	12852
926.993	12757
927.099	12681
927.206	12642
927.312	12616
927.419	12616
927.525	12559
927.631	12692
927.737	12498
927.843	12525
927.95	12410
928.056	12517
928.162	12502
928.267	12536
928.373	13000
928.479	12555
928.585	12350
928.69	12369
928.796	12494
928.901	12330
929.007	12159
929.112	12353
929.218	12304
929.323	12235
929.428	12190
929.533	12369
929.638	12125
929.743	12159
929.848	12159
929.953	12224
930.058	12019
930.163	11828
930.267	11847
930.372	12152
930.477	11828
930.581	11954
930.685	11988
930.79	11737
930.894	11726
930.998	11741
931.103	11847
931.207	11478
931.311	11433
931.415	11391
931.519	11185
931.623	11140
