Data from test_V78500241_760.txt Node
Date: Fri Mar 25 15:47:03 CST 2022
User: usil
Spectrometer: V785-0024
Trigger mode: 0
Integration Time (sec): 4.000000E-1
Scans to average: 1
Nonlinearity correction enabled: false
Boxcar width: 0
Storing dark spectrum: false
XAxis mode: Wavelengths
Number of Pixels in Spectrum: 1024
>>>>>Begin Spectral Data<<<<<
801.071	27899
801.214	27903
801.356	27724
801.499	27644
801.641	27416
801.783	27469
801.926	27519
802.068	27587
802.211	27439
802.353	27386
802.496	27264
802.638	27127
802.78	27348
802.923	27237
803.065	27218
803.208	27192
803.35	27252
803.492	27199
803.635	27393
803.777	27416
803.919	27310
804.061	27603
804.204	27325
804.346	27283
804.488	27146
804.63	27249
804.773	27123
804.915	27351
805.057	27485
805.199	27256
805.341	27507
805.483	27549
805.626	27542
805.768	27340
805.91	27450
806.052	27447
806.194	27382
806.336	27709
806.478	27416
806.62	27515
806.762	27561
806.904	27789
807.046	28017
807.188	27876
807.33	27922
807.472	27975
807.614	27869
807.756	27838
807.898	27736
808.04	27717
808.182	27785
808.324	27762
808.465	27759
808.607	28082
808.749	28200
808.891	28291
809.033	28314
809.174	28093
809.316	28287
809.458	28143
809.6	28101
809.741	28447
809.883	28310
810.025	28409
810.166	28386
810.308	28352
810.45	28272
810.591	28360
810.733	28276
810.875	28048
811.016	28097
811.158	27972
811.299	28318
811.441	28238
811.582	28322
811.724	28268
811.865	28135
812.007	28082
812.148	28154
812.29	28200
812.431	28295
812.573	28500
812.714	28596
812.855	28679
812.997	28687
813.138	28866
813.279	28675
813.421	28748
813.562	28649
813.703	28379
813.845	28314
813.986	28006
814.127	27922
814.268	27842
814.41	27899
814.551	27865
814.692	27884
814.833	27766
814.974	27762
815.115	27781
815.256	27564
815.397	27614
815.539	27686
815.68	27614
815.821	27625
815.962	27610
816.103	27660
816.244	27469
816.385	27553
816.526	27363
816.666	27279
816.807	27241
816.948	27275
817.089	27321
817.23	27100
817.371	27192
817.512	27249
817.653	27135
817.793	27062
817.934	27108
818.075	27169
818.216	27195
818.356	27108
818.497	27036
818.638	26842
818.778	26853
818.919	26712
819.06	27001
819.2	26933
819.341	27096
819.481	27268
819.622	27310
819.762	27485
819.903	27473
820.043	27408
820.184	27207
820.324	27203
820.465	27287
820.605	27401
820.746	27142
820.886	26963
821.026	27142
821.167	27192
821.307	27458
821.447	27169
821.588	26967
821.728	27028
821.868	26781
822.008	26629
822.149	26819
822.289	26537
822.429	26457
822.569	26358
822.709	26271
822.849	26122
822.99	26183
823.13	26088
823.27	26024
823.41	25913
823.55	25852
823.69	26012
823.83	25974
823.97	25955
824.11	25807
824.25	25772
824.389	25746
824.529	25909
824.669	25708
824.809	25826
824.949	25978
825.089	25795
825.228	25769
825.368	25651
825.508	25651
825.648	25708
825.787	25624
825.927	25601
826.067	25666
826.206	25597
826.346	25708
826.485	25685
826.625	25567
826.765	25791
826.904	25674
827.044	25282
827.183	25479
827.323	25259
827.462	25464
827.601	25400
827.741	25350
827.88	25365
828.02	25232
828.159	25400
828.298	25320
828.437	25407
828.577	25339
828.716	25460
828.855	25168
828.994	25065
829.134	25065
829.273	25126
829.412	25027
829.551	24935
829.69	24924
829.829	25053
829.968	25091
830.107	25042
830.246	24901
830.385	24890
830.524	24863
830.663	24829
830.802	24684
830.941	24684
831.08	24631
831.219	24608
831.357	24681
831.496	24882
831.635	24566
831.774	24490
831.913	24513
832.051	24585
832.19	24353
832.329	24490
832.467	24262
832.606	24224
832.744	24083
832.883	24304
833.022	24258
833.16	24365
833.299	24395
833.437	24350
833.576	24380
833.714	24365
833.852	24464
833.991	24380
834.129	24395
834.267	24410
834.406	24365
834.544	24418
834.682	24380
834.821	24224
834.959	24517
835.097	24235
835.235	24330
835.373	24418
835.511	24391
835.65	24281
835.788	24258
835.926	24098
836.064	23855
836.202	24030
836.34	24357
836.478	24422
836.615	24163
836.753	24197
836.891	24308
837.029	24262
837.167	24190
837.305	24178
837.443	24117
837.58	24174
837.718	24148
837.856	23946
837.993	24095
838.131	24076
838.269	24011
838.406	23927
838.544	23866
838.681	23646
838.819	23733
838.956	23554
839.094	23551
839.231	23630
839.369	23680
839.506	23893
839.643	23657
839.781	23531
839.918	23520
840.055	23452
840.193	23566
840.33	23398
840.467	23364
840.604	23391
840.742	23718
840.879	23261
841.016	23410
841.153	23311
841.29	23509
841.427	23376
841.564	23482
841.701	23490
841.838	23349
841.975	23185
842.112	23212
842.249	23284
842.385	23216
842.522	23372
842.659	23292
842.796	23280
842.933	23227
843.069	23246
843.206	23212
843.343	23193
843.479	23181
843.616	23147
843.752	22930
843.889	22991
844.025	23018
844.162	22797
844.298	22949
844.435	22999
844.571	22904
844.708	22927
844.844	23166
844.98	23132
845.117	23022
845.253	22961
845.389	22911
845.525	22824
845.661	22778
845.798	22611
845.934	22725
846.07	22672
846.206	22713
846.342	22698
846.478	22683
846.614	22504
846.75	22322
846.886	22523
847.022	22546
847.158	22466
847.294	22409
847.429	22394
847.565	22314
847.701	22660
847.837	22135
847.972	22162
848.108	22112
848.244	22105
848.379	22162
848.515	22109
848.65	21911
848.786	21968
848.921	21964
849.057	22070
849.192	22090
849.328	21994
849.463	22032
849.598	21998
849.734	21934
849.869	21770
850.004	21789
850.14	21755
850.275	21675
850.41	21652
850.545	21656
850.68	21770
850.815	21690
850.95	21789
851.085	21953
851.22	21911
851.355	21774
851.49	21846
851.625	21747
851.76	21595
851.895	21629
852.03	21755
852.165	21876
852.299	21774
852.434	21857
852.569	21781
852.703	21789
852.838	21686
852.973	21823
853.107	21945
853.242	21663
853.376	21660
853.511	21542
853.645	21507
853.78	21701
853.914	21610
854.048	21637
854.183	21523
854.317	21610
854.451	21709
854.585	21530
854.72	21492
854.854	21610
854.988	21481
855.122	21572
855.256	21412
855.39	21530
855.524	21648
855.658	21629
855.792	21587
855.926	21595
856.06	21682
856.194	21648
856.327	21580
856.461	21500
856.595	21538
856.729	21504
856.862	21682
856.996	21690
857.13	21774
857.263	21667
857.397	21774
857.53	21583
857.664	21701
857.797	21576
857.931	21770
858.064	21610
858.197	21709
858.331	21629
858.464	21564
858.597	21523
858.731	21515
858.864	21641
858.997	21610
859.13	21481
859.263	21652
859.396	21622
859.529	21622
859.662	21538
859.795	21530
859.928	21648
860.061	21854
860.194	21774
860.327	21686
860.46	21500
860.592	21709
860.725	21755
860.858	21755
860.99	21610
861.123	21454
861.256	21447
861.388	21660
861.521	22242
861.653	21405
861.786	21336
861.918	21351
862.05	21473
862.183	21481
862.315	21637
862.447	21530
862.58	21561
862.712	21408
862.844	21348
862.976	21405
863.108	21370
863.24	21682
863.372	21199
863.504	21230
863.636	21272
863.768	21294
863.9	21401
864.032	21230
864.164	21226
864.296	21279
864.428	21348
864.559	21359
864.691	21332
864.823	21317
864.954	21192
865.086	21230
865.217	21272
865.349	21081
865.48	21165
865.612	21108
865.743	21393
865.875	21245
866.006	21150
866.137	21264
866.269	21214
866.4	21211
866.531	21096
866.662	21085
866.793	21119
866.924	20941
867.055	21138
867.186	21222
867.317	21127
867.448	21036
867.579	21157
867.71	21062
867.841	21032
867.972	21032
868.103	21043
868.233	21138
868.364	21241
868.495	21123
868.625	21401
868.756	21462
868.886	21256
869.017	21389
869.147	21348
869.278	21492
869.408	21496
869.539	21355
869.669	21477
869.799	21351
869.929	21458
870.06	21450
870.19	21667
870.32	21576
870.45	21751
870.58	21682
870.71	21888
870.84	21945
870.97	21808
871.1	21812
871.23	21918
871.36	21937
871.489	21736
871.619	21888
871.749	21873
871.879	21918
872.008	22010
872.138	21953
872.267	21956
872.397	21770
872.526	21690
872.656	21694
872.785	21766
872.915	21979
873.044	22139
873.173	22017
873.303	22116
873.432	22086
873.561	22181
873.69	21991
873.819	21793
873.948	22010
874.077	21960
874.206	21789
874.335	22029
874.464	22162
874.593	22249
874.722	22173
874.851	22150
874.979	22196
875.108	22291
875.237	22120
875.365	22147
875.494	22272
875.623	22310
875.751	22131
875.88	22318
876.008	22200
876.136	22303
876.265	22580
876.393	22793
876.521	22698
876.65	22577
876.778	22660
876.906	22603
877.034	22542
877.162	22630
877.29	22512
877.418	22596
877.546	22565
877.674	22504
877.802	22599
877.93	22459
878.058	22531
878.185	22546
878.313	22379
878.441	22424
878.568	22371
878.696	22500
878.824	22424
878.951	22645
879.079	22774
879.206	22771
879.333	22816
879.461	22580
879.588	22759
879.715	22759
879.842	22847
879.97	22641
880.097	22344
880.224	22344
880.351	22322
880.478	22295
880.605	22299
880.732	22428
880.859	22607
880.986	22306
881.112	22386
881.239	22253
881.366	22082
881.493	22010
881.619	21903
881.746	21994
881.872	21934
881.999	21915
882.125	21812
882.252	21922
882.378	21922
882.505	22021
882.631	21755
882.757	21736
882.883	21831
883.01	21591
883.136	21644
883.262	21351
883.388	21504
883.514	21618
883.64	21568
883.766	21500
883.892	21374
884.018	21389
884.143	21618
884.269	21595
884.395	21340
884.52	21131
884.646	21325
884.772	21104
884.897	21272
885.023	21146
885.148	21405
885.274	21439
885.399	21306
885.524	21184
885.65	21268
885.775	21173
885.9	21161
886.025	21256
886.15	21393
886.275	21241
886.4	21268
886.525	21192
886.65	21256
886.775	21180
886.9	21237
887.025	21424
887.149	21230
887.274	21051
887.399	20994
887.523	21047
887.648	20979
887.773	20933
887.897	21199
888.021	21074
888.146	20982
888.27	21089
888.395	21047
888.519	21062
888.643	21131
888.767	20986
888.891	20872
889.015	20845
889.139	20811
889.263	20872
889.387	20800
889.511	20975
889.635	20971
889.759	20872
889.883	20849
890.006	20792
890.13	21024
890.254	20804
890.377	20800
890.501	20606
890.624	20583
890.748	20670
890.871	20492
890.995	20404
891.118	20240
891.241	20492
891.364	20499
891.488	20530
891.611	20381
891.734	20476
891.857	20480
891.98	20377
892.103	20507
892.226	20374
892.349	20332
892.471	20278
892.594	20252
892.717	20240
892.839	20355
892.962	20313
893.085	20358
893.207	20263
893.33	20149
893.452	20282
893.575	20320
893.697	20244
893.819	20438
893.941	20480
894.064	20370
894.186	20229
894.308	20134
894.43	20370
894.552	20412
894.674	20336
894.796	20081
894.918	20153
895.04	20229
895.161	20305
895.283	20267
895.405	20164
895.526	20229
895.648	20301
895.769	20336
895.891	20351
896.012	20294
896.134	20408
896.255	20324
896.376	20244
896.498	20343
896.619	20244
896.74	20199
896.861	20358
896.982	20682
897.103	20834
897.224	20594
897.345	20488
897.466	20412
897.587	20575
897.708	20674
897.828	20476
897.949	20355
898.07	20339
898.19	20511
898.311	20507
898.431	20473
898.552	20503
898.672	20537
898.792	20613
898.913	20530
899.033	20454
899.153	20438
899.273	20218
899.393	20233
899.513	20225
899.633	20332
899.753	20172
899.873	20172
899.993	20256
900.113	20252
900.232	20218
900.352	20134
900.472	20119
900.591	19944
900.711	20027
900.83	20130
900.95	20240
901.069	20225
901.189	19982
901.308	19761
901.427	19635
901.546	19662
901.665	19693
901.784	19525
901.904	19430
902.023	19384
902.141	19236
902.26	19145
902.379	19251
902.498	19141
902.617	19027
902.735	19263
902.854	19122
902.973	18962
903.091	18909
903.21	18787
903.328	18802
903.446	18692
903.565	18722
903.683	18627
903.801	18475
903.919	18601
904.038	18585
904.156	18388
904.274	18448
904.392	18319
904.51	18372
904.627	18216
904.745	18414
904.863	18391
904.981	18079
905.098	18213
905.216	18121
905.334	18064
905.451	18114
905.569	18003
905.686	18060
905.803	18091
905.921	17893
906.038	17954
906.155	17847
906.272	17760
906.389	17710
906.506	17611
906.623	17680
906.74	17554
906.857	17440
906.974	17448
907.091	17596
907.208	17604
907.324	17630
907.441	17478
907.557	17330
907.674	17208
907.79	17227
907.907	17261
908.023	17303
908.139	17288
908.256	17208
908.372	17090
908.488	17261
908.604	16961
908.72	17064
908.836	17060
908.952	16942
909.068	17003
909.184	17052
909.3	16915
909.415	16999
909.531	16991
909.647	16843
909.762	16725
909.878	16717
909.993	16615
910.108	16698
910.224	16656
910.339	16645
910.454	16497
910.57	16485
910.685	16474
910.8	16847
910.915	16740
911.03	16481
911.145	16314
911.259	16303
911.374	16291
911.489	16242
911.604	16169
911.718	16051
911.833	16082
911.947	15953
912.062	15895
912.176	16074
912.291	16059
912.405	16013
912.519	16291
912.633	16196
912.748	16219
912.862	15994
912.976	15869
913.09	15770
913.204	15945
913.318	15755
913.431	15964
913.545	15846
913.659	15972
913.772	15835
913.886	15648
914	15663
914.113	15751
914.226	15770
914.34	15667
914.453	15507
914.566	15652
914.68	15599
914.793	15488
914.906	15435
915.019	15310
915.132	15142
915.245	15370
915.358	15355
915.47	15203
915.583	15203
915.696	15249
915.809	15405
915.921	15298
916.034	15123
916.146	15077
916.259	15173
916.371	15260
916.483	15199
916.595	15005
916.708	15032
916.82	15097
916.932	15024
917.044	14967
917.156	15001
917.268	14960
917.38	14933
917.491	14941
917.603	14849
917.715	14944
917.826	14971
917.938	14773
918.049	14743
918.161	14872
918.272	14967
918.384	14960
918.495	14853
918.606	14743
918.717	14678
918.828	14659
918.939	14640
919.05	14568
919.161	14644
919.272	14408
919.383	14476
919.494	14678
919.604	14929
919.715	14765
919.826	14594
919.936	14587
920.047	14811
920.157	14678
920.267	14838
920.378	14651
920.488	14663
920.598	14788
920.708	14918
920.818	14689
920.928	14659
921.038	14826
921.148	14876
921.258	14644
921.368	14454
921.477	14377
921.587	14336
921.697	14191
921.806	14385
921.916	14164
922.025	13970
922.134	14016
922.244	14039
922.353	14123
922.462	13849
922.571	13826
922.68	13651
922.789	13666
922.898	13670
923.007	13559
923.116	13658
923.224	13636
923.333	13559
923.442	13518
923.55	13499
923.659	13506
923.767	13601
923.876	13495
923.984	13483
924.092	13362
924.201	13377
924.309	13362
924.417	13354
924.525	13285
924.633	13339
924.741	14218
924.849	13149
924.956	13304
925.064	13095
925.172	12996
925.279	13034
925.387	13095
925.494	13027
925.602	13137
925.709	13137
925.816	13084
925.924	13027
926.031	13103
926.138	13000
926.245	12996
926.352	12935
926.459	12981
926.566	13000
926.673	12962
926.779	12814
926.886	12783
926.993	12639
927.099	12623
927.206	12570
927.312	12574
927.419	12696
927.525	12639
927.631	12616
927.737	12544
927.843	12498
927.95	12338
928.056	12414
928.162	12464
928.267	12475
928.373	13069
928.479	12437
928.585	12266
928.69	12372
928.796	12422
928.901	12296
929.007	12163
929.112	12304
929.218	12277
929.323	12155
929.428	12121
929.533	12311
929.638	12102
929.743	12117
929.848	12224
929.953	12277
930.058	12011
930.163	11908
930.267	11950
930.372	12053
930.477	11779
930.581	12087
930.685	11923
930.79	11786
930.894	11847
930.998	11767
931.103	11927
931.207	11532
931.311	11493
931.415	11391
931.519	11227
931.623	11143
