Data from test_V78500241_191.txt Node
Date: Fri Mar 25 15:43:07 CST 2022
User: usil
Spectrometer: V785-0024
Trigger mode: 0
Integration Time (sec): 4.000000E-1
Scans to average: 1
Nonlinearity correction enabled: false
Boxcar width: 0
Storing dark spectrum: false
XAxis mode: Wavelengths
Number of Pixels in Spectrum: 1024
>>>>>Begin Spectral Data<<<<<
801.071	29802
801.214	29623
801.356	29509
801.499	29379
801.641	29136
801.783	29315
801.926	29326
802.068	29265
802.211	29197
802.353	29147
802.496	28957
802.638	28881
802.78	28885
802.923	28744
803.065	28584
803.208	28911
803.35	28820
803.492	28999
803.635	28987
803.777	28987
803.919	29105
804.061	29296
804.204	29044
804.346	29044
804.488	28847
804.63	28919
804.773	28850
804.915	28976
805.057	29067
805.199	28927
805.341	29060
805.483	28904
805.626	28972
805.768	29056
805.91	29159
806.052	29303
806.194	29064
806.336	29322
806.478	29231
806.62	29151
806.762	29269
806.904	29372
807.046	29619
807.188	29551
807.33	29562
807.472	29615
807.614	29299
807.756	29482
807.898	29391
808.04	29261
808.182	29254
808.324	29299
808.465	29273
808.607	29375
808.749	29661
808.891	29824
809.033	29809
809.174	29676
809.316	29589
809.458	29718
809.6	29627
809.741	29703
809.883	29832
810.025	29996
810.166	29897
810.308	29878
810.45	29684
810.591	29897
810.733	29923
810.875	29665
811.016	29634
811.158	29581
811.299	29885
811.441	29843
811.582	29843
811.724	29657
811.865	29539
812.007	29490
812.148	29649
812.29	29672
812.431	29904
812.573	30083
812.714	30034
812.855	30144
812.997	30254
813.138	30437
813.279	30296
813.421	30190
813.562	29961
813.703	29988
813.845	29809
813.986	29539
814.127	29474
814.268	29269
814.41	29322
814.551	29315
814.692	29345
814.833	29231
814.974	29235
815.115	29197
815.256	29083
815.397	29128
815.539	29128
815.68	29018
815.821	28961
815.962	28995
816.103	29010
816.244	28809
816.385	28805
816.526	28679
816.666	28523
816.807	28626
816.948	28455
817.089	28470
817.23	28344
817.371	28497
817.512	28398
817.653	28386
817.793	28440
817.934	28485
818.075	28519
818.216	28325
818.356	28375
818.497	28367
818.638	27994
818.778	28204
818.919	28067
819.06	28116
819.2	28287
819.341	28284
819.481	28356
819.622	28523
819.762	28599
819.903	28535
820.043	28523
820.184	28489
820.324	28356
820.465	28611
820.605	28500
820.746	28360
820.886	28291
821.026	28497
821.167	28428
821.307	28348
821.447	28314
821.588	28276
821.728	28067
821.868	27823
822.008	27816
822.149	27831
822.289	27793
822.429	27679
822.569	27431
822.709	27416
822.849	27188
822.99	27272
823.13	27154
823.27	27241
823.41	27009
823.55	26963
823.69	27013
823.83	26963
823.97	26933
824.11	26857
824.25	26880
824.389	26823
824.529	26887
824.669	26777
824.809	26906
824.949	26804
825.089	26998
825.228	26883
825.368	26731
825.508	26773
825.648	26750
825.787	26674
825.927	26724
826.067	26659
826.206	26659
826.346	26773
826.485	26781
826.625	26636
826.765	26731
826.904	26746
827.044	26313
827.183	26381
827.323	26370
827.462	26370
827.601	26503
827.741	26301
827.88	26385
828.02	26278
828.159	26180
828.298	26339
828.437	26332
828.577	26244
828.716	26423
828.855	26221
828.994	26012
829.134	26012
829.273	26100
829.412	26001
829.551	25917
829.69	26039
829.829	25989
829.968	25928
830.107	26088
830.246	25951
830.385	25871
830.524	25894
830.663	25734
830.802	25833
830.941	25597
831.08	25518
831.219	25723
831.357	25613
831.496	25647
831.635	25643
831.774	25464
831.913	25339
832.051	25403
832.19	25381
832.329	25320
832.467	25278
832.606	25152
832.744	25160
832.883	25156
833.022	25114
833.16	25091
833.299	25209
833.437	25221
833.576	25346
833.714	25141
833.852	25221
833.991	25225
834.129	25274
834.267	25335
834.406	25255
834.544	25080
834.682	25183
834.821	25057
834.959	25327
835.097	25061
835.235	25179
835.373	25190
835.511	25133
835.65	25015
835.788	24996
835.926	24905
836.064	24783
836.202	24962
836.34	25038
836.478	24951
836.615	24985
836.753	24947
836.891	25091
837.029	25012
837.167	24932
837.305	24863
837.443	24791
837.58	24817
837.718	24977
837.856	24810
837.993	24814
838.131	24734
838.269	24631
838.406	24692
838.544	24597
838.681	24467
838.819	24308
838.956	24186
839.094	24174
839.231	24353
839.369	24395
839.506	24627
839.643	24399
839.781	24190
839.918	24125
840.055	24133
840.193	24262
840.33	24129
840.467	24178
840.604	24254
840.742	24281
840.879	23942
841.016	23935
841.153	23874
841.29	24133
841.427	24095
841.564	24041
841.701	24117
841.838	23904
841.975	24018
842.112	24064
842.249	24106
842.385	23832
842.522	24133
842.659	23863
842.796	23809
842.933	23726
843.069	23634
843.206	23665
843.343	23878
843.479	23828
843.616	23722
843.752	23638
843.889	23592
844.025	23752
844.162	23398
844.298	23566
844.435	23467
844.571	23429
844.708	23505
844.844	23615
844.98	23665
845.117	23539
845.253	23417
845.389	23379
845.525	23414
845.661	23410
845.798	23193
845.934	23318
846.07	23181
846.206	23227
846.342	23311
846.478	23174
846.614	22984
846.75	22946
846.886	22900
847.022	22987
847.158	22991
847.294	22972
847.429	22938
847.565	22908
847.701	23166
847.837	22702
847.972	22615
848.108	22691
848.244	22786
848.379	22493
848.515	22455
848.65	22569
848.786	22432
848.921	22577
849.057	22637
849.192	22493
849.328	22436
849.463	22516
849.598	22470
849.734	22440
849.869	22363
850.004	22223
850.14	22276
850.275	22253
850.41	22120
850.545	22211
850.68	22090
850.815	22287
850.95	22059
851.085	22424
851.22	22295
851.355	22143
851.49	22268
851.625	22158
851.76	22135
851.895	22261
852.03	22116
852.165	22200
852.299	22242
852.434	22386
852.569	22268
852.703	22219
852.838	22128
852.973	22337
853.107	22295
853.242	22147
853.376	22090
853.511	21911
853.645	21918
853.78	22112
853.914	22044
854.048	21998
854.183	21972
854.317	22120
854.451	22017
854.585	21998
854.72	21983
854.854	22173
854.988	21835
855.122	21949
855.256	21812
855.39	21991
855.524	21915
855.658	22097
855.792	22177
855.926	22051
856.06	22055
856.194	21972
856.327	21945
856.461	21911
856.595	22013
856.729	21846
856.862	21987
856.996	22036
857.13	22090
857.263	22105
857.397	22116
857.53	21869
857.664	22078
857.797	22063
857.931	22128
858.064	22002
858.197	21941
858.331	21884
858.464	21869
858.597	21724
858.731	21903
858.864	21915
858.997	21850
859.13	21915
859.263	21945
859.396	22063
859.529	21789
859.662	21911
859.795	21892
859.928	21785
860.061	22086
860.194	22169
860.327	21987
860.46	21991
860.592	22067
860.725	22158
860.858	22010
860.99	21865
861.123	21793
861.256	21755
861.388	21884
861.521	22630
861.653	21827
861.786	21793
861.918	21846
862.05	21956
862.183	21747
862.315	21918
862.447	21922
862.58	21823
862.712	21717
862.844	21618
862.976	21770
863.108	21743
863.24	22040
863.372	21614
863.504	21618
863.636	21606
863.768	21656
863.9	21553
864.032	21530
864.164	21424
864.296	21648
864.428	21599
864.559	21671
864.691	21736
864.823	21580
864.954	21656
865.086	21644
865.217	21473
865.349	21370
865.48	21523
865.612	21492
865.743	21656
865.875	21603
866.006	21355
866.137	21469
866.269	21435
866.4	21625
866.531	21545
866.662	21363
866.793	21389
866.924	21408
867.055	21393
867.186	21412
867.317	21317
867.448	21332
867.579	21386
867.71	21370
867.841	21325
867.972	21583
868.103	21374
868.233	21310
868.364	21310
868.495	21538
868.625	21694
868.756	21713
868.886	21561
869.017	21576
869.147	21701
869.278	21671
869.408	21523
869.539	21507
869.669	21732
869.799	21717
869.929	21732
870.06	21717
870.19	21918
870.32	21911
870.45	21937
870.58	22017
870.71	22192
870.84	22067
870.97	22154
871.1	22040
871.23	22177
871.36	22204
871.489	22093
871.619	22124
871.749	22287
871.879	22242
872.008	22356
872.138	22207
872.267	22147
872.397	22109
872.526	22067
872.656	22051
872.785	22112
872.915	22325
873.044	22455
873.173	22280
873.303	22230
873.432	22322
873.561	22318
873.69	22341
873.819	22268
873.948	22428
874.077	22299
874.206	22200
874.335	22242
874.464	22265
874.593	22531
874.722	22451
874.851	22447
874.979	22554
875.108	22561
875.237	22519
875.365	22341
875.494	22375
875.623	22561
875.751	22497
875.88	22470
876.008	22599
876.136	22645
876.265	22835
876.393	22938
876.521	22972
876.65	22946
876.778	22900
876.906	22866
877.034	22949
877.162	22755
877.29	22850
877.418	22892
877.546	22862
877.674	22816
877.802	22885
877.93	22831
878.058	22869
878.185	22755
878.313	22877
878.441	22828
878.568	22596
878.696	22790
878.824	22831
878.951	22942
879.079	23044
879.206	23174
879.333	22953
879.461	22854
879.588	22873
879.715	23044
879.842	23128
879.97	23010
880.097	22687
880.224	22626
880.351	22626
880.478	22672
880.605	22584
880.732	22664
880.859	22896
880.986	22729
881.112	22516
881.239	22660
881.366	22500
881.493	22246
881.619	22268
881.746	22329
881.872	22314
881.999	22253
882.125	22135
882.252	22223
882.378	22230
882.505	22314
882.631	22112
882.757	21953
882.883	22173
883.01	21968
883.136	21930
883.262	21892
883.388	21755
883.514	21968
883.64	21930
883.766	21892
883.892	21797
884.018	21660
884.143	21816
884.269	22112
884.395	21610
884.52	21473
884.646	21614
884.772	21633
884.897	21401
885.023	21633
885.148	21629
885.274	21675
885.399	21652
885.524	21583
885.65	21538
885.775	21564
885.9	21530
886.025	21667
886.15	21759
886.275	21572
886.4	21454
886.525	21656
886.65	21477
886.775	21553
886.9	21713
887.025	21724
887.149	21625
887.274	21336
887.399	21237
887.523	21355
887.648	21104
887.773	21161
887.897	21336
888.021	21378
888.146	21256
888.27	21348
888.395	21393
888.519	21340
888.643	21321
888.767	21329
888.891	21199
889.015	21089
889.139	21199
889.263	21085
889.387	21249
889.511	21287
889.635	21252
889.759	21051
889.883	21123
890.006	21131
890.13	21218
890.254	20948
890.377	21062
890.501	20895
890.624	20788
890.748	20769
890.871	20785
890.995	20640
891.118	20648
891.241	20598
891.364	20697
891.488	20754
891.611	20731
891.734	20594
891.857	20689
891.98	20602
892.103	20670
892.226	20781
892.349	20549
892.471	20351
892.594	20533
892.717	20625
892.839	20533
892.962	20549
893.085	20537
893.207	20571
893.33	20396
893.452	20606
893.575	20518
893.697	20476
893.819	20621
893.941	20682
894.064	20613
894.186	20469
894.308	20423
894.43	20537
894.552	20613
894.674	20743
894.796	20389
894.918	20545
895.04	20465
895.161	20731
895.283	20571
895.405	20484
895.526	20522
895.648	20499
895.769	20560
895.891	20575
896.012	20750
896.134	20651
896.255	20511
896.376	20488
896.498	20659
896.619	20678
896.74	20590
896.861	20663
896.982	20918
897.103	21104
897.224	20921
897.345	20769
897.466	20777
897.587	20834
897.708	20960
897.828	20910
897.949	20670
898.07	20625
898.19	20731
898.311	20868
898.431	20613
898.552	20788
898.672	20727
898.792	20754
898.913	20731
899.033	20522
899.153	20488
899.273	20419
899.393	20374
899.513	20541
899.633	20427
899.753	20465
899.873	20381
899.993	20556
900.113	20358
900.232	20362
900.352	20362
900.472	20233
900.591	20176
900.711	20244
900.83	20263
900.95	20313
901.069	20298
901.189	20088
901.308	19944
901.427	19803
901.546	19883
901.665	19746
901.784	19761
901.904	19662
902.023	19552
902.141	19460
902.26	19297
902.379	19518
902.498	19141
902.617	19259
902.735	19430
902.854	19263
902.973	19209
903.091	19076
903.21	18894
903.328	18958
903.446	18829
903.565	18852
903.683	18726
903.801	18658
903.919	18677
904.038	18684
904.156	18593
904.274	18642
904.392	18486
904.51	18445
904.627	18429
904.745	18467
904.863	18601
904.981	18281
905.098	18121
905.216	18053
905.334	18239
905.451	18197
905.569	18144
905.686	18270
905.803	18125
905.921	17897
906.038	18072
906.155	17931
906.272	17783
906.389	17889
906.506	17668
906.623	17668
906.74	17760
906.857	17539
906.974	17665
907.091	17699
907.208	17722
907.324	17760
907.441	17577
907.557	17360
907.674	17364
907.79	17296
907.907	17315
908.023	17440
908.139	17383
908.256	17277
908.372	17185
908.488	17254
908.604	17136
908.72	17117
908.836	17067
908.952	17029
909.068	17064
909.184	17223
909.3	17113
909.415	17094
909.531	17037
909.647	16801
909.762	16710
909.878	16721
909.993	16725
910.108	16717
910.224	16637
910.339	16679
910.454	16592
910.57	16546
910.685	16538
910.8	16672
910.915	16729
911.03	16516
911.145	16325
911.259	16409
911.374	16409
911.489	16375
911.604	16166
911.718	16032
911.833	15987
911.947	16002
912.062	15949
912.176	16112
912.291	16135
912.405	16120
912.519	16348
912.633	16230
912.748	16036
912.862	16025
912.976	15857
913.09	15682
913.204	15789
913.318	15755
913.431	15880
913.545	15956
913.659	15903
913.772	15759
913.886	15652
914	15675
914.113	15705
914.226	15846
914.34	15675
914.453	15549
914.566	15656
914.68	15545
914.793	15511
914.906	15329
915.019	15313
915.132	15195
915.245	15230
915.358	15359
915.47	15317
915.583	15317
915.696	15420
915.809	15401
915.921	15469
916.034	15207
916.146	15135
916.259	15169
916.371	15291
916.483	15256
916.595	15146
916.708	15169
916.82	15154
916.932	15058
917.044	15123
917.156	15043
917.268	14842
917.38	14933
917.491	14918
917.603	15009
917.715	14902
917.826	14952
917.938	14815
918.049	14769
918.161	14864
918.272	14979
918.384	14933
918.495	14857
918.606	14667
918.717	14613
918.828	14708
918.939	14594
919.05	14530
919.161	14606
919.272	14358
919.383	14476
919.494	14667
919.604	14842
919.715	14579
919.826	14434
919.936	14564
920.047	14762
920.157	14590
920.267	14720
920.378	14587
920.488	14594
920.598	14705
920.708	14804
920.818	14659
920.928	14731
921.038	14899
921.148	14781
921.258	14457
921.368	14381
921.477	14313
921.587	14298
921.697	14263
921.806	14267
921.916	14134
922.025	13970
922.134	14016
922.244	13833
922.353	13925
922.462	13906
922.571	13765
922.68	13681
922.789	13552
922.898	13571
923.007	13434
923.116	13582
923.224	13559
923.333	13476
923.442	13354
923.55	13324
923.659	13354
923.767	13457
923.876	13278
923.984	13365
924.092	13263
924.201	13350
924.309	13308
924.417	13282
924.525	13266
924.633	13179
924.741	14046
924.849	13118
924.956	13149
925.064	13034
925.172	12954
925.279	13019
925.387	13072
925.494	12894
925.602	13050
925.709	12939
925.816	12905
925.924	12947
926.031	13053
926.138	12897
926.245	12932
926.352	12894
926.459	12973
926.566	13053
926.673	12806
926.779	12810
926.886	12745
926.993	12513
927.099	12563
927.206	12460
927.312	12460
927.419	12540
927.525	12513
927.631	12589
927.737	12407
927.843	12429
927.95	12350
928.056	12353
928.162	12346
928.267	12426
928.373	12973
928.479	12433
928.585	12136
928.69	12228
928.796	12380
928.901	12254
929.007	12186
929.112	12292
929.218	12102
929.323	12098
929.428	12114
929.533	12201
929.638	12022
929.743	12076
929.848	12098
929.953	12041
930.058	11946
930.163	11733
930.267	11767
930.372	11901
930.477	11726
930.581	11912
930.685	11832
930.79	11661
930.894	11676
930.998	11562
931.103	11714
931.207	11433
931.311	11383
931.415	11216
931.519	11037
931.623	11006
