Data from test_V78500241_2778.txt Node
Date: Fri Mar 25 16:01:02 CST 2022
User: usil
Spectrometer: V785-0024
Trigger mode: 0
Integration Time (sec): 4.000000E-1
Scans to average: 1
Nonlinearity correction enabled: false
Boxcar width: 0
Storing dark spectrum: false
XAxis mode: Wavelengths
Number of Pixels in Spectrum: 1024
>>>>>Begin Spectral Data<<<<<
801.071	29136
801.214	28965
801.356	28831
801.499	28748
801.641	28744
801.783	28774
801.926	28805
802.068	28892
802.211	28748
802.353	28675
802.496	28565
802.638	28561
802.78	28455
802.923	28360
803.065	28500
803.208	28371
803.35	28577
803.492	28793
803.635	28710
803.777	28599
803.919	28759
804.061	29067
804.204	28744
804.346	28694
804.488	28649
804.63	28744
804.773	28645
804.915	28873
805.057	28812
805.199	28824
805.341	28801
805.483	28949
805.626	28919
805.768	28835
805.91	29006
806.052	28888
806.194	28843
806.336	29113
806.478	28771
806.62	28995
806.762	28976
806.904	29239
807.046	29414
807.188	29417
807.33	29379
807.472	29398
807.614	29379
807.756	29318
807.898	29410
808.04	29170
808.182	29151
808.324	29288
808.465	29269
808.607	29490
808.749	29748
808.891	29726
809.033	29802
809.174	29809
809.316	29687
809.458	29630
809.6	29592
809.741	29733
809.883	29764
810.025	29920
810.166	29851
810.308	29999
810.45	29817
810.591	29760
810.733	29707
810.875	29691
811.016	29649
811.158	29665
811.299	29809
811.441	29927
811.582	29691
811.724	29779
811.865	29463
812.007	29657
812.148	29695
812.29	29843
812.431	29878
812.573	30045
812.714	30102
812.855	30323
812.997	30163
813.138	30384
813.279	30289
813.421	29988
813.562	30209
813.703	29996
813.845	29726
813.986	29707
814.127	29497
814.268	29448
814.41	29448
814.551	29353
814.692	29261
814.833	29452
814.974	29387
815.115	29398
815.256	29189
815.397	29235
815.539	29425
815.68	29261
815.821	29086
815.962	29094
816.103	29159
816.244	29216
816.385	29105
816.526	28995
816.666	28847
816.807	28820
816.948	28774
817.089	28824
817.23	28767
817.371	28691
817.512	28626
817.653	28615
817.793	28733
817.934	28790
818.075	28698
818.216	28733
818.356	28744
818.497	28668
818.638	28401
818.778	28523
818.919	28523
819.06	28622
819.2	28645
819.341	28702
819.481	28812
819.622	28968
819.762	29223
819.903	29060
820.043	29052
820.184	28927
820.324	28828
820.465	28984
820.605	28866
820.746	28915
820.886	28668
821.026	28698
821.167	28888
821.307	28881
821.447	28774
821.588	28531
821.728	28531
821.868	28398
822.008	28299
822.149	28226
822.289	28314
822.429	27926
822.569	27941
822.709	27945
822.849	27728
822.99	27542
823.13	27705
823.27	27720
823.41	27580
823.55	27500
823.69	27599
823.83	27538
823.97	27450
824.11	27374
824.25	27222
824.389	27450
824.529	27321
824.669	27431
824.809	27583
824.949	27310
825.089	27526
825.228	27359
825.368	27272
825.508	27245
825.648	27203
825.787	27325
825.927	27454
826.067	27230
826.206	27329
826.346	27310
826.485	27184
826.625	27302
826.765	27431
826.904	27230
827.044	27161
827.183	27051
827.323	27108
827.462	27112
827.601	27081
827.741	27017
827.88	27100
828.02	26883
828.159	26967
828.298	27039
828.437	27013
828.577	26861
828.716	27024
828.855	26982
828.994	26716
829.134	26655
829.273	26823
829.412	26644
829.551	26503
829.69	26632
829.829	26746
829.968	26800
830.107	26815
830.246	26545
830.385	26716
830.524	26473
830.663	26453
830.802	26351
830.941	26180
831.08	26332
831.219	26457
831.357	26453
831.496	26549
831.635	26313
831.774	26240
831.913	26130
832.051	26161
832.19	26062
832.329	26020
832.467	25997
832.606	25928
832.744	25894
832.883	26012
833.022	26031
833.16	26001
833.299	26050
833.437	26081
833.576	26039
833.714	26016
833.852	26062
833.991	26142
834.129	26012
834.267	26126
834.406	25909
834.544	26073
834.682	26081
834.821	25906
834.959	26183
835.097	25997
835.235	26020
835.373	25928
835.511	26012
835.65	25814
835.788	25883
835.926	25681
836.064	25578
836.202	25677
836.34	25761
836.478	25913
836.615	25662
836.753	25841
836.891	25925
837.029	25837
837.167	25830
837.305	25700
837.443	25719
837.58	25780
837.718	25693
837.856	25746
837.993	25525
838.131	25635
838.269	25624
838.406	25594
838.544	25415
838.681	25354
838.819	25365
838.956	25118
839.094	25084
839.231	25160
839.369	25327
839.506	25594
839.643	25331
839.781	25065
839.918	24966
840.055	25050
840.193	25053
840.33	24981
840.467	25110
840.604	25076
840.742	25259
840.879	24913
841.016	24916
841.153	24932
841.29	25183
841.427	25088
841.564	25053
841.701	24973
841.838	25004
841.975	24882
842.112	24928
842.249	24890
842.385	24821
842.522	24909
842.659	24749
842.796	24772
842.933	24715
843.069	24840
843.206	24745
843.343	24684
843.479	24871
843.616	24810
843.752	24479
843.889	24616
844.025	24631
844.162	24620
844.298	24642
844.435	24620
844.571	24566
844.708	24578
844.844	24650
844.98	24783
845.117	24669
845.253	24479
845.389	24422
845.525	24426
845.661	24338
845.798	24334
845.934	24296
846.07	24262
846.206	24289
846.342	24456
846.478	24350
846.614	24106
846.75	23889
846.886	23965
847.022	24068
847.158	24038
847.294	24125
847.429	24003
847.565	23988
847.701	24228
847.837	23691
847.972	23710
848.108	23783
848.244	23790
848.379	23604
848.515	23657
848.65	23623
848.786	23516
848.921	23596
849.057	23737
849.192	23619
849.328	23695
849.463	23623
849.598	23573
849.734	23463
849.869	23376
850.004	23448
850.14	23398
850.275	23315
850.41	23299
850.545	23280
850.68	23372
850.815	23311
850.95	23261
851.085	23554
851.22	23539
851.355	23402
851.49	23231
851.625	23326
851.76	23280
851.895	23337
852.03	23284
852.165	23356
852.299	23459
852.434	23429
852.569	23311
852.703	23360
852.838	23383
852.973	23543
853.107	23452
853.242	23296
853.376	23124
853.511	22987
853.645	23178
853.78	23360
853.914	23242
854.048	23212
854.183	23189
854.317	23265
854.451	23181
854.585	23261
854.72	23162
854.854	23162
854.988	23147
855.122	23079
855.256	22999
855.39	23250
855.524	23258
855.658	23296
855.792	23284
855.926	23231
856.06	23258
856.194	23250
856.327	23136
856.461	23170
856.595	23086
856.729	23121
856.862	23284
856.996	23121
857.13	23200
857.263	23326
857.397	23292
857.53	23132
857.664	23227
857.797	23322
857.931	23227
858.064	23159
858.197	23307
858.331	23117
858.464	23235
858.597	22999
858.731	23140
858.864	23140
858.997	23079
859.13	23147
859.263	23193
859.396	23189
859.529	23189
859.662	23113
859.795	23064
859.928	23318
860.061	23356
860.194	23516
860.327	23178
860.46	23204
860.592	23315
860.725	23406
860.858	23372
860.99	23204
861.123	23037
861.256	23117
861.388	23204
861.521	23794
861.653	23003
861.786	23071
861.918	23083
862.05	23029
862.183	22984
862.315	23075
862.447	23170
862.58	23121
862.712	22843
862.844	22797
862.976	22915
863.108	22900
863.24	23455
863.372	22881
863.504	22911
863.636	22938
863.768	22820
863.9	22934
864.032	22698
864.164	22778
864.296	22866
864.428	22915
864.559	22896
864.691	22930
864.823	22877
864.954	22767
865.086	22885
865.217	22717
865.349	22675
865.48	22752
865.612	22866
865.743	22862
865.875	22778
866.006	22691
866.137	22713
866.269	22653
866.4	22702
866.531	22683
866.662	22523
866.793	22744
866.924	22664
867.055	22820
867.186	22786
867.317	22717
867.448	22774
867.579	22736
867.71	22569
867.841	22664
867.972	22675
868.103	22615
868.233	22592
868.364	22664
868.495	22759
868.625	22774
868.756	23174
868.886	22725
869.017	22980
869.147	23064
869.278	22957
869.408	22942
869.539	22923
869.669	23064
869.799	23003
869.929	23136
870.06	22984
870.19	23220
870.32	23193
870.45	23159
870.58	23334
870.71	23440
870.84	23368
870.97	23216
871.1	23265
871.23	23566
871.36	23547
871.489	23516
871.619	23497
871.749	23387
871.879	23592
872.008	23478
872.138	23577
872.267	23452
872.397	23448
872.526	23200
872.656	23379
872.785	23368
872.915	23520
873.044	23585
873.173	23611
873.303	23649
873.432	23585
873.561	23707
873.69	23535
873.819	23531
873.948	23562
874.077	23490
874.206	23440
874.335	23512
874.464	23687
874.593	23695
874.722	23649
874.851	23760
874.979	23672
875.108	23824
875.237	23756
875.365	23786
875.494	23684
875.623	23779
875.751	23668
875.88	23863
876.008	23828
876.136	23942
876.265	23980
876.393	24216
876.521	24178
876.65	24136
876.778	24171
876.906	24125
877.034	24213
877.162	24155
877.29	24030
877.418	24182
877.546	24064
877.674	24003
877.802	24133
877.93	24026
878.058	24102
878.185	23942
878.313	23958
878.441	23847
878.568	23931
878.696	24022
878.824	24110
878.951	24197
879.079	24254
879.206	24376
879.333	24251
879.461	24152
879.588	24247
879.715	24262
879.842	24384
879.97	24163
880.097	23840
880.224	23775
880.351	23843
880.478	23916
880.605	23939
880.732	23958
880.859	24239
880.986	23824
881.112	23980
881.239	23752
881.366	23562
881.493	23604
881.619	23356
881.746	23531
881.872	23402
881.999	23360
882.125	23391
882.252	23478
882.378	23414
882.505	23547
882.631	23277
882.757	23071
882.883	23284
883.01	23086
883.136	23185
883.262	23132
883.388	22961
883.514	23208
883.64	23170
883.766	22995
883.892	22812
884.018	22919
884.143	22995
884.269	23124
884.395	22850
884.52	22748
884.646	22748
884.772	22622
884.897	22596
885.023	22858
885.148	22782
885.274	22820
885.399	22968
885.524	22717
885.65	22725
885.775	22664
885.9	22733
886.025	22953
886.15	22847
886.275	22607
886.4	22618
886.525	22599
886.65	22679
886.775	22546
886.9	22911
887.025	22824
887.149	22790
887.274	22538
887.399	22508
887.523	22428
887.648	22535
887.773	22417
887.897	22523
888.021	22459
888.146	22428
888.27	22577
888.395	22645
888.519	22580
888.643	22580
888.767	22565
888.891	22424
889.015	22325
889.139	22341
889.263	22363
889.387	22459
889.511	22615
889.635	22344
889.759	22219
889.883	22318
890.006	22257
890.13	22303
890.254	22207
890.377	22215
890.501	22013
890.624	22082
890.748	22032
890.871	21751
890.995	21800
891.118	21808
891.241	21835
891.364	21876
891.488	21956
891.611	21850
891.734	21701
891.857	21854
891.98	21770
892.103	21838
892.226	21835
892.349	21827
892.471	21580
892.594	21732
892.717	21747
892.839	21675
892.962	21663
893.085	21667
893.207	21865
893.33	21614
893.452	21667
893.575	21682
893.697	21644
893.819	21838
893.941	22017
894.064	21770
894.186	21561
894.308	21587
894.43	21690
894.552	21770
894.674	21812
894.796	21633
894.918	21641
895.04	21591
895.161	21656
895.283	21671
895.405	21530
895.526	21587
895.648	21564
895.769	21701
895.891	21717
896.012	21694
896.134	21705
896.255	21747
896.376	21603
896.498	21637
896.619	21698
896.74	21694
896.861	21774
896.982	22025
897.103	21991
897.224	21819
897.345	21903
897.466	21781
897.587	21781
897.708	21968
897.828	21972
897.949	21899
898.07	21751
898.19	21774
898.311	21953
898.431	21789
898.552	21831
898.672	21983
898.792	21918
898.913	21831
899.033	21553
899.153	21713
899.273	21679
899.393	21618
899.513	21576
899.633	21572
899.753	21564
899.873	21443
899.993	21675
900.113	21405
900.232	21485
900.352	21526
900.472	21542
900.591	21439
900.711	21424
900.83	21321
900.95	21348
901.069	21561
901.189	21173
901.308	21017
901.427	20979
901.546	20834
901.665	20785
901.784	20857
901.904	20727
902.023	20568
902.141	20526
902.26	20408
902.379	20431
902.498	20434
902.617	20324
902.735	20347
902.854	20244
902.973	20271
903.091	20176
903.21	20012
903.328	20054
903.446	19917
903.565	19932
903.683	19978
903.801	19719
903.919	19738
904.038	19662
904.156	19655
904.274	19708
904.392	19597
904.51	19552
904.627	19571
904.745	19620
904.863	19537
904.981	19335
905.098	19274
905.216	19255
905.334	19388
905.451	19282
905.569	19148
905.686	19206
905.803	19160
905.921	19076
906.038	19126
906.155	19091
906.272	18901
906.389	18985
906.506	18787
906.623	18768
906.74	18878
906.857	18745
906.974	18574
907.091	18783
907.208	18840
907.324	18882
907.441	18681
907.557	18585
907.674	18460
907.79	18429
907.907	18429
908.023	18513
908.139	18418
908.256	18376
908.372	18209
908.488	18391
908.604	18357
908.72	18315
908.836	18220
908.952	18224
909.068	18083
909.184	18266
909.3	18194
909.415	18144
909.531	18140
909.647	17923
909.762	17775
909.878	17859
909.993	17901
910.108	17828
910.224	17802
910.339	17745
910.454	17646
910.57	17608
910.685	17623
910.8	17828
910.915	17874
911.03	17668
911.145	17417
911.259	17395
911.374	17345
911.489	17402
911.604	17341
911.718	17250
911.833	17102
911.947	17064
912.062	17048
912.176	17117
912.291	17136
912.405	17242
912.519	17364
912.633	17395
912.748	17288
912.862	17124
912.976	16999
913.09	16900
913.204	16927
913.318	17003
913.431	17102
913.545	17045
913.659	16991
913.772	16911
913.886	16828
914	16653
914.113	16816
914.226	16911
914.34	16835
914.453	16687
914.566	16820
914.68	16691
914.793	16694
914.906	16421
915.019	16314
915.132	16306
915.245	16322
915.358	16314
915.47	16341
915.583	16246
915.696	16329
915.809	16428
915.921	16527
916.034	16310
916.146	16280
916.259	16268
916.371	16257
916.483	16150
916.595	16124
916.708	16166
916.82	16101
916.932	16128
917.044	16120
917.156	16002
917.268	15915
917.38	15884
917.491	15895
917.603	15972
917.715	15968
917.826	16090
917.938	15861
918.049	15724
918.161	15892
918.272	15994
918.384	15987
918.495	15869
918.606	15751
918.717	15667
918.828	15686
918.939	15732
919.05	15526
919.161	15652
919.272	15477
919.383	15473
919.494	15671
919.604	15850
919.715	15625
919.826	15675
919.936	15629
920.047	15641
920.157	15660
920.267	15781
920.378	15610
920.488	15542
920.598	15694
920.708	15835
920.818	15755
920.928	15781
921.038	15876
921.148	15835
921.258	15519
921.368	15504
921.477	15363
921.587	15408
921.697	15207
921.806	15237
921.916	15135
922.025	14998
922.134	15032
922.244	14937
922.353	14941
922.462	14838
922.571	14796
922.68	14552
922.789	14667
922.898	14602
923.007	14587
923.116	14659
923.224	14511
923.333	14659
923.442	14526
923.55	14431
923.659	14450
923.767	14484
923.876	14377
923.984	14408
924.092	14195
924.201	14237
924.309	14324
924.417	14328
924.525	14225
924.633	14172
924.741	15165
924.849	13932
924.956	14149
925.064	13993
925.172	13925
925.279	13887
925.387	13963
925.494	13932
925.602	14130
925.709	14073
925.816	13902
925.924	13799
926.031	13925
926.138	13818
926.245	13883
926.352	13746
926.459	13921
926.566	13928
926.673	13807
926.779	13746
926.886	13643
926.993	13480
927.099	13457
927.206	13419
927.312	13369
927.419	13514
927.525	13476
927.631	13567
927.737	13445
927.843	13316
927.95	13149
928.056	13278
928.162	13278
928.267	13304
928.373	13841
928.479	13320
928.585	13084
928.69	13118
928.796	13320
928.901	13171
929.007	12947
929.112	13152
929.218	13095
929.323	13050
929.428	12932
929.533	13069
929.638	12916
929.743	12943
929.848	12954
929.953	12966
930.058	12844
930.163	12597
930.267	12650
930.372	12768
930.477	12532
930.581	12772
930.685	12688
930.79	12525
930.894	12528
930.998	12429
931.103	12608
931.207	12213
931.311	12194
931.415	12038
931.519	11866
931.623	11878
