Data from test_V78500241_2385.txt Node
Date: Fri Mar 25 15:58:19 CST 2022
User: usil
Spectrometer: V785-0024
Trigger mode: 0
Integration Time (sec): 4.000000E-1
Scans to average: 1
Nonlinearity correction enabled: false
Boxcar width: 0
Storing dark spectrum: false
XAxis mode: Wavelengths
Number of Pixels in Spectrum: 1024
>>>>>Begin Spectral Data<<<<<
801.071	28858
801.214	28607
801.356	28573
801.499	28386
801.641	28188
801.783	28268
801.926	28409
802.068	28382
802.211	28291
802.353	28166
802.496	28067
802.638	28017
802.78	27903
802.923	27964
803.065	27816
803.208	27934
803.35	27922
803.492	28177
803.635	28207
803.777	28181
803.919	28238
804.061	28535
804.204	28344
804.346	28131
804.488	28360
804.63	28246
804.773	28086
804.915	28219
805.057	28386
805.199	28185
805.341	28337
805.483	28470
805.626	28394
805.768	28451
805.91	28405
806.052	28390
806.194	28466
806.336	28527
806.478	28306
806.62	28519
806.762	28599
806.904	28611
807.046	28953
807.188	28858
807.33	28809
807.472	28801
807.614	28828
807.756	28801
807.898	28820
808.04	28694
808.182	28573
808.324	28702
808.465	28812
808.607	28908
808.749	28995
808.891	29071
809.033	29322
809.174	29162
809.316	29162
809.458	29037
809.6	28995
809.741	29280
809.883	29318
810.025	29288
810.166	29269
810.308	29322
810.45	29341
810.591	29322
810.733	29356
810.875	29064
811.016	29037
811.158	29018
811.299	29265
811.441	29208
811.582	29197
811.724	29166
811.865	29018
812.007	29006
812.148	29143
812.29	29048
812.431	29258
812.573	29528
812.714	29459
812.855	29539
812.997	29752
813.138	29813
813.279	29710
813.421	29668
813.562	29657
813.703	29448
813.845	29216
813.986	29090
814.127	28885
814.268	28782
814.41	28759
814.551	28797
814.692	28877
814.833	28911
814.974	28862
815.115	28797
815.256	28683
815.397	28752
815.539	28717
815.68	28698
815.821	28497
815.962	28512
816.103	28664
816.244	28569
816.385	28432
816.526	28447
816.666	28367
816.807	27934
816.948	28284
817.089	28242
817.23	28093
817.371	28204
817.512	28204
817.653	28044
817.793	28101
817.934	28044
818.075	28196
818.216	28078
818.356	28070
818.497	28116
818.638	27945
818.778	27762
818.919	27926
819.06	27945
819.2	28025
819.341	28063
819.481	28128
819.622	28257
819.762	28474
819.903	28481
820.043	28352
820.184	28318
820.324	28375
820.465	28356
820.605	28352
820.746	28333
820.886	28135
821.026	28310
821.167	28215
821.307	28101
821.447	28078
821.588	28044
821.728	27899
821.868	27831
822.008	27580
822.149	27625
822.289	27534
822.429	27435
822.569	27230
822.709	27237
822.849	27161
822.99	27085
823.13	27047
823.27	27055
823.41	26842
823.55	26819
823.69	27157
823.83	26956
823.97	26933
824.11	26697
824.25	26754
824.389	26815
824.529	26796
824.669	26720
824.809	26952
824.949	27020
825.089	26902
825.228	26781
825.368	26541
825.508	26655
825.648	26655
825.787	26739
825.927	26648
826.067	26651
826.206	26674
826.346	26712
826.485	26743
826.625	26663
826.765	26762
826.904	26750
827.044	26450
827.183	26370
827.323	26263
827.462	26381
827.601	26453
827.741	26282
827.88	26305
828.02	26206
828.159	26290
828.298	26358
828.437	26469
828.577	26267
828.716	26347
828.855	26294
828.994	26111
829.134	26039
829.273	26096
829.412	26073
829.551	26058
829.69	25928
829.829	26214
829.968	26248
830.107	26138
830.246	26027
830.385	26065
830.524	25894
830.663	25826
830.802	25731
830.941	25628
831.08	25575
831.219	25738
831.357	25750
831.496	25830
831.635	25674
831.774	25616
831.913	25582
832.051	25369
832.19	25506
832.329	25559
832.467	25377
832.606	25381
832.744	25339
832.883	25304
833.022	25259
833.16	25350
833.299	25312
833.437	25343
833.576	25320
833.714	25445
833.852	25373
833.991	25499
834.129	25365
834.267	25453
834.406	25396
834.544	25514
834.682	25396
834.821	25438
834.959	25510
835.097	25327
835.235	25445
835.373	25422
835.511	25304
835.65	25217
835.788	25304
835.926	25156
836.064	25034
836.202	25000
836.34	25141
836.478	25289
836.615	25110
836.753	25228
836.891	25270
837.029	25164
837.167	25091
837.305	25091
837.443	25084
837.58	24973
837.718	25057
837.856	25012
837.993	25015
838.131	24920
838.269	24992
838.406	25008
838.544	24856
838.681	24757
838.819	24570
838.956	24486
839.094	24551
839.231	24513
839.369	24646
839.506	24829
839.643	24760
839.781	24536
839.918	24414
840.055	24338
840.193	24456
840.33	24384
840.467	24426
840.604	24494
840.742	24623
840.879	24266
841.016	24365
841.153	24315
841.29	24429
841.427	24323
841.564	24494
841.701	24391
841.838	24414
841.975	24243
842.112	24216
842.249	24197
842.385	24190
842.522	24445
842.659	24148
842.796	24136
842.933	24136
843.069	24095
843.206	24102
843.343	24205
843.479	24247
843.616	24087
843.752	23950
843.889	24060
844.025	24110
844.162	23863
844.298	24083
844.435	23901
844.571	23843
844.708	24030
844.844	24003
844.98	24007
845.117	24091
845.253	23824
845.389	23802
845.525	23821
845.661	23813
845.798	23634
845.934	23783
846.07	23661
846.206	23680
846.342	23760
846.478	23623
846.614	23497
846.75	23376
846.886	23391
847.022	23531
847.158	23421
847.294	23410
847.429	23433
847.565	23376
847.701	23661
847.837	23079
847.972	23048
848.108	23189
848.244	23086
848.379	23022
848.515	22946
848.65	22896
848.786	23003
848.921	22923
849.057	23048
849.192	23022
849.328	23018
849.463	22957
849.598	22869
849.734	22854
849.869	22698
850.004	22752
850.14	22691
850.275	22691
850.41	22618
850.545	22698
850.68	22615
850.815	22904
850.95	22729
851.085	22843
851.22	22866
851.355	22706
851.49	22672
851.625	22717
851.76	22702
851.895	22641
852.03	22672
852.165	22748
852.299	22664
852.434	22839
852.569	22721
852.703	22740
852.838	22607
852.973	22866
853.107	22782
853.242	22729
853.376	22577
853.511	22356
853.645	22519
853.78	22630
853.914	22542
854.048	22489
854.183	22683
854.317	22736
854.451	22706
854.585	22523
854.72	22516
854.854	22565
854.988	22653
855.122	22626
855.256	22440
855.39	22504
855.524	22634
855.658	22622
855.792	22512
855.926	22675
856.06	22554
856.194	22626
856.327	22649
856.461	22504
856.595	22379
856.729	22508
856.862	22706
856.996	22675
857.13	22550
857.263	22675
857.397	22641
857.53	22493
857.664	22550
857.797	22573
857.931	22649
858.064	22588
858.197	22630
858.331	22557
858.464	22508
858.597	22329
858.731	22569
858.864	22577
858.997	22417
859.13	22523
859.263	22508
859.396	22660
859.529	22402
859.662	22497
859.795	22360
859.928	22542
860.061	22607
860.194	22774
860.327	22535
860.46	22622
860.592	22668
860.725	22672
860.858	22580
860.99	22462
861.123	22386
861.256	22542
861.388	22630
861.521	23391
861.653	22535
861.786	22341
861.918	22402
862.05	22535
862.183	22428
862.315	22516
862.447	22512
862.58	22341
862.712	22238
862.844	22261
862.976	22272
863.108	22272
863.24	22744
863.372	22352
863.504	22139
863.636	22192
863.768	22360
863.9	22249
864.032	22116
864.164	22173
864.296	22291
864.428	22390
864.559	22219
864.691	22367
864.823	22299
864.954	22188
865.086	22166
865.217	22204
865.349	22074
865.48	22147
865.612	22128
865.743	22268
865.875	22090
866.006	22116
866.137	22139
866.269	22070
866.4	22070
866.531	22051
866.662	22177
866.793	22059
866.924	22010
867.055	22078
867.186	22211
867.317	22078
867.448	22067
867.579	22055
867.71	22021
867.841	22044
867.972	22109
868.103	22090
868.233	22135
868.364	22093
868.495	22215
868.625	22287
868.756	22402
868.886	22173
869.017	22310
869.147	22402
869.278	22424
869.408	22360
869.539	22314
869.669	22478
869.799	22382
869.929	22466
870.06	22466
870.19	22717
870.32	22512
870.45	22615
870.58	22706
870.71	22755
870.84	22748
870.97	22736
871.1	22778
871.23	22797
871.36	22923
871.489	22763
871.619	22961
871.749	22866
871.879	22957
872.008	23006
872.138	22938
872.267	22889
872.397	22771
872.526	22755
872.656	22660
872.785	22649
872.915	23052
873.044	23029
873.173	22873
873.303	23010
873.432	22961
873.561	22984
873.69	22995
873.819	22904
873.948	22949
874.077	23014
874.206	22904
874.335	23102
874.464	23071
874.593	23128
874.722	23044
874.851	23143
874.979	23208
875.108	23212
875.237	23132
875.365	22957
875.494	23113
875.623	23227
875.751	23075
875.88	23018
876.008	23162
876.136	23330
876.265	23535
876.393	23562
876.521	23604
876.65	23619
876.778	23497
876.906	23505
877.034	23425
877.162	23459
877.29	23493
877.418	23444
877.546	23383
877.674	23345
877.802	23448
877.93	23391
878.058	23395
878.185	23368
878.313	23421
878.441	23455
878.568	23254
878.696	23368
878.824	23478
878.951	23539
879.079	23493
879.206	23756
879.333	23611
879.461	23425
879.588	23630
879.715	23562
879.842	23668
879.97	23478
880.097	23296
880.224	23322
880.351	23330
880.478	23349
880.605	23296
880.732	23299
880.859	23539
880.986	23341
881.112	23284
881.239	23147
881.366	23033
881.493	22915
881.619	22858
881.746	22946
881.872	22862
881.999	22740
882.125	22744
882.252	22839
882.378	22740
882.505	22930
882.631	22717
882.757	22546
882.883	22679
883.01	22580
883.136	22466
883.262	22428
883.388	22447
883.514	22561
883.64	22535
883.766	22440
883.892	22177
884.018	22398
884.143	22409
884.269	22554
884.395	22204
884.52	22101
884.646	22192
884.772	21941
884.897	22036
885.023	22002
885.148	22242
885.274	22181
885.399	22303
885.524	22131
885.65	22128
885.775	22135
885.9	22211
886.025	22192
886.15	22162
886.275	22070
886.4	22074
886.525	22105
886.65	22124
886.775	22048
886.9	22344
887.025	22398
887.149	22112
887.274	21937
887.399	21941
887.523	21953
887.648	21968
887.773	21724
887.897	21960
888.021	21979
888.146	21873
888.27	21831
888.395	22044
888.519	21823
888.643	21941
888.767	21972
888.891	21827
889.015	21743
889.139	21762
889.263	21671
889.387	21800
889.511	22006
889.635	21918
889.759	21671
889.883	21690
890.006	21736
890.13	21812
890.254	21568
890.377	21641
890.501	21454
890.624	21412
890.748	21511
890.871	21367
890.995	21298
891.118	21154
891.241	21275
891.364	21218
891.488	21298
891.611	21252
891.734	21192
891.857	21279
891.98	21302
892.103	21195
892.226	21195
892.349	21192
892.471	20952
892.594	21051
892.717	21116
892.839	21032
892.962	21131
893.085	21268
893.207	21043
893.33	20963
893.452	20967
893.575	21062
893.697	21100
893.819	21298
893.941	21378
894.064	21279
894.186	21096
894.308	21112
894.43	21214
894.552	21294
894.674	21142
894.796	21039
894.918	21100
895.04	21112
895.161	21233
895.283	21123
895.405	21009
895.526	21013
895.648	21028
895.769	21180
895.891	21150
896.012	21131
896.134	21066
896.255	21165
896.376	21085
896.498	21146
896.619	21089
896.74	21161
896.861	21226
896.982	21344
897.103	21519
897.224	21264
897.345	21340
897.466	21279
897.587	21264
897.708	21519
897.828	21340
897.949	21237
898.07	21135
898.19	21329
898.311	21367
898.431	21321
898.552	21393
898.672	21473
898.792	21401
898.913	21431
899.033	21188
899.153	21119
899.273	21032
899.393	21131
899.513	21135
899.633	21085
899.753	20944
899.873	20921
899.993	21036
900.113	20975
900.232	20990
900.352	20845
900.472	20834
900.591	20925
900.711	20823
900.83	20758
900.95	20853
901.069	20880
901.189	20800
901.308	20484
901.427	20419
901.546	20355
901.665	20370
901.784	20362
901.904	20305
902.023	20096
902.141	19894
902.26	19959
902.379	19993
902.498	19913
902.617	19871
902.735	19852
902.854	19864
902.973	19822
903.091	19571
903.21	19563
903.328	19540
903.446	19468
903.565	19449
903.683	19312
903.801	19354
903.919	19369
904.038	19266
904.156	19107
904.274	19209
904.392	19072
904.51	18996
904.627	19031
904.745	19213
904.863	19072
904.981	18867
905.098	18791
905.216	18776
905.334	18840
905.451	18825
905.569	18848
905.686	18795
905.803	18650
905.921	18730
906.038	18703
906.155	18490
906.272	18365
906.389	18483
906.506	18441
906.623	18296
906.74	18384
906.857	18125
906.974	18136
907.091	18311
907.208	18361
907.324	18372
907.441	18224
907.557	18011
907.674	17980
907.79	17954
907.907	17920
908.023	18133
908.139	18041
908.256	17927
908.372	17954
908.488	17840
908.604	17687
908.72	17653
908.836	17668
908.952	17623
909.068	17710
909.184	17672
909.3	17668
909.415	17764
909.531	17676
909.647	17467
909.762	17406
909.878	17345
909.993	17463
910.108	17364
910.224	17341
910.339	17379
910.454	17235
910.57	17098
910.685	17075
910.8	17318
910.915	17296
911.03	17200
911.145	16968
911.259	16968
911.374	16873
911.489	16968
911.604	16755
911.718	16733
911.833	16607
911.947	16683
912.062	16577
912.176	16687
912.291	16706
912.405	16706
912.519	16961
912.633	16778
912.748	16721
912.862	16683
912.976	16577
913.09	16432
913.204	16500
913.318	16561
913.431	16565
913.545	16656
913.659	16706
913.772	16493
913.886	16421
914	16375
914.113	16398
914.226	16344
914.34	16447
914.453	16230
914.566	16226
914.68	16226
914.793	16185
914.906	16074
915.019	15873
915.132	15968
915.245	15850
915.358	15922
915.47	15915
915.583	15926
915.696	15873
915.809	16036
915.921	15979
916.034	15857
916.146	15831
916.259	15698
916.371	15846
916.483	15842
916.595	15720
916.708	15698
916.82	15572
916.932	15705
917.044	15686
917.156	15603
917.268	15496
917.38	15576
917.491	15526
917.603	15553
917.715	15610
917.826	15523
917.938	15507
918.049	15382
918.161	15397
918.272	15591
918.384	15595
918.495	15408
918.606	15302
918.717	15161
918.828	15264
918.939	15241
919.05	15142
919.161	15146
919.272	15028
919.383	15112
919.494	15279
919.604	15370
919.715	15241
919.826	15142
919.936	15097
920.047	15211
920.157	15230
920.267	15317
920.378	15230
920.488	15135
920.598	15313
920.708	15568
920.818	15317
920.928	15325
921.038	15530
921.148	15443
921.258	15161
921.368	15081
921.477	14910
921.587	15032
921.697	14823
921.806	14933
921.916	14773
922.025	14659
922.134	14571
922.244	14575
922.353	14629
922.462	14469
922.571	14389
922.68	14183
922.789	14164
922.898	14195
923.007	14164
923.116	14244
923.224	14202
923.333	14161
923.442	14024
923.55	13986
923.659	14077
923.767	14046
923.876	13993
923.984	14031
924.092	13982
924.201	13902
924.309	13894
924.417	13898
924.525	13890
924.633	13795
924.741	14716
924.849	13685
924.956	13693
925.064	13666
925.172	13537
925.279	13495
925.387	13502
925.494	13582
925.602	13746
925.709	13662
925.816	13544
925.924	13483
926.031	13624
926.138	13582
926.245	13544
926.352	13419
926.459	13499
926.566	13575
926.673	13411
926.779	13304
926.886	13381
926.993	13156
927.099	13129
927.206	13114
927.312	13141
927.419	13107
927.525	13126
927.631	13065
927.737	13031
927.843	13004
927.95	12821
928.056	12970
928.162	13015
928.267	12833
928.373	13597
928.479	13046
928.585	12757
928.69	12916
928.796	12932
928.901	12749
929.007	12639
929.112	12741
929.218	12711
929.323	12741
929.428	12715
929.533	12753
929.638	12506
929.743	12654
929.848	12665
929.953	12627
930.058	12475
930.163	12300
930.267	12346
930.372	12464
930.477	12281
930.581	12418
930.685	12361
930.79	12186
930.894	12194
930.998	12232
931.103	12372
931.207	11942
931.311	11786
931.415	11779
931.519	11619
931.623	11505
