Data from test_V78500241_2791.txt Node
Date: Fri Mar 25 16:01:08 CST 2022
User: usil
Spectrometer: V785-0024
Trigger mode: 0
Integration Time (sec): 4.000000E-1
Scans to average: 1
Nonlinearity correction enabled: false
Boxcar width: 0
Storing dark spectrum: false
XAxis mode: Wavelengths
Number of Pixels in Spectrum: 1024
>>>>>Begin Spectral Data<<<<<
801.071	29067
801.214	28965
801.356	28919
801.499	28744
801.641	28687
801.783	28672
801.926	28763
802.068	28580
802.211	28550
802.353	28584
802.496	28363
802.638	28394
802.78	28325
802.923	28291
803.065	28348
803.208	28306
803.35	28455
803.492	28607
803.635	28516
803.777	28451
803.919	28611
804.061	29010
804.204	28653
804.346	28588
804.488	28500
804.63	28630
804.773	28584
804.915	28782
805.057	28793
805.199	28622
805.341	28634
805.483	28755
805.626	28881
805.768	28691
805.91	28744
806.052	28866
806.194	28721
806.336	28999
806.478	28911
806.62	28801
806.762	28904
806.904	28976
807.046	29395
807.188	29326
807.33	29174
807.472	29318
807.614	29200
807.756	29174
807.898	29033
808.04	28930
808.182	29022
808.324	29212
808.465	29079
808.607	29277
808.749	29539
808.891	29691
809.033	29676
809.174	29573
809.316	29592
809.458	29433
809.6	29429
809.741	29497
809.883	29676
810.025	29927
810.166	29760
810.308	29969
810.45	29649
810.591	29604
810.733	29600
810.875	29581
811.016	29501
811.158	29398
811.299	29707
811.441	29710
811.582	29748
811.724	29619
811.865	29448
812.007	29539
812.148	29486
812.29	29531
812.431	29733
812.573	30003
812.714	29847
812.855	29977
812.997	30182
813.138	30281
813.279	30201
813.421	30057
813.562	30034
813.703	29859
813.845	29741
813.986	29596
814.127	29292
814.268	29250
814.41	29178
814.551	29277
814.692	29368
814.833	29193
814.974	29193
815.115	29330
815.256	29162
815.397	29067
815.539	29216
815.68	29151
815.821	29037
815.962	29022
816.103	29124
816.244	28881
816.385	28873
816.526	28698
816.666	28588
816.807	28535
816.948	28550
817.089	28687
817.23	28550
817.371	28527
817.512	28569
817.653	28519
817.793	28622
817.934	28569
818.075	28538
818.216	28542
818.356	28607
818.497	28401
818.638	28382
818.778	28394
818.919	28405
819.06	28356
819.2	28325
819.341	28599
819.481	28641
819.622	28748
819.762	28923
819.903	28752
820.043	28942
820.184	28668
820.324	28656
820.465	28611
820.605	28641
820.746	28615
820.886	28538
821.026	28698
821.167	28637
821.307	28801
821.447	28763
821.588	28523
821.728	28379
821.868	28181
822.008	28162
822.149	28181
822.289	28097
822.429	27701
822.569	27743
822.709	27736
822.849	27641
822.99	27557
823.13	27660
823.27	27431
823.41	27389
823.55	27173
823.69	27473
823.83	27439
823.97	27374
824.11	27211
824.25	27176
824.389	27329
824.529	27268
824.669	27237
824.809	27397
824.949	27435
825.089	27233
825.228	27298
825.368	27013
825.508	27066
825.648	27039
825.787	27180
825.927	27112
826.067	27135
826.206	27176
826.346	27116
826.485	27302
826.625	27192
826.765	27226
826.904	27195
827.044	26880
827.183	26845
827.323	26674
827.462	26960
827.601	26777
827.741	26826
827.88	26857
828.02	26678
828.159	26857
828.298	26857
828.437	26940
828.577	26716
828.716	26857
828.855	26807
828.994	26499
829.134	26530
829.273	26625
829.412	26488
829.551	26450
829.69	26412
829.829	26484
829.968	26533
830.107	26560
830.246	26507
830.385	26549
830.524	26427
830.663	26484
830.802	26199
830.941	26233
831.08	26043
831.219	26176
831.357	26218
831.496	26309
831.635	26183
831.774	26107
831.913	26092
832.051	25982
832.19	25928
832.329	25879
832.467	25875
832.606	25822
832.744	25715
832.883	25624
833.022	25795
833.16	25769
833.299	25982
833.437	25887
833.576	25940
833.714	25982
833.852	25769
833.991	25959
834.129	26008
834.267	25963
834.406	25944
834.544	25715
834.682	25883
834.821	25970
834.959	25879
835.097	25860
835.235	25818
835.373	25719
835.511	25925
835.65	25655
835.788	25700
835.926	25544
836.064	25460
836.202	25518
836.34	25731
836.478	25738
836.615	25594
836.753	25822
836.891	25723
837.029	25731
837.167	25613
837.305	25529
837.443	25472
837.58	25495
837.718	25609
837.856	25533
837.993	25533
838.131	25533
838.269	25392
838.406	25445
838.544	25339
838.681	25183
838.819	25247
838.956	24947
839.094	25000
839.231	24985
839.369	25126
839.506	25282
839.643	25129
839.781	24867
839.918	24890
840.055	25034
840.193	24947
840.33	24859
840.467	24825
840.604	24913
840.742	25091
840.879	24703
841.016	24787
841.153	24711
841.29	24928
841.427	24837
841.564	24985
841.701	24726
841.838	24840
841.975	24646
842.112	24795
842.249	24661
842.385	24612
842.522	24726
842.659	24688
842.796	24498
842.933	24582
843.069	24559
843.206	24734
843.343	24738
843.479	24616
843.616	24502
843.752	24384
843.889	24452
844.025	24513
844.162	24372
844.298	24452
844.435	24270
844.571	24403
844.708	24369
844.844	24544
844.98	24559
845.117	24486
845.253	24395
845.389	24239
845.525	24479
845.661	24182
845.798	24011
845.934	24174
846.07	23984
846.206	24266
846.342	24254
846.478	24098
846.614	24007
846.75	23809
846.886	23805
847.022	23935
847.158	23874
847.294	23783
847.429	23824
847.565	23847
847.701	24053
847.837	23566
847.972	23440
848.108	23665
848.244	23577
848.379	23436
848.515	23493
848.65	23406
848.786	23391
848.921	23406
849.057	23509
849.192	23398
849.328	23337
849.463	23440
849.598	23383
849.734	23212
849.869	23467
850.004	23235
850.14	23280
850.275	23166
850.41	23079
850.545	23159
850.68	23326
850.815	23223
850.95	23128
851.085	23345
851.22	23250
851.355	23155
851.49	23208
851.625	23208
851.76	23044
851.895	23162
852.03	23109
852.165	23143
852.299	23277
852.434	23189
852.569	23315
852.703	23261
852.838	23200
852.973	23299
853.107	23277
853.242	23098
853.376	23048
853.511	23029
853.645	22927
853.78	23067
853.914	23090
854.048	22972
854.183	23071
854.317	22972
854.451	23227
854.585	23003
854.72	22927
854.854	23128
854.988	22965
855.122	23052
855.256	22942
855.39	22934
855.524	23025
855.658	23003
855.792	23014
855.926	23086
856.06	23083
856.194	23071
856.327	22984
856.461	22961
856.595	22953
856.729	22980
856.862	23277
856.996	22953
857.13	23132
857.263	23102
857.397	23143
857.53	23109
857.664	23102
857.797	22995
857.931	23181
858.064	23018
858.197	23006
858.331	23098
858.464	22911
858.597	22900
858.731	23014
858.864	22812
858.997	22949
859.13	22999
859.263	22911
859.396	22999
859.529	22816
859.662	23086
859.795	22949
859.928	23128
860.061	23079
860.194	23223
860.327	23003
860.46	22984
860.592	23189
860.725	23174
860.858	23166
860.99	23025
861.123	22911
861.256	23018
861.388	23014
861.521	23748
861.653	22854
861.786	22831
861.918	22774
862.05	22938
862.183	22968
862.315	22919
862.447	23048
862.58	22953
862.712	22687
862.844	22645
862.976	22752
863.108	22873
863.24	23143
863.372	22504
863.504	22729
863.636	22713
863.768	22805
863.9	22660
864.032	22672
864.164	22675
864.296	22763
864.428	22809
864.559	22816
864.691	22873
864.823	22793
864.954	22641
865.086	22634
865.217	22622
865.349	22527
865.48	22512
865.612	22542
865.743	22637
865.875	22557
866.006	22573
866.137	22622
866.269	22580
866.4	22474
866.531	22504
866.662	22489
866.793	22500
866.924	22523
867.055	22462
867.186	22504
867.317	22443
867.448	22440
867.579	22542
867.71	22421
867.841	22428
867.972	22523
868.103	22531
868.233	22379
868.364	22512
868.495	22679
868.625	22717
868.756	22938
868.886	22713
869.017	22603
869.147	22843
869.278	22839
869.408	22877
869.539	22736
869.669	22744
869.799	22740
869.929	22934
870.06	22847
870.19	23048
870.32	23052
870.45	23014
870.58	23052
870.71	23197
870.84	23307
870.97	23143
871.1	23105
871.23	23391
871.36	23395
871.489	23330
871.619	23307
871.749	23197
871.879	23372
872.008	23448
872.138	23280
872.267	23383
872.397	23246
872.526	23299
872.656	23189
872.785	23239
872.915	23356
873.044	23410
873.173	23421
873.303	23387
873.432	23376
873.561	23509
873.69	23406
873.819	23349
873.948	23395
874.077	23383
874.206	23239
874.335	23387
874.464	23520
874.593	23676
874.722	23558
874.851	23615
874.979	23630
875.108	23600
875.237	23368
875.365	23501
875.494	23505
875.623	23482
875.751	23509
875.88	23627
876.008	23638
876.136	23748
876.265	23969
876.393	24106
876.521	24148
876.65	23958
876.778	23893
876.906	23931
877.034	23920
877.162	23942
877.29	23965
877.418	23961
877.546	23851
877.674	23866
877.802	23847
877.93	24098
878.058	23999
878.185	23840
878.313	23866
878.441	23809
878.568	23661
878.696	23912
878.824	23904
878.951	23954
879.079	24106
879.206	24163
879.333	24106
879.461	23912
879.588	23916
879.715	24133
879.842	24121
879.97	24015
880.097	23722
880.224	23741
880.351	23767
880.478	23737
880.605	23676
880.732	23699
880.859	23885
880.986	23813
881.112	23665
881.239	23646
881.366	23414
881.493	23414
881.619	23189
881.746	23463
881.872	23250
881.999	23292
882.125	23166
882.252	23311
882.378	23189
882.505	23414
882.631	23052
882.757	22915
882.883	22999
883.01	22885
883.136	22873
883.262	22900
883.388	22759
883.514	22923
883.64	22877
883.766	22805
883.892	22828
884.018	22713
884.143	22869
884.269	22923
884.395	22588
884.52	22523
884.646	22702
884.772	22550
884.897	22459
885.023	22493
885.148	22668
885.274	22649
885.399	22664
885.524	22550
885.65	22557
885.775	22497
885.9	22462
886.025	22626
886.15	22645
886.275	22523
886.4	22546
886.525	22485
886.65	22497
886.775	22527
886.9	22577
887.025	22786
887.149	22466
887.274	22398
887.399	22272
887.523	22337
887.648	22382
887.773	22390
887.897	22253
888.021	22428
888.146	22246
888.27	22360
888.395	22390
888.519	22329
888.643	22299
888.767	22291
888.891	22196
889.015	22158
889.139	22185
889.263	22032
889.387	22230
889.511	22318
889.635	22154
889.759	22082
889.883	22162
890.006	22150
890.13	22185
890.254	21987
890.377	22063
890.501	21899
890.624	21682
890.748	21903
890.871	21751
890.995	21663
891.118	21564
891.241	21800
891.364	21705
891.488	21812
891.611	21603
891.734	21656
891.857	21679
891.98	21675
892.103	21739
892.226	21667
892.349	21523
892.471	21488
892.594	21564
892.717	21591
892.839	21572
892.962	21580
893.085	21519
893.207	21660
893.33	21401
893.452	21462
893.575	21568
893.697	21534
893.819	21663
893.941	21724
894.064	21633
894.186	21416
894.308	21359
894.43	21709
894.552	21701
894.674	21629
894.796	21454
894.918	21469
895.04	21507
895.161	21466
895.283	21534
895.405	21355
895.526	21473
895.648	21496
895.769	21587
895.891	21492
896.012	21603
896.134	21507
896.255	21488
896.376	21378
896.498	21351
896.619	21458
896.74	21367
896.861	21549
896.982	21743
897.103	21964
897.224	21698
897.345	21755
897.466	21580
897.587	21580
897.708	21831
897.828	21785
897.949	21595
898.07	21545
898.19	21614
898.311	21778
898.431	21606
898.552	21644
898.672	21625
898.792	21728
898.913	21705
899.033	21542
899.153	21523
899.273	21405
899.393	21378
899.513	21408
899.633	21359
899.753	21462
899.873	21367
899.993	21428
900.113	21329
900.232	21332
900.352	21382
900.472	21317
900.591	21154
900.711	21199
900.83	21009
900.95	21310
901.069	21214
901.189	20941
901.308	20762
901.427	20613
901.546	20754
901.665	20815
901.784	20777
901.904	20587
902.023	20667
902.141	20324
902.26	20377
902.379	20320
902.498	20183
902.617	20149
902.735	20252
902.854	20199
902.973	20180
903.091	19883
903.21	20008
903.328	19833
903.446	19826
903.565	19685
903.683	19738
903.801	19388
903.919	19582
904.038	19453
904.156	19506
904.274	19537
904.392	19400
904.51	19350
904.627	19381
904.745	19392
904.863	19464
904.981	19148
905.098	19099
905.216	19091
905.334	19194
905.451	19156
905.569	19069
905.686	19046
905.803	19213
905.921	18878
906.038	19000
906.155	18939
906.272	18943
906.389	18913
906.506	18703
906.623	18692
906.74	18582
906.857	18452
906.974	18525
907.091	18601
907.208	18844
907.324	18719
907.441	18479
907.557	18407
907.674	18330
907.79	18266
907.907	18422
908.023	18353
908.139	18448
908.256	18232
908.372	18239
908.488	18289
908.604	18129
908.72	17977
908.836	18121
908.952	18011
909.068	18038
909.184	18159
909.3	18152
909.415	17999
909.531	17992
909.647	17790
909.762	17809
909.878	17615
909.993	17775
910.108	17775
910.224	17619
910.339	17642
910.454	17570
910.57	17596
910.685	17440
910.8	17684
910.915	17691
911.03	17486
911.145	17372
911.259	17315
911.374	17307
911.489	17288
911.604	17121
911.718	17060
911.833	16965
911.947	16995
912.062	16904
912.176	17094
912.291	17018
912.405	17098
912.519	17170
912.633	17159
912.748	17102
912.862	16999
912.976	16877
913.09	16786
913.204	16797
913.318	16835
913.431	16911
913.545	16835
913.659	16889
913.772	16869
913.886	16710
914	16618
914.113	16736
914.226	16755
914.34	16755
914.453	16637
914.566	16634
914.68	16519
914.793	16424
914.906	16344
915.019	16280
915.132	16207
915.245	16211
915.358	16211
915.47	16268
915.583	16166
915.696	16169
915.809	16360
915.921	16413
916.034	16196
916.146	16082
916.259	16120
916.371	16131
916.483	16112
916.595	16044
916.708	15972
916.82	16025
916.932	15956
917.044	16071
917.156	15964
917.268	15766
917.38	15865
917.491	15842
917.603	15876
917.715	15880
917.826	15949
917.938	15739
918.049	15534
918.161	15720
918.272	15945
918.384	15937
918.495	15736
918.606	15622
918.717	15595
918.828	15553
918.939	15584
919.05	15511
919.161	15663
919.272	15386
919.383	15447
919.494	15622
919.604	15717
919.715	15618
919.826	15382
919.936	15572
920.047	15587
920.157	15576
920.267	15675
920.378	15576
920.488	15496
920.598	15701
920.708	15869
920.818	15587
920.928	15663
921.038	15808
921.148	15717
921.258	15439
921.368	15348
921.477	15336
921.587	15275
921.697	15154
921.806	15233
921.916	15169
922.025	14914
922.134	14834
922.244	14929
922.353	14883
922.462	14826
922.571	14682
922.68	14617
922.789	14431
922.898	14473
923.007	14499
923.116	14564
923.224	14564
923.333	14530
923.442	14358
923.55	14358
923.659	14434
923.767	14347
923.876	14221
923.984	14427
924.092	14206
924.201	14153
924.309	14259
924.417	14256
924.525	14050
924.633	14195
924.741	15001
924.849	13978
924.956	14073
925.064	13993
925.172	13841
925.279	13807
925.387	13845
925.494	13879
925.602	14100
925.709	13841
925.816	13799
925.924	13761
926.031	13849
926.138	13833
926.245	13791
926.352	13601
926.459	13860
926.566	13811
926.673	13757
926.779	13586
926.886	13651
926.993	13434
927.099	13472
927.206	13358
927.312	13297
927.419	13422
927.525	13358
927.631	13514
927.737	13282
927.843	13236
927.95	13095
928.056	13171
928.162	13297
928.267	13225
928.373	13632
928.479	13202
928.585	13034
928.69	13183
928.796	13190
928.901	13084
929.007	12947
929.112	13008
929.218	13038
929.323	12981
929.428	12989
929.533	13023
929.638	12871
929.743	12825
929.848	12875
929.953	12878
930.058	12722
930.163	12665
930.267	12707
930.372	12696
930.477	12551
930.581	12768
930.685	12604
930.79	12536
930.894	12517
930.998	12445
931.103	12403
931.207	12144
931.311	12140
931.415	12053
931.519	11798
931.623	11920
