Data from test_V78500241_2430.txt Node
Date: Fri Mar 25 15:58:38 CST 2022
User: usil
Spectrometer: V785-0024
Trigger mode: 0
Integration Time (sec): 4.000000E-1
Scans to average: 1
Nonlinearity correction enabled: false
Boxcar width: 0
Storing dark spectrum: false
XAxis mode: Wavelengths
Number of Pixels in Spectrum: 1024
>>>>>Begin Spectral Data<<<<<
801.071	28896
801.214	28683
801.356	28557
801.499	28447
801.641	28371
801.783	28333
801.926	28280
802.068	28455
802.211	28196
802.353	28341
802.496	28074
802.638	28048
802.78	28013
802.923	27934
803.065	27987
803.208	28090
803.35	28063
803.492	28055
803.635	28158
803.777	28055
803.919	28303
804.061	28588
804.204	28325
804.346	28082
804.488	28177
804.63	28192
804.773	28200
804.915	28360
805.057	28569
805.199	28310
805.341	28386
805.483	28417
805.626	28478
805.768	28257
805.91	28519
806.052	28432
806.194	28367
806.336	28607
806.478	28417
806.62	28428
806.762	28653
806.904	28706
807.046	28957
807.188	28778
807.33	28976
807.472	28934
807.614	28869
807.756	28816
807.898	28679
808.04	28664
808.182	28531
808.324	28675
808.465	28797
808.607	28953
808.749	28980
808.891	29090
809.033	29303
809.174	28972
809.316	29090
809.458	29105
809.6	29132
809.741	29311
809.883	29223
810.025	29414
810.166	29334
810.308	29463
810.45	29368
810.591	29223
810.733	29159
810.875	29155
811.016	29124
811.158	29052
811.299	29303
811.441	29353
811.582	29284
811.724	29162
811.865	29003
812.007	29178
812.148	29056
812.29	29223
812.431	29345
812.573	29455
812.714	29493
812.855	29642
812.997	29722
813.138	29862
813.279	29783
813.421	29623
813.562	29600
813.703	29471
813.845	29497
813.986	28984
814.127	28786
814.268	28881
814.41	28942
814.551	28778
814.692	28923
814.833	28873
814.974	28744
815.115	28911
815.256	28812
815.397	28752
815.539	28653
815.68	28736
815.821	28550
815.962	28759
816.103	28637
816.244	28489
816.385	28413
816.526	28341
816.666	28261
816.807	28223
816.948	28139
817.089	28265
817.23	28272
817.371	28063
817.512	28166
817.653	28185
817.793	28055
817.934	28097
818.075	28242
818.216	28223
818.356	28173
818.497	28238
818.638	27819
818.778	27838
818.919	27930
819.06	27850
819.2	28185
819.341	28120
819.481	28196
819.622	28215
819.762	28554
819.903	28489
820.043	28272
820.184	28234
820.324	28303
820.465	28352
820.605	28303
820.746	28124
820.886	28070
821.026	28257
821.167	28356
821.307	28238
821.447	28120
821.588	28147
821.728	28086
821.868	27686
822.008	27762
822.149	27755
822.289	27709
822.429	27378
822.569	27382
822.709	27298
822.849	27321
822.99	27256
823.13	27039
823.27	26979
823.41	26883
823.55	26883
823.69	27074
823.83	27055
823.97	27017
824.11	26868
824.25	26731
824.389	26800
824.529	26857
824.669	27001
824.809	27005
824.949	26944
825.089	26895
825.228	26826
825.368	26648
825.508	26575
825.648	26686
825.787	26735
825.927	26693
826.067	26762
826.206	26663
826.346	26746
826.485	26644
826.625	26769
826.765	26743
826.904	26773
827.044	26419
827.183	26370
827.323	26385
827.462	26442
827.601	26389
827.741	26442
827.88	26507
828.02	26366
828.159	26332
828.298	26442
828.437	26465
828.577	26393
828.716	26514
828.855	26362
828.994	26180
829.134	26145
829.273	26176
829.412	26142
829.551	26081
829.69	26062
829.829	26229
829.968	26305
830.107	26145
830.246	26157
830.385	26050
830.524	25986
830.663	25947
830.802	25909
830.941	25712
831.08	25734
831.219	25799
831.357	25750
831.496	26005
831.635	25624
831.774	25727
831.913	25616
832.051	25506
832.19	25495
832.329	25502
832.467	25441
832.606	25297
832.744	25331
832.883	25365
833.022	25346
833.16	25304
833.299	25518
833.437	25377
833.576	25453
833.714	25575
833.852	25514
833.991	25518
834.129	25411
834.267	25392
834.406	25476
834.544	25472
834.682	25377
834.821	25354
834.959	25742
835.097	25324
835.235	25426
835.373	25362
835.511	25453
835.65	25354
835.788	25327
835.926	25168
836.064	25168
836.202	25175
836.34	25141
836.478	25373
836.615	25221
836.753	25221
836.891	25247
837.029	25335
837.167	25373
837.305	25053
837.443	25076
837.58	25190
837.718	25232
837.856	25187
837.993	24973
838.131	25023
838.269	24928
838.406	25110
838.544	24928
838.681	24810
838.819	24715
838.956	24597
839.094	24661
839.231	24593
839.369	24688
839.506	25000
839.643	24844
839.781	24532
839.918	24460
840.055	24601
840.193	24521
840.33	24521
840.467	24426
840.604	24502
840.742	24810
840.879	24445
841.016	24300
841.153	24285
841.29	24471
841.427	24502
841.564	24521
841.701	24498
841.838	24407
841.975	24365
842.112	24273
842.249	24391
842.385	24155
842.522	24441
842.659	24334
842.796	24155
842.933	24205
843.069	24251
843.206	24167
843.343	24346
843.479	24178
843.616	24334
843.752	23996
843.889	24018
844.025	24045
844.162	24022
844.298	24026
844.435	24018
844.571	23931
844.708	23992
844.844	24144
844.98	23996
845.117	24091
845.253	23935
845.389	23897
845.525	23927
845.661	23809
845.798	23722
845.934	23710
846.07	23722
846.206	23779
846.342	23950
846.478	23809
846.614	23421
846.75	23364
846.886	23478
847.022	23611
847.158	23551
847.294	23452
847.429	23471
847.565	23455
847.701	23619
847.837	23048
847.972	23117
848.108	23250
848.244	23208
848.379	23064
848.515	22976
848.65	22999
848.786	22972
848.921	22980
849.057	23140
849.192	23208
849.328	23113
849.463	22927
849.598	22995
849.734	22919
849.869	22904
850.004	22850
850.14	22812
850.275	22873
850.41	22793
850.545	22641
850.68	22778
850.815	22824
850.95	22744
851.085	23109
851.22	22904
851.355	22858
851.49	22790
851.625	22687
851.76	22782
851.895	22778
852.03	22713
852.165	22672
852.299	22858
852.434	22923
852.569	22786
852.703	22801
852.838	22771
852.973	22946
853.107	22850
853.242	22721
853.376	22622
853.511	22577
853.645	22561
853.78	22687
853.914	22790
854.048	22592
854.183	22565
854.317	22679
854.451	22828
854.585	22535
854.72	22618
854.854	22622
854.988	22535
855.122	22512
855.256	22474
855.39	22656
855.524	22691
855.658	22763
855.792	22580
855.926	22508
856.06	22672
856.194	22721
856.327	22588
856.461	22508
856.595	22588
856.729	22481
856.862	22721
856.996	22774
857.13	22672
857.263	22755
857.397	22683
857.53	22599
857.664	22542
857.797	22603
857.931	22793
858.064	22618
858.197	22748
858.331	22630
858.464	22500
858.597	22531
858.731	22626
858.864	22436
858.997	22451
859.13	22592
859.263	22588
859.396	22698
859.529	22584
859.662	22607
859.795	22523
859.928	22656
860.061	22729
860.194	22805
860.327	22603
860.46	22588
860.592	22721
860.725	22790
860.858	22736
860.99	22580
861.123	22542
861.256	22481
861.388	22675
861.521	23337
861.653	22542
861.786	22443
861.918	22382
862.05	22421
862.183	22413
862.315	22588
862.447	22542
862.58	22557
862.712	22352
862.844	22287
862.976	22519
863.108	22443
863.24	22656
863.372	22303
863.504	22253
863.636	22367
863.768	22310
863.9	22325
864.032	22246
864.164	22253
864.296	22333
864.428	22428
864.559	22287
864.691	22481
864.823	22356
864.954	22207
865.086	22265
865.217	22310
865.349	22185
865.48	22219
865.612	22154
865.743	22382
865.875	22101
866.006	22120
866.137	22177
866.269	22219
866.4	22036
866.531	22112
866.662	22101
866.793	22105
866.924	22074
867.055	22116
867.186	22105
867.317	22185
867.448	22010
867.579	22086
867.71	21979
867.841	21983
867.972	22059
868.103	22166
868.233	22139
868.364	22116
868.495	22207
868.625	22409
868.756	22504
868.886	22196
869.017	22318
869.147	22443
869.278	22432
869.408	22379
869.539	22276
869.669	22424
869.799	22440
869.929	22531
870.06	22405
870.19	22637
870.32	22729
870.45	22740
870.58	22778
870.71	22850
870.84	22786
870.97	22637
871.1	22675
871.23	22968
871.36	22968
871.489	22854
871.619	22843
871.749	22999
871.879	22930
872.008	23140
872.138	22965
872.267	22991
872.397	22854
872.526	22786
872.656	22843
872.785	22900
872.915	23147
873.044	22987
873.173	22900
873.303	22991
873.432	22934
873.561	22999
873.69	22919
873.819	22984
873.948	23140
874.077	23037
874.206	22869
874.335	23014
874.464	23003
874.593	23200
874.722	23155
874.851	23079
874.979	23193
875.108	23315
875.237	22987
875.365	23090
875.494	23044
875.623	23178
875.751	23288
875.88	23140
876.008	23261
876.136	23372
876.265	23668
876.393	23562
876.521	23756
876.65	23665
876.778	23661
876.906	23478
877.034	23505
877.162	23524
877.29	23315
877.418	23634
877.546	23600
877.674	23452
877.802	23524
877.93	23501
878.058	23379
878.185	23478
878.313	23535
878.441	23444
878.568	23391
878.696	23478
878.824	23566
878.951	23509
879.079	23676
879.206	23824
879.333	23726
879.461	23600
879.588	23604
879.715	23608
879.842	23756
879.97	23623
880.097	23410
880.224	23364
880.351	23402
880.478	23299
880.605	23315
880.732	23280
880.859	23474
880.986	23448
881.112	23387
881.239	23280
881.366	23102
881.493	22900
881.619	22831
881.746	22850
881.872	22885
881.999	22812
882.125	22904
882.252	22957
882.378	22713
882.505	23022
882.631	22687
882.757	22653
882.883	22744
883.01	22630
883.136	22683
883.262	22451
883.388	22462
883.514	22538
883.64	22577
883.766	22470
883.892	22329
884.018	22500
884.143	22497
884.269	22649
884.395	22299
884.52	22200
884.646	22181
884.772	22097
884.897	22139
885.023	22173
885.148	22329
885.274	22367
885.399	22124
885.524	22261
885.65	22166
885.775	22154
885.9	22177
886.025	22348
886.15	22466
886.275	22010
886.4	22112
886.525	22173
886.65	22135
886.775	22078
886.9	22436
887.025	22367
887.149	22223
887.274	21972
887.399	21983
887.523	22006
887.648	21880
887.773	21804
887.897	21983
888.021	22017
888.146	21918
888.27	21991
888.395	22116
888.519	21937
888.643	21975
888.767	21964
888.891	21861
889.015	21804
889.139	21774
889.263	21808
889.387	21861
889.511	21915
889.635	21774
889.759	21713
889.883	21663
890.006	21705
890.13	21884
890.254	21736
890.377	21633
890.501	21469
890.624	21477
890.748	21545
890.871	21367
890.995	21325
891.118	21306
891.241	21268
891.364	21439
891.488	21389
891.611	21302
891.734	21283
891.857	21348
891.98	21329
892.103	21325
892.226	21252
892.349	21199
892.471	21112
892.594	21184
892.717	21249
892.839	21142
892.962	21188
893.085	21272
893.207	21161
893.33	21017
893.452	21074
893.575	21192
893.697	21127
893.819	21389
893.941	21272
894.064	21192
894.186	21195
894.308	21150
894.43	21237
894.552	21329
894.674	21199
894.796	21062
894.918	21154
895.04	21108
895.161	21260
895.283	21161
895.405	21055
895.526	21192
895.648	21112
895.769	21192
895.891	21199
896.012	21332
896.134	21165
896.255	21123
896.376	21165
896.498	21169
896.619	21180
896.74	21237
896.861	21119
896.982	21462
897.103	21724
897.224	21477
897.345	21351
897.466	21291
897.587	21355
897.708	21389
897.828	21443
897.949	21195
898.07	21142
898.19	21230
898.311	21416
898.431	21382
898.552	21325
898.672	21488
898.792	21477
898.913	21378
899.033	21230
899.153	21013
899.273	21176
899.393	21039
899.513	21146
899.633	21066
899.753	21188
899.873	20952
899.993	21161
900.113	20963
900.232	21131
900.352	20937
900.472	20891
900.591	20899
900.711	20979
900.83	20792
900.95	20902
901.069	21001
901.189	20667
901.308	20473
901.427	20374
901.546	20488
901.665	20492
901.784	20461
901.904	20328
902.023	20164
902.141	20016
902.26	19879
902.379	20005
902.498	19875
902.617	19856
902.735	20027
902.854	19890
902.973	19875
903.091	19662
903.21	19727
903.328	19518
903.446	19533
903.565	19362
903.683	19430
903.801	19358
903.919	19293
904.038	19327
904.156	19213
904.274	19183
904.392	19179
904.51	19088
904.627	19061
904.745	19168
904.863	19110
904.981	18993
905.098	18772
905.216	18886
905.334	18848
905.451	18829
905.569	18795
905.686	18810
905.803	18783
905.921	18623
906.038	18696
906.155	18593
906.272	18460
906.389	18623
906.506	18338
906.623	18330
906.74	18399
906.857	18068
906.974	18182
907.091	18388
907.208	18467
907.324	18315
907.441	18292
907.557	18091
907.674	18095
907.79	17897
907.907	18060
908.023	17904
908.139	18015
908.256	17996
908.372	17882
908.488	17855
908.604	17821
908.72	17783
908.836	17866
908.952	17661
909.068	17817
909.184	17832
909.3	17710
909.415	17729
909.531	17638
909.647	17497
909.762	17493
909.878	17512
909.993	17478
910.108	17402
910.224	17353
910.339	17406
910.454	17288
910.57	17299
910.685	17258
910.8	17395
910.915	17307
911.03	17227
911.145	17010
911.259	17006
911.374	16961
911.489	16869
911.604	16843
911.718	16782
911.833	16774
911.947	16710
912.062	16611
912.176	16759
912.291	16740
912.405	16710
912.519	16980
912.633	16889
912.748	16752
912.862	16698
912.976	16580
913.09	16440
913.204	16516
913.318	16554
913.431	16687
913.545	16622
913.659	16736
913.772	16497
913.886	16481
914	16413
914.113	16409
914.226	16413
914.34	16421
914.453	16204
914.566	16398
914.68	16181
914.793	16173
914.906	15998
915.019	15956
915.132	15987
915.245	15892
915.358	16010
915.47	15987
915.583	15922
915.696	15926
915.809	15873
915.921	16086
916.034	15941
916.146	15850
916.259	15842
916.371	15781
916.483	15865
916.595	15705
916.708	15759
916.82	15873
916.932	15633
917.044	15789
917.156	15614
917.268	15622
917.38	15709
917.491	15523
917.603	15504
917.715	15572
917.826	15686
917.938	15538
918.049	15294
918.161	15454
918.272	15637
918.384	15591
918.495	15519
918.606	15382
918.717	15180
918.828	15188
918.939	15268
919.05	15211
919.161	15344
919.272	15051
919.383	15127
919.494	15233
919.604	15523
919.715	15233
919.826	15119
919.936	15233
920.047	15313
920.157	15230
920.267	15416
920.378	15268
920.488	15226
920.598	15443
920.708	15477
920.818	15340
920.928	15306
921.038	15564
921.148	15462
921.258	15142
921.368	15043
921.477	14918
921.587	14918
921.697	14864
921.806	14925
921.916	14811
922.025	14739
922.134	14552
922.244	14541
922.353	14636
922.462	14488
922.571	14393
922.68	14278
922.789	14290
922.898	14309
923.007	14191
923.116	14180
923.224	14248
923.333	14180
923.442	14081
923.55	14039
923.659	14065
923.767	14119
923.876	13989
923.984	14100
924.092	13970
924.201	13944
924.309	13959
924.417	13989
924.525	13967
924.633	13845
924.741	14579
924.849	13715
924.956	13830
925.064	13624
925.172	13575
925.279	13544
925.387	13639
925.494	13613
925.602	13731
925.709	13658
925.816	13571
925.924	13647
926.031	13567
926.138	13529
926.245	13559
926.352	13457
926.459	13689
926.566	13643
926.673	13411
926.779	13388
926.886	13324
926.993	13160
927.099	13236
927.206	13012
927.312	13076
927.419	13183
927.525	13099
927.631	13149
927.737	13015
927.843	13042
927.95	12894
928.056	12916
928.162	12932
928.267	13061
928.373	13578
928.479	13099
928.585	12776
928.69	12985
928.796	12993
928.901	12806
929.007	12707
929.112	12840
929.218	12867
929.323	12745
929.428	12623
929.533	12726
929.638	12578
929.743	12627
929.848	12650
929.953	12555
930.058	12464
930.163	12304
930.267	12422
930.372	12540
930.477	12262
930.581	12502
930.685	12479
930.79	12182
930.894	12121
930.998	12178
931.103	12308
931.207	11893
931.311	11882
931.415	11714
931.519	11653
931.623	11554
