Data from test_V78500241_51.txt Node
Date: Fri Mar 25 15:42:09 CST 2022
User: usil
Spectrometer: V785-0024
Trigger mode: 0
Integration Time (sec): 4.000000E-1
Scans to average: 1
Nonlinearity correction enabled: false
Boxcar width: 0
Storing dark spectrum: false
XAxis mode: Wavelengths
Number of Pixels in Spectrum: 1024
>>>>>Begin Spectral Data<<<<<
801.071	29421
801.214	29414
801.356	29200
801.499	29113
801.641	28957
801.783	29060
801.926	28991
802.068	28930
802.211	28778
802.353	28866
802.496	28668
802.638	28565
802.78	28538
802.923	28672
803.065	28432
803.208	28546
803.35	28641
803.492	28740
803.635	28721
803.777	28809
803.919	28744
804.061	28995
804.204	28763
804.346	28656
804.488	28645
804.63	28649
804.773	28497
804.915	28717
805.057	28717
805.199	28748
805.341	28881
805.483	28866
805.626	28740
805.768	28767
805.91	28755
806.052	28786
806.194	28698
806.336	28976
806.478	28900
806.62	28843
806.762	28946
806.904	28991
807.046	29261
807.188	29162
807.33	29216
807.472	29124
807.614	29041
807.756	29113
807.898	28881
808.04	28786
808.182	28862
808.324	29064
808.465	29041
808.607	29048
808.749	29204
808.891	29311
809.033	29402
809.174	29478
809.316	29356
809.458	29372
809.6	29220
809.741	29425
809.883	29277
810.025	29516
810.166	29531
810.308	29551
810.45	29368
810.591	29372
810.733	29288
810.875	29246
811.016	29056
811.158	29227
811.299	29318
811.441	29345
811.582	29265
811.724	29204
811.865	29231
812.007	29235
812.148	29250
812.29	29208
812.431	29341
812.573	29535
812.714	29703
812.855	29813
812.997	29760
813.138	29984
813.279	29745
813.421	29760
813.562	29627
813.703	29577
813.845	29356
813.986	28987
814.127	28866
814.268	28717
814.41	28820
814.551	28771
814.692	28900
814.833	28847
814.974	28923
815.115	28866
815.256	28805
815.397	28618
815.539	28637
815.68	28531
815.821	28386
815.962	28459
816.103	28443
816.244	28386
816.385	28325
816.526	28299
816.666	28010
816.807	27918
816.948	27972
817.089	28013
817.23	28082
817.371	27876
817.512	27812
817.653	27812
817.793	27827
817.934	27888
818.075	27812
818.216	27808
818.356	27953
818.497	27800
818.638	27633
818.778	27637
818.919	27641
819.06	27595
819.2	27644
819.341	27762
819.481	27793
819.622	27979
819.762	28158
819.903	28120
820.043	27751
820.184	27865
820.324	27850
820.465	27926
820.605	27895
820.746	27812
820.886	27728
821.026	27808
821.167	27823
821.307	27785
821.447	27732
821.588	27656
821.728	27431
821.868	27230
822.008	27214
822.149	27169
822.289	27157
822.429	26944
822.569	26853
822.709	26762
822.849	26735
822.99	26693
823.13	26682
823.27	26602
823.41	26469
823.55	26381
823.69	26476
823.83	26389
823.97	26267
824.11	26149
824.25	26233
824.389	26092
824.529	26324
824.669	26172
824.809	26317
824.949	26362
825.089	26240
825.228	26161
825.368	26020
825.508	26065
825.648	26008
825.787	25974
825.927	25986
826.067	25978
826.206	26077
826.346	26008
826.485	26084
826.625	26084
826.765	26024
826.904	25963
827.044	25803
827.183	25750
827.323	25438
827.462	25693
827.601	25715
827.741	25658
827.88	25601
828.02	25563
828.159	25540
828.298	25567
828.437	25578
828.577	25624
828.716	25826
828.855	25495
828.994	25362
829.134	25400
829.273	25407
829.412	25213
829.551	25320
829.69	25187
829.829	25301
829.968	25384
830.107	25362
830.246	25358
830.385	25156
830.524	25221
830.663	25076
830.802	25080
830.941	24837
831.08	24878
831.219	24882
831.357	24985
831.496	25008
831.635	24856
831.774	24722
831.913	24635
832.051	24582
832.19	24711
832.329	24544
832.467	24490
832.606	24350
832.744	24330
832.883	24464
833.022	24570
833.16	24570
833.299	24513
833.437	24490
833.576	24502
833.714	24475
833.852	24490
833.991	24551
834.129	24483
834.267	24544
834.406	24395
834.544	24509
834.682	24384
834.821	24384
834.959	24570
835.097	24452
835.235	24498
835.373	24334
835.511	24350
835.65	24350
835.788	24311
835.926	24114
836.064	23973
836.202	24190
836.34	24235
836.478	24350
836.615	24239
836.753	24258
836.891	24273
837.029	24296
837.167	24216
837.305	23980
837.443	24140
837.58	24015
837.718	24163
837.856	24144
837.993	24114
838.131	23992
838.269	23992
838.406	23954
838.544	23863
838.681	23562
838.819	23699
838.956	23509
839.094	23562
839.231	23649
839.369	23756
839.506	23999
839.643	23581
839.781	23452
839.918	23444
840.055	23417
840.193	23337
840.33	23315
840.467	23292
840.604	23463
840.742	23627
840.879	23254
841.016	23284
841.153	23235
841.29	23353
841.427	23273
841.564	23387
841.701	23311
841.838	23223
841.975	23246
842.112	23200
842.249	23143
842.385	23010
842.522	23273
842.659	23181
842.796	22984
842.933	23003
843.069	22908
843.206	23044
843.343	23124
843.479	23117
843.616	22919
843.752	22801
843.889	22812
844.025	22968
844.162	22664
844.298	22949
844.435	22679
844.571	22717
844.708	22812
844.844	22908
844.98	22828
845.117	22759
845.253	22782
845.389	22721
845.525	22710
845.661	22565
845.798	22402
845.934	22584
846.07	22451
846.206	22554
846.342	22523
846.478	22421
846.614	22204
846.75	22192
846.886	22230
847.022	22257
847.158	22078
847.294	22135
847.429	22253
847.565	22105
847.701	22436
847.837	21846
847.972	22048
848.108	21903
848.244	21953
848.379	21797
848.515	21656
848.65	21793
848.786	21682
848.921	21835
849.057	21816
849.192	21682
849.328	21759
849.463	21701
849.598	21812
849.734	21610
849.869	21603
850.004	21462
850.14	21416
850.275	21542
850.41	21378
850.545	21466
850.68	21298
850.815	21454
850.95	21351
851.085	21583
851.22	21507
851.355	21530
851.49	21351
851.625	21264
851.76	21310
851.895	21386
852.03	21310
852.165	21485
852.299	21408
852.434	21599
852.569	21462
852.703	21443
852.838	21439
852.973	21561
853.107	21629
853.242	21272
853.376	21203
853.511	21077
853.645	21211
853.78	21340
853.914	21226
854.048	21180
854.183	21104
854.317	21268
854.451	21401
854.585	21291
854.72	21207
854.854	21382
854.988	21119
855.122	21199
855.256	20990
855.39	21207
855.524	21180
855.658	21146
855.792	21199
855.926	21184
856.06	21249
856.194	21332
856.327	21245
856.461	21214
856.595	21207
856.729	21112
856.862	21214
856.996	21241
857.13	21237
857.263	21416
857.397	21226
857.53	21283
857.664	21169
857.797	21176
857.931	21344
858.064	21043
858.197	21245
858.331	21226
858.464	20979
858.597	20979
858.731	21226
858.864	21173
858.997	21207
859.13	21123
859.263	21039
859.396	21260
859.529	21081
859.662	20963
859.795	21062
859.928	21119
860.061	21260
860.194	21298
860.327	21096
860.46	21096
860.592	21176
860.725	21180
860.858	21218
860.99	21055
861.123	20975
861.256	21138
861.388	21093
861.521	21667
861.653	21036
861.786	20861
861.918	20925
862.05	21032
862.183	21184
862.315	21123
862.447	21256
862.58	21176
862.712	20895
862.844	20887
862.976	20933
863.108	20891
863.24	21195
863.372	20785
863.504	20746
863.636	20819
863.768	20845
863.9	20750
864.032	20731
864.164	20720
864.296	20788
864.428	20834
864.559	20880
864.691	20899
864.823	20929
864.954	20769
865.086	20819
865.217	20674
865.349	20545
865.48	20731
865.612	20773
865.743	20716
865.875	20765
866.006	20678
866.137	20678
866.269	20758
866.4	20705
866.531	20609
866.662	20617
866.793	20640
866.924	20609
867.055	20644
867.186	20537
867.317	20450
867.448	20625
867.579	20549
867.71	20530
867.841	20511
867.972	20587
868.103	20621
868.233	20689
868.364	20530
868.495	20712
868.625	20845
868.756	20891
868.886	20716
869.017	20838
869.147	20887
869.278	20952
869.408	20838
869.539	20921
869.669	20777
869.799	20845
869.929	20952
870.06	20849
870.19	21195
870.32	21036
870.45	21340
870.58	21150
870.71	21374
870.84	21310
870.97	21211
871.1	21195
871.23	21340
871.36	21458
871.489	21420
871.619	21428
871.749	21420
871.879	21447
872.008	21576
872.138	21458
872.267	21492
872.397	21321
872.526	21317
872.656	21317
872.785	21340
872.915	21526
873.044	21652
873.173	21435
873.303	21530
873.432	21473
873.561	21553
873.69	21485
873.819	21462
873.948	21519
874.077	21481
874.206	21431
874.335	21386
874.464	21671
874.593	21629
874.722	21682
874.851	21633
874.979	21819
875.108	21857
875.237	21622
875.365	21667
875.494	21804
875.623	21873
875.751	21743
875.88	21770
876.008	21785
876.136	21842
876.265	21975
876.393	22272
876.521	22120
876.65	22109
876.778	22112
876.906	21953
877.034	22044
877.162	22078
877.29	22032
877.418	22063
877.546	22074
877.674	22082
877.802	22032
877.93	22063
878.058	21926
878.185	21930
878.313	21922
878.441	22040
878.568	21846
878.696	21987
878.824	22097
878.951	22112
879.079	22169
879.206	22261
879.333	22367
879.461	22188
879.588	22166
879.715	22223
879.842	22177
879.97	22158
880.097	21949
880.224	21778
880.351	21899
880.478	21892
880.605	21838
880.732	21857
880.859	22204
880.986	21918
881.112	21888
881.239	21690
881.366	21625
881.493	21488
881.619	21386
881.746	21485
881.872	21511
881.999	21504
882.125	21443
882.252	21492
882.378	21507
882.505	21614
882.631	21412
882.757	21260
882.883	21321
883.01	21169
883.136	20971
883.262	21062
883.388	21089
883.514	21195
883.64	21332
883.766	21135
883.892	21100
884.018	21096
884.143	21203
884.269	21294
884.395	20941
884.52	20853
884.646	20830
884.772	20807
884.897	20727
885.023	20876
885.148	20933
885.274	21013
885.399	20830
885.524	20781
885.65	20758
885.775	20819
885.9	20773
886.025	20910
886.15	20880
886.275	20686
886.4	20693
886.525	20762
886.65	20575
886.775	20697
886.9	20925
887.025	20979
887.149	20823
887.274	20682
887.399	20727
887.523	20568
887.648	20465
887.773	20507
887.897	20590
888.021	20655
888.146	20423
888.27	20716
888.395	20659
888.519	20590
888.643	20636
888.767	20583
888.891	20412
889.015	20484
889.139	20412
889.263	20252
889.387	20415
889.511	20533
889.635	20480
889.759	20229
889.883	20191
890.006	20408
890.13	20450
890.254	20172
890.377	20286
890.501	20081
890.624	20024
890.748	20176
890.871	20031
890.995	19932
891.118	19791
891.241	19917
891.364	19928
891.488	20043
891.611	19875
891.734	19940
891.857	20084
891.98	19974
892.103	19974
892.226	19864
892.349	19772
892.471	19723
892.594	19875
892.717	19902
892.839	19845
892.962	19784
893.085	19841
893.207	19814
893.33	19719
893.452	19734
893.575	19799
893.697	19879
893.819	19955
893.941	19997
894.064	19997
894.186	19704
894.308	19738
894.43	19849
894.552	19868
894.674	19913
894.796	19803
894.918	19849
895.04	19776
895.161	19883
895.283	19871
895.405	19841
895.526	19788
895.648	19677
895.769	19883
895.891	19852
896.012	19833
896.134	19887
896.255	19887
896.376	19780
896.498	19875
896.619	19860
896.74	20012
896.861	19970
896.982	20180
897.103	20332
897.224	20180
897.345	20153
897.466	20046
897.587	20157
897.708	20191
897.828	20073
897.949	20084
898.07	19879
898.19	20046
898.311	20027
898.431	20035
898.552	19978
898.672	20069
898.792	19959
898.913	20081
899.033	19879
899.153	19860
899.273	19651
899.393	19639
899.513	19769
899.633	19734
899.753	19727
899.873	19590
899.993	19700
900.113	19727
900.232	19681
900.352	19616
900.472	19556
900.591	19521
900.711	19594
900.83	19510
900.95	19712
901.069	19670
901.189	19392
901.308	19187
901.427	19164
901.546	19107
901.665	19236
901.784	19164
901.904	19012
902.023	18939
902.141	18730
902.26	18692
902.379	18749
902.498	18623
902.617	18555
902.735	18768
902.854	18673
902.973	18490
903.091	18346
903.21	18239
903.328	18205
903.446	18201
903.565	18167
903.683	18140
903.801	18030
903.919	18026
904.038	17999
904.156	17920
904.274	17923
904.392	17855
904.51	17802
904.627	17847
904.745	17996
904.863	17874
904.981	17714
905.098	17433
905.216	17497
905.334	17535
905.451	17455
905.569	17497
905.686	17604
905.803	17604
905.921	17406
906.038	17414
906.155	17356
906.272	17220
906.389	17124
906.506	17010
906.623	17079
906.74	17086
906.857	16942
906.974	16915
907.091	17086
907.208	17208
907.324	17037
907.441	16961
907.557	16908
907.674	16809
907.79	16656
907.907	16672
908.023	16706
908.139	16767
908.256	16599
908.372	16596
908.488	16474
908.604	16512
908.72	16363
908.836	16459
908.952	16322
909.068	16470
909.184	16531
909.3	16478
909.415	16512
909.531	16386
909.647	16287
909.762	16112
909.878	16150
909.993	16116
910.108	16051
910.224	16044
910.339	16025
910.454	15972
910.57	15991
910.685	15804
910.8	16093
910.915	16040
911.03	15899
911.145	15778
911.259	15675
911.374	15705
911.489	15591
911.604	15656
911.718	15477
911.833	15534
911.947	15424
912.062	15344
912.176	15473
912.291	15561
912.405	15500
912.519	15553
912.633	15557
912.748	15561
912.862	15458
912.976	15230
913.09	15081
913.204	15104
913.318	15230
913.431	15287
913.545	15325
913.659	15355
913.772	15108
913.886	15104
914	15028
914.113	15195
914.226	15245
914.34	15157
914.453	15001
914.566	15093
914.68	15085
914.793	14823
914.906	14735
915.019	14705
915.132	14667
915.245	14754
915.358	14743
915.47	14667
915.583	14674
915.696	14724
915.809	14781
915.921	14857
916.034	14583
916.146	14610
916.259	14564
916.371	14682
916.483	14632
916.595	14552
916.708	14499
916.82	14541
916.932	14442
917.044	14568
917.156	14499
917.268	14385
917.38	14396
917.491	14244
917.603	14377
917.715	14415
917.826	14412
917.938	14183
918.049	14191
918.161	14309
918.272	14484
918.384	14408
918.495	14309
918.606	14176
918.717	13986
918.828	14111
918.939	14111
919.05	13936
919.161	14012
919.272	13944
919.383	13959
919.494	14115
919.604	14290
919.715	14142
919.826	13993
919.936	13928
920.047	14046
920.157	14065
920.267	14161
920.378	14115
920.488	13932
920.598	14199
920.708	14393
920.818	14157
920.928	14259
921.038	14324
921.148	14225
921.258	13932
921.368	14008
921.477	13731
921.587	13689
921.697	13655
921.806	13845
921.916	13655
922.025	13544
922.134	13419
922.244	13388
922.353	13510
922.462	13373
922.571	13228
922.68	13046
922.789	13050
922.898	13027
923.007	12985
923.116	13008
923.224	13027
923.333	12981
923.442	12844
923.55	12844
923.659	12848
923.767	12939
923.876	12745
923.984	12901
924.092	12726
924.201	12760
924.309	12768
924.417	12848
924.525	12673
924.633	12734
924.741	13575
924.849	12490
924.956	12642
925.064	12506
925.172	12506
925.279	12506
925.387	12540
925.494	12513
925.602	12612
925.709	12559
925.816	12433
925.924	12464
926.031	12551
926.138	12410
926.245	12536
926.352	12372
926.459	12437
926.566	12418
926.673	12361
926.779	12334
926.886	12152
926.993	12125
927.099	12083
927.206	12015
927.312	12003
927.419	12064
927.525	12038
927.631	12087
927.737	11980
927.843	11935
927.95	11764
928.056	11977
928.162	11882
928.267	11927
928.373	12551
928.479	12007
928.585	11748
928.69	11836
928.796	11908
928.901	11745
929.007	11589
929.112	11722
929.218	11718
929.323	11707
929.428	11668
929.533	11672
929.638	11512
929.743	11551
929.848	11630
929.953	11543
930.058	11452
930.163	11223
930.267	11334
930.372	11505
930.477	11277
930.581	11505
930.685	11345
930.79	11155
930.894	11159
930.998	11143
931.103	11288
931.207	10908
931.311	10896
931.415	10717
931.519	10580
931.623	10535
