Data from test_V78500241_2952.txt Node
Date: Fri Mar 25 16:02:15 CST 2022
User: usil
Spectrometer: V785-0024
Trigger mode: 0
Integration Time (sec): 4.000000E-1
Scans to average: 1
Nonlinearity correction enabled: false
Boxcar width: 0
Storing dark spectrum: false
XAxis mode: Wavelengths
Number of Pixels in Spectrum: 1024
>>>>>Begin Spectral Data<<<<<
801.071	28873
801.214	28793
801.356	28596
801.499	28550
801.641	28481
801.783	28379
801.926	28318
802.068	28424
802.211	28504
802.353	28280
802.496	28204
802.638	28090
802.78	28154
802.923	28078
803.065	27861
803.208	27991
803.35	28219
803.492	28219
803.635	28432
803.777	28040
803.919	28413
804.061	28637
804.204	28329
804.346	28253
804.488	28196
804.63	28318
804.773	28124
804.915	28413
805.057	28474
805.199	28386
805.341	28318
805.483	28481
805.626	28565
805.768	28421
805.91	28569
806.052	28561
806.194	28375
806.336	28706
806.478	28656
806.62	28470
806.762	28660
806.904	28961
807.046	28862
807.188	28919
807.33	28961
807.472	29064
807.614	28885
807.756	28923
807.898	28885
808.04	28744
808.182	28744
808.324	28892
808.465	28923
808.607	29113
808.749	29220
808.891	29311
809.033	29482
809.174	29109
809.316	29220
809.458	29277
809.6	29166
809.741	29296
809.883	29296
810.025	29421
810.166	29493
810.308	29455
810.45	29406
810.591	29375
810.733	29155
810.875	29433
811.016	29181
811.158	29151
811.299	29322
811.441	29322
811.582	29433
811.724	29242
811.865	29124
812.007	29261
812.148	29246
812.29	29280
812.431	29410
812.573	29608
812.714	29672
812.855	29687
812.997	29904
813.138	29931
813.279	29927
813.421	29794
813.562	29737
813.703	29642
813.845	29505
813.986	29189
814.127	29056
814.268	28877
814.41	29052
814.551	28927
814.692	28820
814.833	28828
814.974	28805
815.115	29067
815.256	28755
815.397	28965
815.539	28729
815.68	28782
815.821	28721
815.962	28866
816.103	28702
816.244	28725
816.385	28531
816.526	28577
816.666	28303
816.807	28211
816.948	28112
817.089	28398
817.23	28367
817.371	28219
817.512	28337
817.653	28196
817.793	28207
817.934	28150
818.075	28287
818.216	28322
818.356	28284
818.497	28234
818.638	28032
818.778	28029
818.919	28070
819.06	28135
819.2	28150
819.341	28329
819.481	28371
819.622	28481
819.762	28577
819.903	28557
820.043	28535
820.184	28386
820.324	28306
820.465	28451
820.605	28280
820.746	28398
820.886	28280
821.026	28329
821.167	28265
821.307	28401
821.447	28177
821.588	28291
821.728	28211
821.868	27972
822.008	27739
822.149	27800
822.289	27808
822.429	27466
822.569	27367
822.709	27488
822.849	27268
822.99	27275
823.13	27348
823.27	27157
823.41	27074
823.55	26940
823.69	26967
823.83	27051
823.97	26940
824.11	26853
824.25	26880
824.389	26815
824.529	27062
824.669	26868
824.809	26918
824.949	27013
825.089	27017
825.228	26868
825.368	26785
825.508	26769
825.648	26758
825.787	26819
825.927	26880
826.067	26731
826.206	26845
826.346	26864
826.485	27036
826.625	26769
826.765	27017
826.904	26842
827.044	26499
827.183	26701
827.323	26434
827.462	26564
827.601	26469
827.741	26465
827.88	26415
828.02	26347
828.159	26556
828.298	26499
828.437	26659
828.577	26446
828.716	26644
828.855	26423
828.994	26229
829.134	26244
829.273	26324
829.412	26282
829.551	26225
829.69	26183
829.829	26218
829.968	26328
830.107	26244
830.246	26164
830.385	26077
830.524	25940
830.663	25982
830.802	25807
830.941	25902
831.08	25807
831.219	25944
831.357	25944
831.496	26134
831.635	25799
831.774	25628
831.913	25791
832.051	25647
832.19	25445
832.329	25544
832.467	25445
832.606	25396
832.744	25510
832.883	25415
833.022	25529
833.16	25468
833.299	25499
833.437	25499
833.576	25514
833.714	25483
833.852	25647
833.991	25613
834.129	25719
834.267	25677
834.406	25472
834.544	25639
834.682	25582
834.821	25552
834.959	25704
835.097	25468
835.235	25563
835.373	25411
835.511	25540
835.65	25369
835.788	25438
835.926	25266
836.064	25129
836.202	25175
836.34	25339
836.478	25487
836.615	25392
836.753	25308
836.891	25407
837.029	25365
837.167	25289
837.305	25247
837.443	25282
837.58	25141
837.718	25213
837.856	25228
837.993	25114
838.131	25194
838.269	25057
838.406	25126
838.544	24947
838.681	24829
838.819	24833
838.956	24688
839.094	24612
839.231	24772
839.369	24802
839.506	24939
839.643	24943
839.781	24776
839.918	24525
840.055	24665
840.193	24597
840.33	24399
840.467	24688
840.604	24711
840.742	24791
840.879	24410
841.016	24407
841.153	24509
841.29	24563
841.427	24559
841.564	24612
841.701	24502
841.838	24521
841.975	24479
842.112	24437
842.249	24266
842.385	24384
842.522	24460
842.659	24426
842.796	24308
842.933	24315
843.069	24281
843.206	24270
843.343	24308
843.479	24346
843.616	24334
843.752	24117
843.889	24106
844.025	24171
844.162	24133
844.298	24254
844.435	24148
844.571	24106
844.708	24015
844.844	24140
844.98	24152
845.117	24228
845.253	24087
845.389	23882
845.525	23961
845.661	23942
845.798	23802
845.934	23920
846.07	23752
846.206	23931
846.342	23977
846.478	23828
846.614	23592
846.75	23509
846.886	23562
847.022	23638
847.158	23535
847.294	23516
847.429	23668
847.565	23459
847.701	23699
847.837	23288
847.972	23220
848.108	23341
848.244	23181
848.379	23048
848.515	23079
848.65	22953
848.786	23208
848.921	23094
849.057	23212
849.192	23132
849.328	23174
849.463	23105
849.598	23212
849.734	23064
849.869	22991
850.004	22854
850.14	23003
850.275	22965
850.41	22900
850.545	22805
850.68	22892
850.815	22995
850.95	22862
851.085	22980
851.22	22892
851.355	22923
851.49	22790
851.625	22839
851.76	22679
851.895	22904
852.03	22816
852.165	22873
852.299	22850
852.434	22980
852.569	22877
852.703	22949
852.838	22965
852.973	22980
853.107	23044
853.242	22831
853.376	22740
853.511	22596
853.645	22656
853.78	22896
853.914	22717
854.048	22755
854.183	22698
854.317	22733
854.451	22896
854.585	22740
854.72	22675
854.854	22675
854.988	22546
855.122	22687
855.256	22668
855.39	22717
855.524	22706
855.658	22565
855.792	22611
855.926	22584
856.06	22725
856.194	22881
856.327	22672
856.461	22668
856.595	22694
856.729	22740
856.862	22816
856.996	22691
857.13	22645
857.263	22862
857.397	22896
857.53	22687
857.664	22763
857.797	22774
857.931	22782
858.064	22626
858.197	22847
858.331	22580
858.464	22611
858.597	22538
858.731	22683
858.864	22702
858.997	22771
859.13	22694
859.263	22615
859.396	22759
859.529	22793
859.662	22729
859.795	22634
859.928	22744
860.061	22858
860.194	22984
860.327	22828
860.46	22824
860.592	22713
860.725	22896
860.858	22885
860.99	22725
861.123	22687
861.256	22672
861.388	22694
861.521	23501
861.653	22554
861.786	22527
861.918	22512
862.05	22588
862.183	22626
862.315	22694
862.447	22797
862.58	22630
862.712	22375
862.844	22428
862.976	22527
863.108	22538
863.24	22881
863.372	22356
863.504	22348
863.636	22481
863.768	22409
863.9	22485
864.032	22291
864.164	22303
864.296	22455
864.428	22512
864.559	22432
864.691	22459
864.823	22478
864.954	22436
865.086	22382
865.217	22249
865.349	22105
865.48	22451
865.612	22207
865.743	22363
865.875	22318
866.006	22215
866.137	22310
866.269	22424
866.4	22386
866.531	22295
866.662	22112
866.793	22230
866.924	22394
867.055	22322
867.186	22272
867.317	22261
867.448	22086
867.579	22181
867.71	22093
867.841	22070
867.972	22154
868.103	22063
868.233	22185
868.364	22257
868.495	22261
868.625	22462
868.756	22580
868.886	22272
869.017	22485
869.147	22516
869.278	22546
869.408	22508
869.539	22257
869.669	22493
869.799	22440
869.929	22554
870.06	22569
870.19	22725
870.32	22694
870.45	22771
870.58	22824
870.71	23075
870.84	22946
870.97	22908
871.1	22824
871.23	23006
871.36	23102
871.489	22915
871.619	23029
871.749	22953
871.879	23064
872.008	23212
872.138	23189
872.267	23037
872.397	22816
872.526	22923
872.656	22835
872.785	22831
872.915	23083
873.044	23265
873.173	23037
873.303	23041
873.432	23025
873.561	23284
873.69	23086
873.819	23094
873.948	23178
874.077	23102
874.206	23094
874.335	22976
874.464	23098
874.593	23353
874.722	23254
874.851	23284
874.979	23246
875.108	23231
875.237	23296
875.365	23132
875.494	23216
875.623	23334
875.751	23288
875.88	23379
876.008	23360
876.136	23474
876.265	23623
876.393	23649
876.521	23703
876.65	23786
876.778	23634
876.906	23703
877.034	23463
877.162	23703
877.29	23592
877.418	23668
877.546	23714
877.674	23589
877.802	23604
877.93	23516
878.058	23581
878.185	23398
878.313	23596
878.441	23646
878.568	23493
878.696	23516
878.824	23672
878.951	23619
879.079	23779
879.206	23836
879.333	23832
879.461	23718
879.588	23729
879.715	23783
879.842	23824
879.97	23680
880.097	23444
880.224	23463
880.351	23554
880.478	23478
880.605	23391
880.732	23364
880.859	23722
880.986	23478
881.112	23410
881.239	23288
881.366	23162
881.493	22965
881.619	22949
881.746	23041
881.872	23014
881.999	22972
882.125	22972
882.252	23018
882.378	22976
882.505	23022
882.631	22778
882.757	22656
882.883	22782
883.01	22748
883.136	22599
883.262	22409
883.388	22569
883.514	22596
883.64	22748
883.766	22569
883.892	22375
884.018	22538
884.143	22698
884.269	22691
884.395	22310
884.52	22230
884.646	22265
884.772	22265
884.897	22150
885.023	22268
885.148	22306
885.274	22360
885.399	22303
885.524	22287
885.65	22306
885.775	22314
885.9	22291
886.025	22382
886.15	22223
886.275	22181
886.4	22348
886.525	22265
886.65	22325
886.775	22116
886.9	22382
887.025	22402
887.149	22238
887.274	22025
887.399	22010
887.523	22105
887.648	22032
887.773	21934
887.897	22090
888.021	22067
888.146	22158
888.27	22097
888.395	22181
888.519	22173
888.643	21972
888.767	21994
888.891	21911
889.015	21892
889.139	21823
889.263	21892
889.387	21911
889.511	21991
889.635	21907
889.759	21781
889.883	21728
890.006	21823
890.13	21888
890.254	21762
890.377	21728
890.501	21557
890.624	21576
890.748	21599
890.871	21530
890.995	21313
891.118	21405
891.241	21424
891.364	21348
891.488	21583
891.611	21481
891.734	21401
891.857	21408
891.98	21336
892.103	21431
892.226	21287
892.349	21397
892.471	21237
892.594	21306
892.717	21131
892.839	21329
892.962	21336
893.085	21389
893.207	21313
893.33	21146
893.452	21146
893.575	21287
893.697	21165
893.819	21382
893.941	21439
894.064	21439
894.186	21268
894.308	21089
894.43	21329
894.552	21477
894.674	21359
894.796	21100
894.918	21207
895.04	21157
895.161	21382
895.283	21211
895.405	21165
895.526	21222
895.648	21287
895.769	21408
895.891	21329
896.012	21306
896.134	21256
896.255	21256
896.376	21279
896.498	21275
896.619	21336
896.74	21222
896.861	21336
896.982	21599
897.103	21717
897.224	21553
897.345	21553
897.466	21367
897.587	21492
897.708	21553
897.828	21473
897.949	21291
898.07	21203
898.19	21355
898.311	21359
898.431	21348
898.552	21351
898.672	21389
898.792	21397
898.913	21348
899.033	21374
899.153	21211
899.273	21195
899.393	21127
899.513	21329
899.633	21226
899.753	21252
899.873	21077
899.993	21116
900.113	21085
900.232	21032
900.352	21062
900.472	21039
900.591	20807
900.711	20956
900.83	20910
900.95	20975
901.069	21081
901.189	20842
901.308	20621
901.427	20530
901.546	20457
901.665	20507
901.784	20609
901.904	20419
902.023	20259
902.141	20035
902.26	20008
902.379	20062
902.498	20115
902.617	19967
902.735	20065
902.854	19894
902.973	19917
903.091	19670
903.21	19635
903.328	19750
903.446	19613
903.565	19548
903.683	19499
903.801	19346
903.919	19464
904.038	19438
904.156	19228
904.274	19365
904.392	19213
904.51	19259
904.627	19236
904.745	19244
904.863	19236
904.981	18996
905.098	18920
905.216	18867
905.334	18825
905.451	18973
905.569	18821
905.686	18791
905.803	18840
905.921	18715
906.038	18719
906.155	18703
906.272	18547
906.389	18566
906.506	18384
906.623	18418
906.74	18342
906.857	18254
906.974	18357
907.091	18452
907.208	18410
907.324	18437
907.441	18300
907.557	18159
907.674	18205
907.79	18015
907.907	18038
908.023	18049
908.139	18030
908.256	18121
908.372	18019
908.488	18038
908.604	17828
908.72	17771
908.836	17843
908.952	17722
909.068	17790
909.184	17893
909.3	17851
909.415	17783
909.531	17794
909.647	17505
909.762	17535
909.878	17509
909.993	17524
910.108	17417
910.224	17364
910.339	17497
910.454	17398
910.57	17353
910.685	17170
910.8	17581
910.915	17459
911.03	17242
911.145	17079
911.259	17136
911.374	17041
911.489	16946
911.604	16942
911.718	16873
911.833	16930
911.947	16820
912.062	16634
912.176	16866
912.291	16847
912.405	16934
912.519	16889
912.633	17143
912.748	16824
912.862	16824
912.976	16679
913.09	16531
913.204	16664
913.318	16717
913.431	16717
913.545	16675
913.659	16797
913.772	16554
913.886	16535
914	16344
914.113	16508
914.226	16497
914.34	16508
914.453	16192
914.566	16478
914.68	16284
914.793	16299
914.906	16048
915.019	16048
915.132	15876
915.245	16051
915.358	15991
915.47	16032
915.583	16048
915.696	16063
915.809	16086
915.921	16192
916.034	16006
916.146	15998
916.259	15831
916.371	15926
916.483	16002
916.595	15808
916.708	15816
916.82	15793
916.932	15713
917.044	15720
917.156	15720
917.268	15637
917.38	15648
917.491	15606
917.603	15663
917.715	15762
917.826	15819
917.938	15473
918.049	15526
918.161	15599
918.272	15671
918.384	15682
918.495	15515
918.606	15370
918.717	15287
918.828	15393
918.939	15431
919.05	15363
919.161	15321
919.272	15165
919.383	15176
919.494	15405
919.604	15500
919.715	15340
919.826	15268
919.936	15283
920.047	15332
920.157	15294
920.267	15431
920.378	15226
920.488	15321
920.598	15469
920.708	15625
920.818	15431
920.928	15401
921.038	15576
921.148	15568
921.258	15340
921.368	15165
921.477	15085
921.587	14918
921.697	14914
921.806	14956
921.916	14990
922.025	14743
922.134	14621
922.244	14594
922.353	14727
922.462	14556
922.571	14419
922.68	14267
922.789	14267
922.898	14336
923.007	14206
923.116	14347
923.224	14259
923.333	14153
923.442	14142
923.55	14096
923.659	14172
923.767	14153
923.876	13993
923.984	14100
924.092	14020
924.201	14027
924.309	14065
924.417	13993
924.525	13913
924.633	13974
924.741	14682
924.849	13750
924.956	13811
925.064	13708
925.172	13616
925.279	13666
925.387	13677
925.494	13616
925.602	13772
925.709	13765
925.816	13552
925.924	13681
926.031	13658
926.138	13658
926.245	13586
926.352	13518
926.459	13582
926.566	13651
926.673	13544
926.779	13449
926.886	13320
926.993	13225
927.099	13145
927.206	13209
927.312	13149
927.419	13213
927.525	13324
927.631	13255
927.737	13076
927.843	13031
927.95	12947
928.056	12894
928.162	13099
928.267	13072
928.373	13712
928.479	13137
928.585	12848
928.69	12981
928.796	13053
928.901	12837
929.007	12700
929.112	12909
929.218	12787
929.323	12837
929.428	12798
929.533	12939
929.638	12650
929.743	12536
929.848	12665
929.953	12639
930.058	12528
930.163	12460
930.267	12426
930.372	12551
930.477	12388
930.581	12582
930.685	12376
930.79	12232
930.894	12388
930.998	12273
931.103	12289
931.207	12060
931.311	11851
931.415	11885
931.519	11623
931.623	11779
