Data from test_V78500241_3322.txt Node
Date: Fri Mar 25 16:04:48 CST 2022
User: usil
Spectrometer: V785-0024
Trigger mode: 0
Integration Time (sec): 4.000000E-1
Scans to average: 1
Nonlinearity correction enabled: false
Boxcar width: 0
Storing dark spectrum: false
XAxis mode: Wavelengths
Number of Pixels in Spectrum: 1024
>>>>>Begin Spectral Data<<<<<
801.071	28771
801.214	28645
801.356	28508
801.499	28481
801.641	28466
801.783	28409
801.926	28352
802.068	28318
802.211	28287
802.353	28371
802.496	28029
802.638	28135
802.78	28143
802.923	27934
803.065	27930
803.208	28021
803.35	28249
803.492	28261
803.635	28196
803.777	28093
803.919	28367
804.061	28664
804.204	28409
804.346	28310
804.488	28162
804.63	28120
804.773	28341
804.915	28325
805.057	28405
805.199	28337
805.341	28531
805.483	28470
805.626	28451
805.768	28371
805.91	28405
806.052	28603
806.194	28660
806.336	28573
806.478	28622
806.62	28538
806.762	28584
806.904	28778
807.046	29033
807.188	29022
807.33	28873
807.472	29208
807.614	28900
807.756	28911
807.898	28888
808.04	28759
808.182	28797
808.324	28835
808.465	28831
808.607	29094
808.749	29258
808.891	29189
809.033	29406
809.174	29242
809.316	29124
809.458	29246
809.6	29128
809.741	29311
809.883	29261
810.025	29562
810.166	29459
810.308	29372
810.45	29360
810.591	29341
810.733	29254
810.875	29216
811.016	29162
811.158	29083
811.299	29280
811.441	29391
811.582	29337
811.724	29166
811.865	29250
812.007	29086
812.148	29284
812.29	29330
812.431	29284
812.573	29554
812.714	29630
812.855	29691
812.997	29828
813.138	29916
813.279	29828
813.421	29661
813.562	29627
813.703	29516
813.845	29433
813.986	29299
814.127	29052
814.268	28965
814.41	28991
814.551	29006
814.692	28946
814.833	28774
814.974	28866
815.115	28972
815.256	28911
815.397	28790
815.539	28908
815.68	28828
815.821	28843
815.962	28812
816.103	28580
816.244	28645
816.385	28519
816.526	28413
816.666	28344
816.807	28280
816.948	28234
817.089	28348
817.23	28211
817.371	28257
817.512	28246
817.653	28287
817.793	28032
817.934	28211
818.075	28379
818.216	28268
818.356	28223
818.497	28158
818.638	27903
818.778	27934
818.919	28097
819.06	28074
819.2	28120
819.341	28196
819.481	28238
819.622	28508
819.762	28645
819.903	28413
820.043	28455
820.184	28356
820.324	28333
820.465	28459
820.605	28386
820.746	28337
820.886	28181
821.026	28261
821.167	28367
821.307	28462
821.447	28318
821.588	28284
821.728	28097
821.868	27865
822.008	27724
822.149	27720
822.289	27720
822.429	27389
822.569	27325
822.709	27332
822.849	27336
822.99	27195
823.13	27112
823.27	27199
823.41	27077
823.55	26963
823.69	27176
823.83	27051
823.97	27127
824.11	26895
824.25	26929
824.389	26743
824.529	27024
824.669	26804
824.809	27020
824.949	27013
825.089	26994
825.228	26937
825.368	26716
825.508	26743
825.648	26724
825.787	26762
825.927	26842
826.067	26670
826.206	26792
826.346	26971
826.485	26754
826.625	26819
826.765	26952
826.904	26754
827.044	26598
827.183	26568
827.323	26473
827.462	26621
827.601	26552
827.741	26530
827.88	26602
828.02	26328
828.159	26461
828.298	26499
828.437	26476
828.577	26370
828.716	26575
828.855	26355
828.994	26195
829.134	26183
829.273	26221
829.412	26111
829.551	26161
829.69	26119
829.829	26176
829.968	26332
830.107	26195
830.246	26176
830.385	26176
830.524	26058
830.663	25955
830.802	25868
830.941	25807
831.08	25769
831.219	25890
831.357	25928
831.496	26039
831.635	25826
831.774	25742
831.913	25571
832.051	25582
832.19	25662
832.329	25506
832.467	25483
832.606	25426
832.744	25354
832.883	25419
833.022	25499
833.16	25434
833.299	25499
833.437	25506
833.576	25411
833.714	25582
833.852	25540
833.991	25582
834.129	25700
834.267	25597
834.406	25540
834.544	25696
834.682	25525
834.821	25529
834.959	25597
835.097	25430
835.235	25483
835.373	25575
835.511	25487
835.65	25426
835.788	25388
835.926	25206
836.064	25160
836.202	25217
836.34	25388
836.478	25460
836.615	25301
836.753	25441
836.891	25434
837.029	25324
837.167	25232
837.305	25339
837.443	25278
837.58	25312
837.718	25251
837.856	25236
837.993	25118
838.131	25141
838.269	24970
838.406	25183
838.544	24970
838.681	24700
838.819	24833
838.956	24642
839.094	24703
839.231	24726
839.369	24909
839.506	25034
839.643	24859
839.781	24665
839.918	24574
840.055	24627
840.193	24620
840.33	24547
840.467	24582
840.604	24620
840.742	24829
840.879	24369
841.016	24388
841.153	24460
841.29	24661
841.427	24509
841.564	24578
841.701	24483
841.838	24509
841.975	24372
842.112	24509
842.249	24311
842.385	24304
842.522	24574
842.659	24429
842.796	24197
842.933	24323
843.069	24270
843.206	24239
843.343	24334
843.479	24308
843.616	24247
843.752	23958
843.889	24144
844.025	24209
844.162	24167
844.298	24258
844.435	24087
844.571	24133
844.708	24095
844.844	24209
844.98	24334
845.117	24247
845.253	24064
845.389	24038
845.525	23920
845.661	24038
845.798	23832
845.934	23897
846.07	23923
846.206	23783
846.342	23893
846.478	23691
846.614	23539
846.75	23478
846.886	23554
847.022	23486
847.158	23497
847.294	23531
847.429	23467
847.565	23516
847.701	23745
847.837	23261
847.972	23254
848.108	23322
848.244	23433
848.379	23231
848.515	23105
848.65	23079
848.786	23025
848.921	23128
849.057	23189
849.192	23143
849.328	23155
849.463	23117
849.598	23064
849.734	23056
849.869	23041
850.004	22972
850.14	22968
850.275	22946
850.41	22828
850.545	22862
850.68	22961
850.815	22850
850.95	22885
851.085	23044
851.22	23098
851.355	22908
851.49	22938
851.625	22938
851.76	22816
851.895	22843
852.03	22748
852.165	22930
852.299	22877
852.434	22930
852.569	23056
852.703	22812
852.838	22873
852.973	22980
853.107	23003
853.242	22645
853.376	22618
853.511	22596
853.645	22664
853.78	22774
853.914	22824
854.048	22698
854.183	22645
854.317	22771
854.451	22892
854.585	22588
854.72	22691
854.854	22786
854.988	22656
855.122	22554
855.256	22497
855.39	22778
855.524	22774
855.658	22812
855.792	22736
855.926	22687
856.06	22869
856.194	22805
856.327	22675
856.461	22615
856.595	22858
856.729	22656
856.862	22721
856.996	22801
857.13	22740
857.263	22771
857.397	22782
857.53	22664
857.664	22809
857.797	22729
857.931	22778
858.064	22725
858.197	22850
858.331	22771
858.464	22683
858.597	22497
858.731	22641
858.864	22573
858.997	22706
859.13	22634
859.263	22653
859.396	22816
859.529	22584
859.662	22675
859.795	22744
859.928	22630
860.061	22934
860.194	22976
860.327	22683
860.46	22733
860.592	22889
860.725	22904
860.858	22858
860.99	22873
861.123	22584
861.256	22679
861.388	22706
861.521	23372
861.653	22538
861.786	22478
861.918	22550
862.05	22508
862.183	22691
862.315	22634
862.447	22713
862.58	22660
862.712	22478
862.844	22242
862.976	22512
863.108	22607
863.24	22866
863.372	22341
863.504	22371
863.636	22409
863.768	22409
863.9	22318
864.032	22299
864.164	22318
864.296	22428
864.428	22611
864.559	22348
864.691	22382
864.823	22413
864.954	22333
865.086	22344
865.217	22295
865.349	22173
865.48	22284
865.612	22284
865.743	22352
865.875	22272
866.006	22261
866.137	22177
866.269	22276
866.4	22265
866.531	22257
866.662	22173
866.793	22192
866.924	22207
867.055	22185
867.186	22143
867.317	22223
867.448	22124
867.579	22257
867.71	22253
867.841	22177
867.972	22223
868.103	22238
868.233	22230
868.364	22268
868.495	22246
868.625	22451
868.756	22687
868.886	22497
869.017	22398
869.147	22660
869.278	22588
869.408	22436
869.539	22466
869.669	22611
869.799	22417
869.929	22630
870.06	22588
870.19	22824
870.32	22717
870.45	22839
870.58	22835
870.71	23014
870.84	22957
870.97	22908
871.1	22911
871.23	22919
871.36	23083
871.489	22965
871.619	22999
871.749	22995
871.879	23147
872.008	23208
872.138	23067
872.267	23006
872.397	22854
872.526	22923
872.656	22927
872.785	22911
872.915	23056
873.044	23258
873.173	23056
873.303	23242
873.432	23223
873.561	23216
873.69	22987
873.819	23147
873.948	23227
874.077	23010
874.206	23022
874.335	22995
874.464	23284
874.593	23231
874.722	23193
874.851	23277
874.979	23231
875.108	23273
875.237	23170
875.365	23102
875.494	23181
875.623	23315
875.751	23155
875.88	23246
876.008	23376
876.136	23436
876.265	23566
876.393	23813
876.521	23729
876.65	23783
876.778	23722
876.906	23482
877.034	23551
877.162	23672
877.29	23554
877.418	23516
877.546	23718
877.674	23611
877.802	23634
877.93	23718
878.058	23554
878.185	23417
878.313	23608
878.441	23531
878.568	23448
878.696	23482
878.824	23589
878.951	23608
879.079	23775
879.206	23878
879.333	23722
879.461	23710
879.588	23809
879.715	23779
879.842	23859
879.97	23619
880.097	23554
880.224	23360
880.351	23524
880.478	23459
880.605	23410
880.732	23471
880.859	23668
880.986	23482
881.112	23497
881.239	23197
881.366	23140
881.493	23151
881.619	23029
881.746	22930
881.872	22953
881.999	23014
882.125	22911
882.252	23098
882.378	22930
882.505	23067
882.631	22869
882.757	22748
882.883	22805
883.01	22748
883.136	22607
883.262	22611
883.388	22557
883.514	22717
883.64	22622
883.766	22596
883.892	22390
884.018	22485
884.143	22626
884.269	22679
884.395	22329
884.52	22192
884.646	22303
884.772	22257
884.897	22166
885.023	22223
885.148	22371
885.274	22535
885.399	22402
885.524	22379
885.65	22253
885.775	22329
885.9	22253
886.025	22394
886.15	22363
886.275	22242
886.4	22162
886.525	22207
886.65	22192
886.775	22234
886.9	22356
887.025	22573
887.149	22284
887.274	22147
887.399	22078
887.523	22036
887.648	22078
887.773	21903
887.897	22074
888.021	22097
888.146	21926
888.27	22112
888.395	22055
888.519	22044
888.643	22097
888.767	22040
888.891	21979
889.015	21930
889.139	21895
889.263	21857
889.387	21854
889.511	22101
889.635	21998
889.759	21785
889.883	21926
890.006	21907
890.13	21873
890.254	21675
890.377	21747
890.501	21542
890.624	21507
890.748	21538
890.871	21504
890.995	21363
891.118	21344
891.241	21332
891.364	21492
891.488	21473
891.611	21313
891.734	21439
891.857	21473
891.98	21370
892.103	21420
892.226	21340
892.349	21329
892.471	21188
892.594	21348
892.717	21291
892.839	21306
892.962	21378
893.085	21291
893.207	21154
893.33	21264
893.452	21135
893.575	21268
893.697	21344
893.819	21393
893.941	21553
894.064	21420
894.186	21260
894.308	21203
894.43	21412
894.552	21336
894.674	21408
894.796	21077
894.918	21173
895.04	21237
895.161	21405
895.283	21272
895.405	21180
895.526	21272
895.648	21359
895.769	21355
895.891	21207
896.012	21272
896.134	21306
896.255	21344
896.376	21142
896.498	21188
896.619	21180
896.74	21321
896.861	21359
896.982	21545
897.103	21770
897.224	21496
897.345	21378
897.466	21481
897.587	21408
897.708	21580
897.828	21363
897.949	21405
898.07	21245
898.19	21431
898.311	21553
898.431	21325
898.552	21428
898.672	21481
898.792	21530
898.913	21454
899.033	21317
899.153	21291
899.273	21051
899.393	21230
899.513	21188
899.633	21207
899.753	21207
899.873	21119
899.993	21260
900.113	21093
900.232	21108
900.352	21096
900.472	21009
900.591	20872
900.711	20921
900.83	20842
900.95	20956
901.069	21017
901.189	20769
901.308	20537
901.427	20427
901.546	20571
901.665	20495
901.784	20480
901.904	20332
902.023	20248
902.141	20039
902.26	19978
902.379	20062
902.498	20062
902.617	20012
902.735	20065
902.854	19989
902.973	19830
903.091	19670
903.21	19616
903.328	19727
903.446	19605
903.565	19529
903.683	19533
903.801	19259
903.919	19384
904.038	19396
904.156	19217
904.274	19278
904.392	19263
904.51	19187
904.627	19160
904.745	19251
904.863	19206
904.981	18962
905.098	18871
905.216	18829
905.334	18928
905.451	18958
905.569	18776
905.686	18920
905.803	18878
905.921	18627
906.038	18760
906.155	18703
906.272	18585
906.389	18563
906.506	18456
906.623	18380
906.74	18460
906.857	18254
906.974	18350
907.091	18289
907.208	18532
907.324	18391
907.441	18270
907.557	18163
907.674	18148
907.79	18060
907.907	18076
908.023	18159
908.139	18045
908.256	18022
908.372	17935
908.488	18038
908.604	17973
908.72	17821
908.836	17863
908.952	17779
909.068	17817
909.184	17904
909.3	17874
909.415	17908
909.531	17828
909.647	17600
909.762	17497
909.878	17417
909.993	17596
910.108	17448
910.224	17448
910.339	17516
910.454	17265
910.57	17284
910.685	17269
910.8	17577
910.915	17326
911.03	17315
911.145	17075
911.259	17109
911.374	17098
911.489	16972
911.604	16927
911.718	16744
911.833	16767
911.947	16763
912.062	16702
912.176	16831
912.291	16736
912.405	16972
912.519	16984
912.633	16927
912.748	16843
912.862	16850
912.976	16702
913.09	16538
913.204	16535
913.318	16618
913.431	16691
913.545	16748
913.659	16797
913.772	16588
913.886	16500
914	16363
914.113	16455
914.226	16538
914.34	16379
914.453	16314
914.566	16481
914.68	16295
914.793	16265
914.906	16063
915.019	16055
915.132	15968
915.245	15991
915.358	16006
915.47	15983
915.583	16002
915.696	15983
915.809	16021
915.921	16071
916.034	15922
916.146	15880
916.259	15876
916.371	15953
916.483	16010
916.595	15857
916.708	15850
916.82	15686
916.932	15835
917.044	15717
917.156	15736
917.268	15686
917.38	15698
917.491	15545
917.603	15572
917.715	15625
917.826	15743
917.938	15511
918.049	15428
918.161	15496
918.272	15663
918.384	15656
918.495	15553
918.606	15424
918.717	15336
918.828	15310
918.939	15397
919.05	15272
919.161	15329
919.272	15157
919.383	15188
919.494	15348
919.604	15481
919.715	15310
919.826	15138
919.936	15268
920.047	15370
920.157	15306
920.267	15469
920.378	15313
920.488	15272
920.598	15469
920.708	15515
920.818	15431
920.928	15477
921.038	15507
921.148	15477
921.258	15211
921.368	15211
921.477	14933
921.587	14956
921.697	15001
921.806	15089
921.916	14861
922.025	14720
922.134	14708
922.244	14606
922.353	14716
922.462	14507
922.571	14408
922.68	14317
922.789	14278
922.898	14298
923.007	14278
923.116	14339
923.224	14320
923.333	14324
923.442	14229
923.55	14176
923.659	14168
923.767	14161
923.876	14054
923.984	14081
924.092	14100
924.201	14145
924.309	13951
924.417	13997
924.525	13925
924.633	13837
924.741	14895
924.849	13677
924.956	13925
925.064	13727
925.172	13651
925.279	13799
925.387	13788
925.494	13674
925.602	13864
925.709	13765
925.816	13597
925.924	13662
926.031	13799
926.138	13601
926.245	13772
926.352	13590
926.459	13658
926.566	13693
926.673	13594
926.779	13480
926.886	13358
926.993	13304
927.099	13278
927.206	13263
927.312	13206
927.419	13270
927.525	13312
927.631	13255
927.737	13164
927.843	13183
927.95	12973
928.056	13072
928.162	13069
928.267	13095
928.373	13731
928.479	13129
928.585	12867
928.69	13004
928.796	13091
928.901	12996
929.007	12863
929.112	12954
929.218	12882
929.323	12711
929.428	12726
929.533	12935
929.638	12719
929.743	12738
929.848	12757
929.953	12627
930.058	12616
930.163	12437
930.267	12418
930.372	12547
930.477	12350
930.581	12536
930.685	12437
930.79	12300
930.894	12273
930.998	12228
931.103	12418
931.207	12007
931.311	11999
931.415	11859
931.519	11737
931.623	11661
