Data from test_V78500241_1733.txt Node
Date: Fri Mar 25 15:53:48 CST 2022
User: usil
Spectrometer: V785-0024
Trigger mode: 0
Integration Time (sec): 4.000000E-1
Scans to average: 1
Nonlinearity correction enabled: false
Boxcar width: 0
Storing dark spectrum: false
XAxis mode: Wavelengths
Number of Pixels in Spectrum: 1024
>>>>>Begin Spectral Data<<<<<
801.071	28105
801.214	28196
801.356	27888
801.499	27865
801.641	27861
801.783	27831
801.926	27823
802.068	27663
802.211	27698
802.353	27663
802.496	27496
802.638	27511
802.78	27370
802.923	27462
803.065	27401
803.208	27336
803.35	27431
803.492	27549
803.635	27629
803.777	27568
803.919	27766
804.061	27998
804.204	27648
804.346	27564
804.488	27538
804.63	27610
804.773	27595
804.915	27625
805.057	27861
805.199	27629
805.341	27747
805.483	27857
805.626	27808
805.768	27698
805.91	27778
806.052	27819
806.194	27698
806.336	27964
806.478	27846
806.62	27751
806.762	27930
806.904	28120
807.046	28204
807.188	28291
807.33	28215
807.472	28352
807.614	28173
807.756	28169
807.898	28147
808.04	28120
808.182	28029
808.324	28154
808.465	28147
808.607	28344
808.749	28489
808.891	28531
809.033	28588
809.174	28516
809.316	28394
809.458	28493
809.6	28424
809.741	28596
809.883	28599
810.025	28771
810.166	28835
810.308	28835
810.45	28706
810.591	28634
810.733	28493
810.875	28386
811.016	28341
811.158	28596
811.299	28462
811.441	28611
811.582	28557
811.724	28401
811.865	28447
812.007	28367
812.148	28565
812.29	28413
812.431	28679
812.573	28854
812.714	28869
812.855	28866
812.997	29060
813.138	29200
813.279	29200
813.421	29052
813.562	28949
813.703	28740
813.845	28733
813.986	28500
814.127	28280
814.268	28188
814.41	28139
814.551	28093
814.692	28177
814.833	27945
814.974	28063
815.115	28082
815.256	28051
815.397	27994
815.539	27987
815.68	27926
815.821	27797
815.962	27918
816.103	27865
816.244	27785
816.385	27717
816.526	27671
816.666	27519
816.807	27405
816.948	27504
817.089	27603
817.23	27542
817.371	27420
817.512	27374
817.653	27454
817.793	27408
817.934	27401
818.075	27405
818.216	27473
818.356	27450
818.497	27351
818.638	27024
818.778	27195
818.919	27089
819.06	27340
819.2	27275
819.341	27439
819.481	27344
819.622	27557
819.762	27789
819.903	27690
820.043	27580
820.184	27564
820.324	27538
820.465	27682
820.605	27545
820.746	27504
820.886	27313
821.026	27485
821.167	27462
821.307	27435
821.447	27344
821.588	27435
821.728	27351
821.868	27070
822.008	26880
822.149	26880
822.289	26902
822.429	26632
822.569	26651
822.709	26621
822.849	26511
822.99	26396
823.13	26442
823.27	26301
823.41	26233
823.55	26119
823.69	26336
823.83	26347
823.97	26168
824.11	26065
824.25	25989
824.389	26058
824.529	26016
824.669	26103
824.809	26035
824.949	26199
825.089	26157
825.228	26130
825.368	25902
825.508	25856
825.648	25833
825.787	25978
825.927	26065
826.067	25902
826.206	25860
826.346	26020
826.485	26161
826.625	26027
826.765	26039
826.904	26058
827.044	25833
827.183	25738
827.323	25715
827.462	25738
827.601	25601
827.741	25616
827.88	25594
828.02	25476
828.159	25571
828.298	25635
828.437	25727
828.577	25601
828.716	25655
828.855	25632
828.994	25449
829.134	25339
829.273	25472
829.412	25266
829.551	25255
829.69	25388
829.829	25354
829.968	25419
830.107	25464
830.246	25346
830.385	25285
830.524	25137
830.663	25171
830.802	25099
830.941	24867
831.08	24806
831.219	25034
831.357	25118
831.496	25118
831.635	24814
831.774	24867
831.913	24848
832.051	24837
832.19	24703
832.329	24875
832.467	24601
832.606	24597
832.744	24490
832.883	24707
833.022	24658
833.16	24635
833.299	24665
833.437	24635
833.576	24715
833.714	24726
833.852	24707
833.991	24837
834.129	24833
834.267	24768
834.406	24582
834.544	24741
834.682	24692
834.821	24684
834.959	24821
835.097	24707
835.235	24620
835.373	24696
835.511	24612
835.65	24566
835.788	24612
835.926	24483
836.064	24407
836.202	24483
836.34	24585
836.478	24593
836.615	24388
836.753	24414
836.891	24547
837.029	24414
837.167	24437
837.305	24418
837.443	24342
837.58	24197
837.718	24399
837.856	24350
837.993	24273
838.131	24311
838.269	24186
838.406	24323
838.544	24049
838.681	23893
838.819	23977
838.956	23942
839.094	23809
839.231	23821
839.369	24007
839.506	24194
839.643	24209
839.781	23821
839.918	23638
840.055	23657
840.193	23714
840.33	23634
840.467	23748
840.604	23722
840.742	23954
840.879	23516
841.016	23551
841.153	23649
841.29	23851
841.427	23627
841.564	23786
841.701	23703
841.838	23615
841.975	23653
842.112	23543
842.249	23524
842.385	23619
842.522	23649
842.659	23372
842.796	23493
842.933	23490
843.069	23410
843.206	23493
843.343	23547
843.479	23353
843.616	23478
843.752	23261
843.889	23261
844.025	23307
844.162	23044
844.298	23383
844.435	23311
844.571	23166
844.708	23220
844.844	23478
844.98	23497
845.117	23334
845.253	23239
845.389	23060
845.525	23189
845.661	23102
845.798	23060
845.934	23044
846.07	22953
846.206	23113
846.342	23124
846.478	22972
846.614	22866
846.75	22698
846.886	22687
847.022	22831
847.158	22630
847.294	22679
847.429	22721
847.565	22679
847.701	22942
847.837	22474
847.972	22390
848.108	22466
848.244	22523
848.379	22390
848.515	22272
848.65	22333
848.786	22303
848.921	22352
849.057	22382
849.192	22421
849.328	22325
849.463	22238
849.598	22192
849.734	22223
849.869	22173
850.004	22051
850.14	22093
850.275	22029
850.41	21964
850.545	21972
850.68	22048
850.815	22040
850.95	22044
851.085	22234
851.22	22226
851.355	22078
851.49	22029
851.625	22090
851.76	21968
851.895	21888
852.03	21903
852.165	22002
852.299	22090
852.434	22166
852.569	22070
852.703	22055
852.838	22196
852.973	22185
853.107	22158
853.242	21983
853.376	21812
853.511	21709
853.645	21899
853.78	21911
853.914	21808
854.048	21903
854.183	21857
854.317	21842
854.451	22131
854.585	21899
854.72	21884
854.854	22021
854.988	21747
855.122	21895
855.256	21766
855.39	21831
855.524	21888
855.658	22010
855.792	21812
855.926	21861
856.06	21903
856.194	22067
856.327	21865
856.461	21861
856.595	21922
856.729	21907
856.862	21934
856.996	21915
857.13	21983
857.263	21994
857.397	21994
857.53	21907
857.664	21949
857.797	21876
857.931	21979
858.064	21911
858.197	21953
858.331	21869
858.464	21869
858.597	21835
858.731	21880
858.864	21979
858.997	21816
859.13	21861
859.263	21766
859.396	21975
859.529	21785
859.662	21835
859.795	21911
859.928	21979
860.061	21960
860.194	22192
860.327	21812
860.46	21835
860.592	22006
860.725	21991
860.858	22048
860.99	21846
861.123	21869
861.256	21876
861.388	21880
861.521	22694
861.653	21755
861.786	21591
861.918	21614
862.05	21705
862.183	21812
862.315	21819
862.447	21857
862.58	21808
862.712	21511
862.844	21538
862.976	21705
863.108	21633
863.24	21907
863.372	21545
863.504	21439
863.636	21709
863.768	21637
863.9	21622
864.032	21530
864.164	21511
864.296	21644
864.428	21629
864.559	21675
864.691	21701
864.823	21622
864.954	21492
865.086	21568
865.217	21374
865.349	21359
865.48	21454
865.612	21492
865.743	21660
865.875	21564
866.006	21496
866.137	21447
866.269	21469
866.4	21439
866.531	21332
866.662	21329
866.793	21401
866.924	21325
867.055	21332
867.186	21469
867.317	21306
867.448	21260
867.579	21405
867.71	21264
867.841	21241
867.972	21405
868.103	21443
868.233	21439
868.364	21405
868.495	21526
868.625	21523
868.756	21835
868.886	21564
869.017	21568
869.147	21595
869.278	21747
869.408	21599
869.539	21701
869.669	21774
869.799	21667
869.929	21732
870.06	21804
870.19	21915
870.32	21899
870.45	21945
870.58	22010
870.71	22097
870.84	22162
870.97	22036
871.1	21941
871.23	22143
871.36	22112
871.489	22249
871.619	22177
871.749	22116
871.879	22173
872.008	22280
872.138	22318
872.267	22318
872.397	22097
872.526	22070
872.656	22124
872.785	22109
872.915	22322
873.044	22257
873.173	22177
873.303	22436
873.432	22284
873.561	22421
873.69	22299
873.819	22226
873.948	22322
874.077	22306
874.206	22192
874.335	22310
874.464	22402
874.593	22489
874.722	22470
874.851	22478
874.979	22455
875.108	22421
875.237	22512
875.365	22253
875.494	22379
875.623	22561
875.751	22424
875.88	22527
876.008	22664
876.136	22717
876.265	22774
876.393	23022
876.521	22942
876.65	22991
876.778	23029
876.906	22831
877.034	22748
877.162	22763
877.29	22812
877.418	22839
877.546	22828
877.674	22782
877.802	22824
877.93	22896
878.058	22820
878.185	22683
878.313	22896
878.441	22858
878.568	22603
878.696	22725
878.824	22843
878.951	22908
879.079	22923
879.206	23277
879.333	22991
879.461	22869
879.588	22892
879.715	22930
879.842	23121
879.97	22908
880.097	22706
880.224	22656
880.351	22577
880.478	22672
880.605	22447
880.732	22500
880.859	22755
880.986	22519
881.112	22672
881.239	22409
881.366	22257
881.493	22226
881.619	22162
881.746	22204
881.872	22276
881.999	22147
882.125	21994
882.252	22249
882.378	22147
882.505	22367
882.631	21991
882.757	21827
882.883	21949
883.01	21789
883.136	21888
883.262	21751
883.388	21679
883.514	21888
883.64	21899
883.766	21762
883.892	21652
884.018	21698
884.143	21808
884.269	21865
884.395	21549
884.52	21564
884.646	21488
884.772	21405
884.897	21458
885.023	21534
885.148	21652
885.274	21583
885.399	21526
885.524	21671
885.65	21663
885.775	21519
885.9	21462
886.025	21618
886.15	21614
886.275	21431
886.4	21355
886.525	21473
886.65	21355
886.775	21443
886.9	21595
887.025	21781
887.149	21511
887.274	21310
887.399	21249
887.523	21317
887.648	21127
887.773	21218
887.897	21279
888.021	21233
888.146	21233
888.27	21450
888.395	21291
888.519	21211
888.643	21260
888.767	21412
888.891	21157
889.015	21154
889.139	21104
889.263	21017
889.387	21222
889.511	21321
889.635	21157
889.759	20971
889.883	21017
890.006	21051
890.13	21131
890.254	21032
890.377	20883
890.501	20811
890.624	20883
890.748	20861
890.871	20697
890.995	20724
891.118	20533
891.241	20655
891.364	20636
891.488	20815
891.611	20598
891.734	20674
891.857	20750
891.98	20754
892.103	20777
892.226	20617
892.349	20594
892.471	20442
892.594	20473
892.717	20606
892.839	20507
892.962	20499
893.085	20571
893.207	20545
893.33	20332
893.452	20412
893.575	20556
893.697	20530
893.819	20655
893.941	20735
894.064	20545
894.186	20423
894.308	20465
894.43	20480
894.552	20701
894.674	20606
894.796	20366
894.918	20434
895.04	20545
895.161	20629
895.283	20552
895.405	20469
895.526	20590
895.648	20526
895.769	20571
895.891	20549
896.012	20556
896.134	20632
896.255	20632
896.376	20480
896.498	20590
896.619	20446
896.74	20644
896.861	20495
896.982	20845
897.103	20971
897.224	20933
897.345	20868
897.466	20735
897.587	20773
897.708	20921
897.828	20758
897.949	20689
898.07	20659
898.19	20670
898.311	20868
898.431	20632
898.552	20705
898.672	20758
898.792	20895
898.913	20644
899.033	20724
899.153	20587
899.273	20480
899.393	20522
899.513	20545
899.633	20514
899.753	20507
899.873	20461
899.993	20488
900.113	20393
900.232	20393
900.352	20518
900.472	20309
900.591	20263
900.711	20301
900.83	20180
900.95	20427
901.069	20400
901.189	20172
901.308	19909
901.427	19864
901.546	19837
901.665	19807
901.784	19890
901.904	19700
902.023	19715
902.141	19354
902.26	19358
902.379	19384
902.498	19400
902.617	19312
902.735	19369
902.854	19343
902.973	19209
903.091	19046
903.21	18977
903.328	19023
903.446	18935
903.565	18833
903.683	18840
903.801	18700
903.919	18677
904.038	18753
904.156	18593
904.274	18589
904.392	18563
904.51	18502
904.627	18525
904.745	18479
904.863	18532
904.981	18380
905.098	18273
905.216	18125
905.334	18228
905.451	18228
905.569	18209
905.686	18254
905.803	18155
905.921	18095
906.038	18076
906.155	18064
906.272	17901
906.389	17935
906.506	17851
906.623	17699
906.74	17874
906.857	17604
906.974	17733
907.091	17885
907.208	17863
907.324	17805
907.441	17771
907.557	17554
907.674	17497
907.79	17322
907.907	17482
908.023	17497
908.139	17547
908.256	17398
908.372	17330
908.488	17379
908.604	17212
908.72	17174
908.836	17075
908.952	17212
909.068	17181
909.184	17277
909.3	17181
909.415	17193
909.531	17128
909.647	16896
909.762	16900
909.878	16927
909.993	16873
910.108	16896
910.224	16934
910.339	16923
910.454	16774
910.57	16641
910.685	16641
910.8	17018
910.915	16919
911.03	16828
911.145	16580
911.259	16504
911.374	16558
911.489	16493
911.604	16352
911.718	16272
911.833	16310
911.947	16112
912.062	16093
912.176	16310
912.291	16268
912.405	16261
912.519	16440
912.633	16478
912.748	16268
912.862	16101
912.976	16109
913.09	15926
913.204	16006
913.318	16112
913.431	16109
913.545	16051
913.659	16143
913.772	15930
913.886	15899
914	15812
914.113	15972
914.226	15937
914.34	15861
914.453	15743
914.566	15808
914.68	15736
914.793	15694
914.906	15530
915.019	15507
915.132	15431
915.245	15393
915.358	15485
915.47	15450
915.583	15386
915.696	15511
915.809	15545
915.921	15629
916.034	15329
916.146	15389
916.259	15332
916.371	15420
916.483	15393
916.595	15233
916.708	15226
916.82	15245
916.932	15192
917.044	15188
917.156	15203
917.268	15013
917.38	15169
917.491	15032
917.603	15142
917.715	15218
917.826	15188
917.938	14994
918.049	14921
918.161	15066
918.272	15085
918.384	15150
918.495	14990
918.606	14796
918.717	14804
918.828	14948
918.939	14834
919.05	14815
919.161	14819
919.272	14686
919.383	14716
919.494	14967
919.604	15028
919.715	14743
919.826	14792
919.936	14792
920.047	14792
920.157	14716
920.267	15062
920.378	14777
920.488	14788
920.598	14895
920.708	15093
920.818	14895
920.928	14967
921.038	15074
921.148	14933
921.258	14781
921.368	14705
921.477	14552
921.587	14598
921.697	14358
921.806	14465
921.916	14343
922.025	14252
922.134	14096
922.244	14073
922.353	14180
922.462	14020
922.571	14062
922.68	13822
922.789	13780
922.898	13830
923.007	13715
923.116	13811
923.224	13814
923.333	13715
923.442	13700
923.55	13586
923.659	13605
923.767	13719
923.876	13567
923.984	13643
924.092	13495
924.201	13643
924.309	13552
924.417	13578
924.525	13468
924.633	13453
924.741	14199
924.849	13202
924.956	13476
925.064	13202
925.172	13107
925.279	13156
925.387	13206
925.494	13206
925.602	13293
925.709	13343
925.816	13206
925.924	13053
926.031	13164
926.138	13126
926.245	13152
926.352	13012
926.459	13126
926.566	13190
926.673	13034
926.779	12993
926.886	13038
926.993	12745
927.099	12825
927.206	12757
927.312	12726
927.419	12852
927.525	12681
927.631	12795
927.737	12669
927.843	12635
927.95	12540
928.056	12589
928.162	12559
928.267	12601
928.373	13285
928.479	12681
928.585	12388
928.69	12536
928.796	12578
928.901	12414
929.007	12369
929.112	12456
929.218	12448
929.323	12327
929.428	12323
929.533	12433
929.638	12209
929.743	12266
929.848	12194
929.953	12235
930.058	12163
930.163	11939
930.267	11984
930.372	12155
930.477	11996
930.581	12110
930.685	11954
930.79	11878
930.894	11859
930.998	11847
931.103	12041
931.207	11547
931.311	11554
931.415	11425
931.519	11178
931.623	11235
