Data from test_V78500241_3008.txt Node
Date: Fri Mar 25 16:02:38 CST 2022
User: usil
Spectrometer: V785-0024
Trigger mode: 0
Integration Time (sec): 4.000000E-1
Scans to average: 1
Nonlinearity correction enabled: false
Boxcar width: 0
Storing dark spectrum: false
XAxis mode: Wavelengths
Number of Pixels in Spectrum: 1024
>>>>>Begin Spectral Data<<<<<
801.071	28736
801.214	28660
801.356	28649
801.499	28268
801.641	28306
801.783	28291
801.926	28344
802.068	28341
802.211	28234
802.353	28169
802.496	28139
802.638	27987
802.78	27953
802.923	27968
803.065	27835
803.208	27911
803.35	27994
803.492	28158
803.635	28215
803.777	28154
803.919	28173
804.061	28531
804.204	28322
804.346	28196
804.488	28021
804.63	28128
804.773	28067
804.915	28265
805.057	28447
805.199	28337
805.341	28352
805.483	28367
805.626	28322
805.768	28234
805.91	28325
806.052	28455
806.194	28211
806.336	28664
806.478	28481
806.62	28508
806.762	28497
806.904	28710
807.046	28877
807.188	28721
807.33	28755
807.472	28934
807.614	28782
807.756	28805
807.898	28660
808.04	28653
808.182	28557
808.324	28767
808.465	28839
808.607	28896
808.749	29235
808.891	29075
809.033	29334
809.174	29117
809.316	29170
809.458	29258
809.6	29079
809.741	29029
809.883	29254
810.025	29375
810.166	29402
810.308	29463
810.45	29372
810.591	29280
810.733	29090
810.875	29052
811.016	29052
811.158	29166
811.299	29212
811.441	29273
811.582	29334
811.724	29113
811.865	29010
812.007	29025
812.148	29098
812.29	29033
812.431	29284
812.573	29520
812.714	29436
812.855	29733
812.997	29733
813.138	29908
813.279	29684
813.421	29600
813.562	29570
813.703	29261
813.845	29410
813.986	29140
814.127	28942
814.268	28835
814.41	28953
814.551	28809
814.692	28862
814.833	28748
814.974	28710
815.115	28854
815.256	28687
815.397	28634
815.539	28561
815.68	28557
815.821	28474
815.962	28698
816.103	28569
816.244	28512
816.385	28436
816.526	28344
816.666	28147
816.807	28074
816.948	28109
817.089	28337
817.23	28101
817.371	28101
817.512	28135
817.653	27926
817.793	27975
817.934	28135
818.075	28116
818.216	28192
818.356	28070
818.497	27922
818.638	27892
818.778	27941
818.919	27949
819.06	27899
819.2	28128
819.341	28105
819.481	28204
819.622	28223
819.762	28443
819.903	28409
820.043	28341
820.184	28261
820.324	28246
820.465	28230
820.605	28363
820.746	28188
820.886	28135
821.026	28192
821.167	28272
821.307	28550
821.447	28131
821.588	28017
821.728	27903
821.868	27865
822.008	27526
822.149	27549
822.289	27686
822.429	27477
822.569	27370
822.709	27294
822.849	27131
822.99	27207
823.13	27047
823.27	26971
823.41	27024
823.55	26887
823.69	26853
823.83	26929
823.97	26872
824.11	26731
824.25	26686
824.389	26792
824.529	26807
824.669	26906
824.809	26914
824.949	26815
825.089	26785
825.228	26735
825.368	26575
825.508	26545
825.648	26743
825.787	26712
825.927	26815
826.067	26632
826.206	26765
826.346	26564
826.485	26701
826.625	26552
826.765	26617
826.904	26640
827.044	26343
827.183	26511
827.323	26362
827.462	26332
827.601	26317
827.741	26400
827.88	26453
828.02	26355
828.159	26267
828.298	26415
828.437	26370
828.577	26252
828.716	26347
828.855	26145
828.994	25974
829.134	25974
829.273	26138
829.412	26065
829.551	26039
829.69	26088
829.829	26008
829.968	26020
830.107	26081
830.246	25997
830.385	25955
830.524	25788
830.663	25788
830.802	25822
830.941	25738
831.08	25693
831.219	25723
831.357	25734
831.496	25955
831.635	25613
831.774	25639
831.913	25620
832.051	25514
832.19	25483
832.329	25438
832.467	25381
832.606	25445
832.744	25354
832.883	25407
833.022	25263
833.16	25251
833.299	25411
833.437	25373
833.576	25354
833.714	25411
833.852	25472
833.991	25388
834.129	25460
834.267	25457
834.406	25453
834.544	25453
834.682	25491
834.821	25384
834.959	25540
835.097	25312
835.235	25537
835.373	25411
835.511	25316
835.65	25217
835.788	25304
835.926	25194
836.064	25053
836.202	25179
836.34	25069
836.478	25194
836.615	25217
836.753	25156
836.891	25244
837.029	25213
837.167	25152
837.305	25183
837.443	25042
837.58	25065
837.718	25099
837.856	25129
837.993	25118
838.131	24966
838.269	24821
838.406	24920
838.544	24894
838.681	24620
838.819	24601
838.956	24471
839.094	24479
839.231	24536
839.369	24631
839.506	24738
839.643	24757
839.781	24448
839.918	24414
840.055	24540
840.193	24471
840.33	24445
840.467	24361
840.604	24456
840.742	24692
840.879	24327
841.016	24460
841.153	24429
841.29	24570
841.427	24357
841.564	24418
841.701	24395
841.838	24311
841.975	24365
842.112	24247
842.249	24361
842.385	24163
842.522	24528
842.659	24209
842.796	24140
842.933	24262
843.069	24182
843.206	24098
843.343	24178
843.479	24251
843.616	24117
843.752	24045
843.889	23973
844.025	24095
844.162	23882
844.298	24098
844.435	24049
844.571	24022
844.708	23931
844.844	24091
844.98	24163
845.117	24045
845.253	23809
845.389	23863
845.525	23802
845.661	23783
845.798	23687
845.934	23741
846.07	23722
846.206	23691
846.342	23729
846.478	23600
846.614	23467
846.75	23284
846.886	23436
847.022	23467
847.158	23452
847.294	23459
847.429	23448
847.565	23433
847.701	23653
847.837	23022
847.972	23197
848.108	23159
848.244	23242
848.379	22987
848.515	23064
848.65	22892
848.786	22965
848.921	23056
849.057	23174
849.192	23113
849.328	23029
849.463	23105
849.598	23006
849.734	22896
849.869	22934
850.004	22596
850.14	22653
850.275	22805
850.41	22653
850.545	22698
850.68	22767
850.815	22786
850.95	22790
851.085	22885
851.22	22915
851.355	22809
851.49	22774
851.625	22713
851.76	22710
851.895	22672
852.03	22668
852.165	22733
852.299	22759
852.434	22816
852.569	22934
852.703	22782
852.838	22649
852.973	22809
853.107	22839
853.242	22634
853.376	22618
853.511	22466
853.645	22504
853.78	22641
853.914	22596
854.048	22512
854.183	22554
854.317	22615
854.451	22675
854.585	22645
854.72	22512
854.854	22630
854.988	22489
855.122	22637
855.256	22325
855.39	22569
855.524	22599
855.658	22561
855.792	22497
855.926	22767
856.06	22538
856.194	22702
856.327	22508
856.461	22451
856.595	22485
856.729	22580
856.862	22649
856.996	22554
857.13	22675
857.263	22729
857.397	22637
857.53	22691
857.664	22584
857.797	22599
857.931	22672
858.064	22664
858.197	22755
858.331	22546
858.464	22466
858.597	22481
858.731	22508
858.864	22493
858.997	22451
859.13	22588
859.263	22615
859.396	22664
859.529	22474
859.662	22580
859.795	22523
859.928	22626
860.061	22786
860.194	22710
860.327	22634
860.46	22493
860.592	22637
860.725	22675
860.858	22782
860.99	22538
861.123	22611
861.256	22455
861.388	22466
861.521	23410
861.653	22470
861.786	22295
861.918	22424
862.05	22474
862.183	22489
862.315	22413
862.447	22542
862.58	22428
862.712	22409
862.844	22192
862.976	22329
863.108	22318
863.24	22744
863.372	22303
863.504	22325
863.636	22249
863.768	22344
863.9	22367
864.032	22257
864.164	22246
864.296	22226
864.428	22341
864.559	22272
864.691	22325
864.823	22295
864.954	22211
865.086	22234
865.217	22211
865.349	22280
865.48	22120
865.612	22223
865.743	22246
865.875	22090
866.006	22105
866.137	22120
866.269	22200
866.4	22177
866.531	22029
866.662	22070
866.793	22215
866.924	22078
867.055	22093
867.186	22215
867.317	21987
867.448	21907
867.579	21994
867.71	22029
867.841	22051
867.972	22093
868.103	22112
868.233	22109
868.364	22048
868.495	22344
868.625	22318
868.756	22409
868.886	22230
869.017	22367
869.147	22382
869.278	22432
869.408	22310
869.539	22303
869.669	22360
869.799	22455
869.929	22295
870.06	22390
870.19	22599
870.32	22710
870.45	22592
870.58	22790
870.71	22828
870.84	22812
870.97	22782
871.1	22630
871.23	22900
871.36	22908
871.489	22824
871.619	22812
871.749	22919
871.879	22892
872.008	23006
872.138	22927
872.267	23025
872.397	22858
872.526	22763
872.656	22778
872.785	22748
872.915	22786
873.044	23022
873.173	22911
873.303	22961
873.432	22987
873.561	23048
873.69	22984
873.819	22896
873.948	22915
874.077	22862
874.206	22896
874.335	22995
874.464	23014
874.593	23124
874.722	23223
874.851	23208
874.979	23174
875.108	23307
875.237	23128
875.365	23159
875.494	23174
875.623	23193
875.751	23155
875.88	23147
876.008	23356
876.136	23345
876.265	23524
876.393	23615
876.521	23592
876.65	23562
876.778	23535
876.906	23459
877.034	23493
877.162	23547
877.29	23436
877.418	23554
877.546	23478
877.674	23463
877.802	23398
877.93	23585
878.058	23395
878.185	23379
878.313	23433
878.441	23387
878.568	23398
878.696	23524
878.824	23463
878.951	23535
879.079	23695
879.206	23745
879.333	23707
879.461	23547
879.588	23691
879.715	23630
879.842	23699
879.97	23512
880.097	23189
880.224	23376
880.351	23387
880.478	23296
880.605	23235
880.732	23334
880.859	23467
880.986	23326
881.112	23395
881.239	23216
881.366	23075
881.493	22999
881.619	22881
881.746	22877
881.872	22828
881.999	22847
882.125	22717
882.252	22923
882.378	22729
882.505	22949
882.631	22660
882.757	22641
882.883	22577
883.01	22592
883.136	22550
883.262	22428
883.388	22318
883.514	22493
883.64	22489
883.766	22421
883.892	22371
884.018	22379
884.143	22497
884.269	22637
884.395	22230
884.52	22109
884.646	22230
884.772	22116
884.897	22006
885.023	22242
885.148	22398
885.274	22246
885.399	22215
885.524	22131
885.65	22246
885.775	22147
885.9	22169
886.025	22379
886.15	22188
886.275	22086
886.4	22143
886.525	21949
886.65	22093
886.775	22158
886.9	22318
887.025	22382
887.149	22086
887.274	21846
887.399	22051
887.523	21975
887.648	21762
887.773	21854
887.897	22029
888.021	22010
888.146	21934
888.27	22021
888.395	22032
888.519	21968
888.643	22036
888.767	22044
888.891	21724
889.015	21781
889.139	21823
889.263	21701
889.387	21816
889.511	21888
889.635	21911
889.759	21652
889.883	21671
890.006	21694
890.13	21713
890.254	21656
890.377	21606
890.501	21469
890.624	21492
890.748	21462
890.871	21462
890.995	21165
891.118	21226
891.241	21340
891.364	21336
891.488	21336
891.611	21340
891.734	21306
891.857	21374
891.98	21230
892.103	21424
892.226	21218
892.349	21150
892.471	21051
892.594	21214
892.717	21249
892.839	21226
892.962	21154
893.085	21127
893.207	21150
893.33	21123
893.452	21039
893.575	21192
893.697	21233
893.819	21245
893.941	21310
894.064	21294
894.186	21096
894.308	21180
894.43	21207
894.552	21226
894.674	21192
894.796	21051
894.918	21226
895.04	21100
895.161	21203
895.283	21195
895.405	20998
895.526	21154
895.648	21089
895.769	21146
895.891	21192
896.012	21226
896.134	21306
896.255	21112
896.376	21146
896.498	21112
896.619	21195
896.74	21146
896.861	21173
896.982	21458
897.103	21515
897.224	21370
897.345	21431
897.466	21218
897.587	21344
897.708	21507
897.828	21367
897.949	21268
898.07	21233
898.19	21325
898.311	21424
898.431	21165
898.552	21291
898.672	21428
898.792	21447
898.913	21313
899.033	21279
899.153	21211
899.273	21074
899.393	21119
899.513	21176
899.633	21074
899.753	21100
899.873	20990
899.993	21108
900.113	20982
900.232	21017
900.352	21123
900.472	20804
900.591	20781
900.711	20796
900.83	20678
900.95	20933
901.069	20971
901.189	20743
901.308	20545
901.427	20366
901.546	20457
901.665	20377
901.784	20393
901.904	20176
902.023	20195
902.141	20073
902.26	19909
902.379	20027
902.498	19845
902.617	19765
902.735	19940
902.854	19947
902.973	19818
903.091	19601
903.21	19575
903.328	19582
903.446	19544
903.565	19430
903.683	19232
903.801	19244
903.919	19232
904.038	19362
904.156	19031
904.274	19251
904.392	18932
904.51	19088
904.627	19080
904.745	19148
904.863	19160
904.981	19034
905.098	18764
905.216	18772
905.334	18825
905.451	18840
905.569	18745
905.686	18924
905.803	18787
905.921	18547
906.038	18707
906.155	18559
906.272	18437
906.389	18582
906.506	18308
906.623	18342
906.74	18311
906.857	18232
906.974	18353
907.091	18315
907.208	18414
907.324	18399
907.441	18220
907.557	17969
907.674	18136
907.79	17980
907.907	17939
908.023	18045
908.139	18095
908.256	17916
908.372	17939
908.488	17832
908.604	17832
908.72	17615
908.836	17805
908.952	17752
909.068	17805
909.184	17851
909.3	17699
909.415	17745
909.531	17733
909.647	17539
909.762	17501
909.878	17345
909.993	17421
910.108	17421
910.224	17345
910.339	17414
910.454	17337
910.57	17159
910.685	17140
910.8	17398
910.915	17493
911.03	17185
911.145	17113
911.259	17056
911.374	17003
911.489	16938
911.604	16972
911.718	16790
911.833	16755
911.947	16744
912.062	16717
912.176	16763
912.291	16797
912.405	16672
912.519	16923
912.633	16923
912.748	16778
912.862	16790
912.976	16679
913.09	16459
913.204	16519
913.318	16512
913.431	16618
913.545	16584
913.659	16683
913.772	16451
913.886	16272
914	16246
914.113	16371
914.226	16561
914.34	16485
914.453	16166
914.566	16447
914.68	16284
914.793	16207
914.906	15953
915.019	15994
915.132	15907
915.245	15869
915.358	15926
915.47	15949
915.583	15907
915.696	15945
915.809	16078
915.921	16036
916.034	15865
916.146	15842
916.259	15827
916.371	15857
916.483	15804
916.595	15812
916.708	15694
916.82	15709
916.932	15755
917.044	15717
917.156	15606
917.268	15534
917.38	15587
917.491	15515
917.603	15530
917.715	15591
917.826	15698
917.938	15530
918.049	15416
918.161	15545
918.272	15606
918.384	15603
918.495	15393
918.606	15336
918.717	15256
918.828	15275
918.939	15348
919.05	15222
919.161	15294
919.272	15043
919.383	15249
919.494	15302
919.604	15401
919.715	15325
919.826	15074
919.936	15203
920.047	15370
920.157	15310
920.267	15420
920.378	15298
920.488	15161
920.598	15344
920.708	15488
920.818	15348
920.928	15439
921.038	15424
921.148	15458
921.258	15245
921.368	15081
921.477	15017
921.587	15009
921.697	14800
921.806	14971
921.916	14781
922.025	14667
922.134	14648
922.244	14552
922.353	14693
922.462	14484
922.571	14427
922.68	14248
922.789	14240
922.898	14240
923.007	14374
923.116	14195
923.224	14115
923.333	14218
923.442	14077
923.55	14058
923.659	14119
923.767	14111
923.876	13955
923.984	14039
924.092	13925
924.201	13963
924.309	13978
924.417	13936
924.525	13795
924.633	13951
924.741	14739
924.849	13693
924.956	13791
925.064	13731
925.172	13613
925.279	13552
925.387	13590
925.494	13639
925.602	13696
925.709	13514
925.816	13434
925.924	13582
926.031	13636
926.138	13476
926.245	13597
926.352	13457
926.459	13658
926.566	13704
926.673	13468
926.779	13343
926.886	13358
926.993	13164
927.099	13149
927.206	13164
927.312	13080
927.419	13171
927.525	13179
927.631	13088
927.737	13110
927.843	12916
927.95	12871
928.056	12973
928.162	13088
928.267	13053
928.373	13620
928.479	12905
928.585	12886
928.69	12886
928.796	12894
928.901	12749
929.007	12563
929.112	12871
929.218	12821
929.323	12738
929.428	12639
929.533	12814
929.638	12578
929.743	12623
929.848	12620
929.953	12574
930.058	12486
930.163	12296
930.267	12437
930.372	12551
930.477	12300
930.581	12506
930.685	12380
930.79	12216
930.894	12243
930.998	12197
931.103	12346
931.207	11901
931.311	11855
931.415	11752
931.519	11585
931.623	11600
