Data from test_V78500241_550.txt Node
Date: Fri Mar 25 15:45:36 CST 2022
User: usil
Spectrometer: V785-0024
Trigger mode: 0
Integration Time (sec): 4.000000E-1
Scans to average: 1
Nonlinearity correction enabled: false
Boxcar width: 0
Storing dark spectrum: false
XAxis mode: Wavelengths
Number of Pixels in Spectrum: 1024
>>>>>Begin Spectral Data<<<<<
801.071	27770
801.214	27705
801.356	27450
801.499	27523
801.641	27367
801.783	27458
801.926	27595
802.068	27405
802.211	27294
802.353	27180
802.496	27009
802.638	27032
802.78	26956
802.923	27013
803.065	26948
803.208	27055
803.35	26998
803.492	27176
803.635	27176
803.777	26921
803.919	27203
804.061	27420
804.204	27275
804.346	27173
804.488	27013
804.63	27100
804.773	27074
804.915	27214
805.057	27230
805.199	27146
805.341	27207
805.483	27241
805.626	27302
805.768	27138
805.91	27313
806.052	27332
806.194	27127
806.336	27424
806.478	27382
806.62	27507
806.762	27427
806.904	27538
807.046	27907
807.188	27819
807.33	27781
807.472	27816
807.614	27549
807.756	27709
807.898	27667
808.04	27542
808.182	27545
808.324	27587
808.465	27652
808.607	27861
808.749	27926
808.891	28147
809.033	27991
809.174	28090
809.316	27930
809.458	28109
809.6	28017
809.741	28211
809.883	28124
810.025	28246
810.166	28166
810.308	28162
810.45	28074
810.591	28139
810.733	27907
810.875	27888
811.016	27709
811.158	27873
811.299	28166
811.441	28093
811.582	28185
811.724	28059
811.865	27899
812.007	27934
812.148	28006
812.29	27930
812.431	28105
812.573	28303
812.714	28409
812.855	28481
812.997	28569
813.138	28702
813.279	28626
813.421	28725
813.562	28459
813.703	28143
813.845	28128
813.986	27797
814.127	27739
814.268	27610
814.41	27701
814.551	27660
814.692	27671
814.833	27549
814.974	27564
815.115	27804
815.256	27447
815.397	27443
815.539	27534
815.68	27412
815.821	27313
815.962	27454
816.103	27306
816.244	27378
816.385	27131
816.526	27135
816.666	27104
816.807	26838
816.948	26960
817.089	26998
817.23	26914
817.371	26979
817.512	26921
817.653	26830
817.793	26823
817.934	26902
818.075	27028
818.216	27020
818.356	26739
818.497	26868
818.638	26686
818.778	26621
818.919	26636
819.06	26659
819.2	26849
819.341	26807
819.481	26891
819.622	27112
819.762	27176
819.903	27135
820.043	27218
820.184	27047
820.324	26971
820.465	27154
820.605	27089
820.746	27001
820.886	26773
821.026	26975
821.167	26902
821.307	27024
821.447	27032
821.588	26899
821.728	26655
821.868	26609
822.008	26396
822.149	26408
822.289	26362
822.429	26317
822.569	26145
822.709	26050
822.849	25830
822.99	25909
823.13	25879
823.27	25818
823.41	25715
823.55	25548
823.69	25761
823.83	25780
823.97	25510
824.11	25491
824.25	25559
824.389	25506
824.529	25613
824.669	25597
824.809	25704
824.949	25620
825.089	25624
825.228	25616
825.368	25369
825.508	25445
825.648	25247
825.787	25464
825.927	25354
826.067	25381
826.206	25316
826.346	25472
826.485	25285
826.625	25415
826.765	25392
826.904	25407
827.044	25031
827.183	25179
827.323	25164
827.462	25232
827.601	25133
827.741	25095
827.88	25103
828.02	24897
828.159	24943
828.298	25110
828.437	25217
828.577	24992
828.716	25175
828.855	25160
828.994	24848
829.134	24814
829.273	24890
829.412	24783
829.551	24684
829.69	24844
829.829	24814
829.968	24913
830.107	24749
830.246	24848
830.385	24684
830.524	24642
830.663	24597
830.802	24460
830.941	24346
831.08	24464
831.219	24410
831.357	24494
831.496	24574
831.635	24483
831.774	24209
831.913	24315
832.051	24190
832.19	24148
832.329	24243
832.467	24072
832.606	24114
832.744	24018
832.883	24114
833.022	24015
833.16	24007
833.299	24117
833.437	23999
833.576	24171
833.714	24182
833.852	24159
833.991	24361
834.129	24186
834.267	24110
834.406	24159
834.544	24098
834.682	24079
834.821	24083
834.959	24270
835.097	24068
835.235	24205
835.373	24053
835.511	24034
835.65	23973
835.788	24011
835.926	23863
836.064	23790
836.202	23836
836.34	24053
836.478	23980
836.615	24018
836.753	23954
836.891	24095
837.029	23999
837.167	23958
837.305	23843
837.443	23836
837.58	23851
837.718	23828
837.856	23828
837.993	23786
838.131	23687
838.269	23634
838.406	23665
838.544	23543
838.681	23478
838.819	23311
838.956	23307
839.094	23197
839.231	23307
839.369	23356
839.506	23646
839.643	23433
839.781	23299
839.918	23318
840.055	23288
840.193	23242
840.33	23185
840.467	23124
840.604	23280
840.742	23505
840.879	23113
841.016	23181
841.153	23113
841.29	23143
841.427	23010
841.564	23189
841.701	23170
841.838	23102
841.975	23083
842.112	23140
842.249	22976
842.385	22961
842.522	23105
842.659	22976
842.796	22972
842.933	22999
843.069	22873
843.206	22984
843.343	23029
843.479	22968
843.616	23029
843.752	22706
843.889	22763
844.025	22831
844.162	22717
844.298	22782
844.435	22755
844.571	22683
844.708	22786
844.844	22805
844.98	22854
845.117	22850
845.253	22653
845.389	22386
845.525	22596
845.661	22538
845.798	22390
845.934	22675
846.07	22375
846.206	22424
846.342	22546
846.478	22459
846.614	22310
846.75	22067
846.886	22261
847.022	22261
847.158	22204
847.294	22223
847.429	22154
847.565	22128
847.701	22329
847.837	21968
847.972	21808
848.108	21972
848.244	21964
848.379	21732
848.515	21743
848.65	21667
848.786	21819
848.921	21793
849.057	21835
849.192	21835
849.328	21812
849.463	21709
849.598	21713
849.734	21606
849.869	21553
850.004	21576
850.14	21599
850.275	21572
850.41	21492
850.545	21420
850.68	21466
850.815	21564
850.95	21458
851.085	21682
851.22	21663
851.355	21412
851.49	21603
851.625	21549
851.76	21507
851.895	21405
852.03	21447
852.165	21625
852.299	21424
852.434	21800
852.569	21523
852.703	21580
852.838	21637
852.973	21686
853.107	21690
853.242	21561
853.376	21435
853.511	21405
853.645	21355
853.78	21500
853.914	21412
854.048	21317
854.183	21230
854.317	21405
854.451	21614
854.585	21336
854.72	21260
854.854	21447
854.988	21298
855.122	21393
855.256	21283
855.39	21389
855.524	21466
855.658	21485
855.792	21382
855.926	21336
856.06	21393
856.194	21412
856.327	21329
856.461	21306
856.595	21272
856.729	21283
856.862	21412
856.996	21321
857.13	21450
857.263	21526
857.397	21431
857.53	21408
857.664	21439
857.797	21439
857.931	21428
858.064	21389
858.197	21462
858.331	21367
858.464	21329
858.597	21279
858.731	21428
858.864	21378
858.997	21329
859.13	21340
859.263	21412
859.396	21492
859.529	21332
859.662	21294
859.795	21222
859.928	21378
860.061	21618
860.194	21458
860.327	21378
860.46	21348
860.592	21492
860.725	21401
860.858	21397
860.99	21291
861.123	21256
861.256	21249
861.388	21416
861.521	21880
861.653	21165
861.786	21085
861.918	21180
862.05	21188
862.183	21306
862.315	21481
862.447	21336
862.58	21294
862.712	21135
862.844	21062
862.976	21173
863.108	21192
863.24	21557
863.372	21020
863.504	21005
863.636	21066
863.768	21207
863.9	21161
864.032	20979
864.164	21013
864.296	21089
864.428	21195
864.559	21020
864.691	21188
864.823	21036
864.954	21131
865.086	21066
865.217	21028
865.349	20941
865.48	21001
865.612	21074
865.743	21188
865.875	21013
866.006	20880
866.137	20967
866.269	20956
866.4	20910
866.531	20861
866.662	20929
866.793	20906
866.924	20883
867.055	20872
867.186	20872
867.317	20876
867.448	20788
867.579	20849
867.71	20750
867.841	20849
867.972	20914
868.103	20868
868.233	20868
868.364	20963
868.495	20971
868.625	21214
868.756	21161
868.886	20948
869.017	21135
869.147	21195
869.278	21184
869.408	21169
869.539	21165
869.669	21195
869.799	21195
869.929	21256
870.06	21230
870.19	21439
870.32	21454
870.45	21492
870.58	21587
870.71	21652
870.84	21511
870.97	21492
871.1	21557
871.23	21656
871.36	21690
871.489	21698
871.619	21690
871.749	21675
871.879	21804
872.008	21804
872.138	21720
872.267	21732
872.397	21622
872.526	21576
872.656	21572
872.785	21580
872.915	21751
873.044	21800
873.173	21766
873.303	21739
873.432	21838
873.561	21857
873.69	21713
873.819	21804
873.948	21766
874.077	21911
874.206	21728
874.335	21728
874.464	21823
874.593	22070
874.722	21960
874.851	22090
874.979	22025
875.108	22059
875.237	22063
875.365	21884
875.494	21956
875.623	22086
875.751	22063
875.88	22029
876.008	22029
876.136	22207
876.265	22356
876.393	22424
876.521	22390
876.65	22382
876.778	22329
876.906	22223
877.034	22268
877.162	22329
877.29	22325
877.418	22325
877.546	22447
877.674	22432
877.802	22284
877.93	22356
878.058	22386
878.185	22086
878.313	22261
878.441	22280
878.568	22158
878.696	22356
878.824	22436
878.951	22333
879.079	22432
879.206	22607
879.333	22409
879.461	22268
879.588	22443
879.715	22546
879.842	22565
879.97	22268
880.097	22181
880.224	22135
880.351	22177
880.478	22150
880.605	22162
880.732	22169
880.859	22329
880.986	22040
881.112	22150
881.239	22032
881.366	21918
881.493	21637
881.619	21717
881.746	21827
881.872	21690
881.999	21652
882.125	21660
882.252	21713
882.378	21804
882.505	21778
882.631	21591
882.757	21397
882.883	21504
883.01	21405
883.136	21389
883.262	21317
883.388	21241
883.514	21355
883.64	21412
883.766	21287
883.892	21272
884.018	21192
884.143	21408
884.269	21485
884.395	21138
884.52	21047
884.646	21119
884.772	20990
884.897	20990
885.023	21154
885.148	21211
885.274	21211
885.399	21135
885.524	21089
885.65	21051
885.775	21058
885.9	21081
886.025	21096
886.15	21074
886.275	20975
886.4	21005
886.525	20975
886.65	21001
886.775	20910
886.9	21157
887.025	21306
887.149	21013
887.274	20746
887.399	20864
887.523	20773
887.648	20785
887.773	20804
887.897	20868
888.021	20941
888.146	20701
888.27	20952
888.395	20941
888.519	20868
888.643	20899
888.767	20963
888.891	20697
889.015	20552
889.139	20754
889.263	20507
889.387	20705
889.511	20777
889.635	20724
889.759	20632
889.883	20549
890.006	20659
890.13	20773
890.254	20526
890.377	20606
890.501	20286
890.624	20324
890.748	20488
890.871	20294
890.995	20298
891.118	20161
891.241	20183
891.364	20164
891.488	20317
891.611	20206
891.734	20103
891.857	20168
891.98	20259
892.103	20317
892.226	20119
892.349	20164
892.471	20092
892.594	20100
892.717	20062
892.839	20005
892.962	20092
893.085	20191
893.207	20081
893.33	20077
893.452	19997
893.575	20176
893.697	20176
893.819	20183
893.941	20404
894.064	20229
894.186	20069
894.308	19978
894.43	20183
894.552	20168
894.674	20130
894.796	20046
894.918	20077
895.04	20073
895.161	20206
895.283	20103
895.405	20069
895.526	20073
895.648	19997
895.769	20187
895.891	20107
896.012	20157
896.134	20069
896.255	20088
896.376	20122
896.498	20039
896.619	20153
896.74	20126
896.861	20100
896.982	20332
897.103	20549
897.224	20324
897.345	20324
897.466	20248
897.587	20358
897.708	20457
897.828	20358
897.949	20214
898.07	20221
898.19	20259
898.311	20301
898.431	20309
898.552	20237
898.672	20408
898.792	20381
898.913	20339
899.033	20366
899.153	20157
899.273	20096
899.393	20043
899.513	20020
899.633	20081
899.753	20035
899.873	19944
899.993	20065
900.113	19902
900.232	20039
900.352	20157
900.472	19932
900.591	19765
900.711	19856
900.83	19807
900.95	19906
901.069	19890
901.189	19700
901.308	19651
901.427	19441
901.546	19415
901.665	19483
901.784	19362
901.904	19308
902.023	19244
902.141	19050
902.26	19012
902.379	19095
902.498	18947
902.617	18833
902.735	18993
902.854	18989
902.973	18741
903.091	18692
903.21	18627
903.328	18593
903.446	18498
903.565	18486
903.683	18388
903.801	18338
903.919	18281
904.038	18403
904.156	18289
904.274	18258
904.392	18098
904.51	18201
904.627	18190
904.745	18220
904.863	18133
904.981	18038
905.098	17760
905.216	17851
905.334	17927
905.451	17965
905.569	17855
905.686	17904
905.803	17863
905.921	17729
906.038	17733
906.155	17672
906.272	17535
906.389	17497
906.506	17322
906.623	17402
906.74	17345
906.857	17280
906.974	17212
907.091	17402
907.208	17478
907.324	17452
907.441	17303
907.557	17033
907.674	17212
907.79	17109
907.907	17075
908.023	17060
908.139	17147
908.256	17109
908.372	17056
908.488	16999
908.604	16904
908.72	16790
908.836	16835
908.952	16759
909.068	16805
909.184	16877
909.3	16755
909.415	16759
909.531	16767
909.647	16580
909.762	16500
909.878	16538
909.993	16599
910.108	16447
910.224	16443
910.339	16489
910.454	16341
910.57	16379
910.685	16276
910.8	16656
910.915	16516
911.03	16421
911.145	16242
911.259	16200
911.374	16223
911.489	16044
911.604	16051
911.718	15880
911.833	15922
911.947	15808
912.062	15675
912.176	15937
912.291	15956
912.405	15831
912.519	16067
912.633	16040
912.748	15895
912.862	15781
912.976	15838
913.09	15485
913.204	15587
913.318	15732
913.431	15759
913.545	15793
913.659	15831
913.772	15576
913.886	15462
914	15507
914.113	15629
914.226	15637
914.34	15545
914.453	15439
914.566	15564
914.68	15359
914.793	15412
914.906	15233
915.019	15203
915.132	15127
915.245	15108
915.358	15013
915.47	15032
915.583	15169
915.696	15245
915.809	15211
915.921	15119
916.034	14929
916.146	15017
916.259	15047
916.371	15066
916.483	15058
916.595	14914
916.708	14952
916.82	14921
916.932	14906
917.044	14975
917.156	14769
917.268	14705
917.38	14804
917.491	14678
917.603	14720
917.715	14819
917.826	14845
917.938	14788
918.049	14484
918.161	14796
918.272	14739
918.384	14811
918.495	14655
918.606	14556
918.717	14419
918.828	14587
918.939	14522
919.05	14358
919.161	14507
919.272	14221
919.383	14362
919.494	14644
919.604	14781
919.715	14518
919.826	14446
919.936	14484
920.047	14537
920.157	14423
920.267	14720
920.378	14499
920.488	14286
920.598	14667
920.708	14815
920.818	14678
920.928	14526
921.038	14743
921.148	14750
921.258	14446
921.368	14332
921.477	14282
921.587	14229
921.697	14043
921.806	14176
921.916	14088
922.025	13913
922.134	13940
922.244	13837
922.353	13864
922.462	13784
922.571	13685
922.68	13590
922.789	13548
922.898	13594
923.007	13457
923.116	13502
923.224	13491
923.333	13480
923.442	13354
923.55	13362
923.659	13362
923.767	13369
923.876	13259
923.984	13312
924.092	13187
924.201	13240
924.309	13335
924.417	13240
924.525	13217
924.633	13232
924.741	13932
924.849	13065
924.956	13091
925.064	12886
925.172	12993
925.279	12916
925.387	12947
925.494	12848
925.602	13072
925.709	13038
925.816	12825
925.924	12806
926.031	12882
926.138	12863
926.245	13012
926.352	12753
926.459	12859
926.566	12924
926.673	12753
926.779	12722
926.886	12677
926.993	12589
927.099	12467
927.206	12410
927.312	12483
927.419	12506
927.525	12418
927.631	12475
927.737	12395
927.843	12342
927.95	12163
928.056	12304
928.162	12357
928.267	12350
928.373	12977
928.479	12357
928.585	12220
928.69	12224
928.796	12296
928.901	12159
929.007	11946
929.112	12201
929.218	12144
929.323	11992
929.428	12053
929.533	12190
929.638	11988
929.743	11885
929.848	12053
929.953	12019
930.058	11851
930.163	11703
930.267	11733
930.372	11904
930.477	11676
930.581	11920
930.685	11779
930.79	11661
930.894	11710
930.998	11592
931.103	11703
931.207	11421
931.311	11265
931.415	11242
931.519	11094
931.623	10995
