Data from test_V78500241_1003.txt Node
Date: Fri Mar 25 15:48:44 CST 2022
User: usil
Spectrometer: V785-0024
Trigger mode: 0
Integration Time (sec): 4.000000E-1
Scans to average: 1
Nonlinearity correction enabled: false
Boxcar width: 0
Storing dark spectrum: false
XAxis mode: Wavelengths
Number of Pixels in Spectrum: 1024
>>>>>Begin Spectral Data<<<<<
801.071	28455
801.214	28299
801.356	28200
801.499	27941
801.641	27880
801.783	27880
801.926	27994
802.068	28051
802.211	27804
802.353	27724
802.496	27694
802.638	27610
802.78	27485
802.923	27530
803.065	27603
803.208	27526
803.35	27580
803.492	27576
803.635	27831
803.777	27724
803.919	27717
804.061	28070
804.204	27945
804.346	27816
804.488	27751
804.63	27804
804.773	27751
804.915	27698
805.057	27903
805.199	27785
805.341	27930
805.483	28238
805.626	27979
805.768	27926
805.91	27934
806.052	27884
806.194	27857
806.336	28063
806.478	28013
806.62	27972
806.762	27994
806.904	28173
807.046	28615
807.188	28356
807.33	28348
807.472	28584
807.614	28386
807.756	28398
807.898	28318
808.04	28211
808.182	28223
808.324	28242
808.465	28329
808.607	28470
808.749	28622
808.891	28759
809.033	28923
809.174	28733
809.316	28519
809.458	28672
809.6	28554
809.741	28694
809.883	28767
810.025	28888
810.166	28873
810.308	28927
810.45	28850
810.591	28972
810.733	28656
810.875	28535
811.016	28599
811.158	28630
811.299	28824
811.441	28915
811.582	28839
811.724	28733
811.865	28577
812.007	28630
812.148	28805
812.29	28691
812.431	28888
812.573	28938
812.714	29117
812.855	29330
812.997	29261
813.138	29474
813.279	29170
813.421	29326
813.562	29143
813.703	29147
813.845	28786
813.986	28634
814.127	28603
814.268	28375
814.41	28497
814.551	28306
814.692	28401
814.833	28314
814.974	28363
815.115	28451
815.256	28249
815.397	28303
815.539	28265
815.68	28185
815.821	28246
815.962	28268
816.103	28048
816.244	27945
816.385	27987
816.526	28029
816.666	27793
816.807	27709
816.948	27755
817.089	27865
817.23	27728
817.371	27648
817.512	27625
817.653	27705
817.793	27591
817.934	27698
818.075	27732
818.216	27648
818.356	27648
818.497	27587
818.638	27386
818.778	27473
818.919	27340
819.06	27523
819.2	27610
819.341	27641
819.481	27823
819.622	27724
819.762	28109
819.903	27964
820.043	27964
820.184	27861
820.324	27759
820.465	27911
820.605	27781
820.746	27793
820.886	27656
821.026	27793
821.167	27774
821.307	27728
821.447	27778
821.588	27580
821.728	27530
821.868	27389
822.008	27180
822.149	27157
822.289	27146
822.429	26868
822.569	26891
822.709	26754
822.849	26606
822.99	26590
823.13	26655
823.27	26640
823.41	26503
823.55	26434
823.69	26480
823.83	26499
823.97	26541
824.11	26427
824.25	26320
824.389	26301
824.529	26408
824.669	26465
824.809	26320
824.949	26476
825.089	26400
825.228	26355
825.368	26153
825.508	26142
825.648	26058
825.787	26244
825.927	26294
826.067	26138
826.206	26024
826.346	26263
826.485	26271
826.625	26214
826.765	26381
826.904	26164
827.044	26012
827.183	26043
827.323	25944
827.462	25951
827.601	25940
827.741	25864
827.88	26020
828.02	25963
828.159	25826
828.298	25909
828.437	25906
828.577	25837
828.716	26027
828.855	25826
828.994	25632
829.134	25567
829.273	25731
829.412	25540
829.551	25616
829.69	25613
829.829	25537
829.968	25681
830.107	25666
830.246	25590
830.385	25567
830.524	25635
830.663	25381
830.802	25381
830.941	25168
831.08	25187
831.219	25362
831.357	25438
831.496	25346
831.635	25251
831.774	25072
831.913	25088
832.051	25126
832.19	25042
832.329	24909
832.467	24958
832.606	24768
832.744	24764
832.883	24776
833.022	24791
833.16	24901
833.299	24863
833.437	24878
833.576	24973
833.714	24973
833.852	25091
833.991	24954
834.129	24977
834.267	24996
834.406	24958
834.544	24954
834.682	24909
834.821	24939
834.959	25091
835.097	24878
835.235	24943
835.373	24924
835.511	24932
835.65	24700
835.788	24795
835.926	24578
836.064	24593
836.202	24479
836.34	24696
836.478	24909
836.615	24760
836.753	24768
836.891	24772
837.029	24635
837.167	24719
837.305	24730
837.443	24661
837.58	24658
837.718	24753
837.856	24604
837.993	24502
838.131	24646
838.269	24429
838.406	24441
838.544	24414
838.681	24315
838.819	24262
838.956	24015
839.094	24144
839.231	24163
839.369	24266
839.506	24460
839.643	24330
839.781	24018
839.918	24125
840.055	24087
840.193	23996
840.33	23973
840.467	24045
840.604	24030
840.742	24205
840.879	23805
841.016	24022
841.153	23889
841.29	24049
841.427	24015
841.564	23916
841.701	23954
841.838	23973
841.975	23802
842.112	23965
842.249	23824
842.385	23821
842.522	23954
842.659	23699
842.796	23653
842.933	23760
843.069	23615
843.206	23672
843.343	23786
843.479	23684
843.616	23691
843.752	23429
843.889	23539
844.025	23596
844.162	23497
844.298	23699
844.435	23353
844.571	23425
844.708	23493
844.844	23611
844.98	23687
845.117	23676
845.253	23425
845.389	23353
845.525	23512
845.661	23353
845.798	23246
845.934	23326
846.07	23227
846.206	23261
846.342	23254
846.478	23197
846.614	22995
846.75	22869
846.886	22923
847.022	23155
847.158	22850
847.294	22900
847.429	22987
847.565	22885
847.701	23223
847.837	22683
847.972	22702
848.108	22763
848.244	22801
848.379	22588
848.515	22664
848.65	22409
848.786	22694
848.921	22554
849.057	22675
849.192	22645
849.328	22603
849.463	22542
849.598	22474
849.734	22436
849.869	22379
850.004	22280
850.14	22314
850.275	22306
850.41	22291
850.545	22284
850.68	22158
850.815	22310
850.95	22314
851.085	22554
851.22	22386
851.355	22405
851.49	22367
851.625	22272
851.76	22325
851.895	22356
852.03	22390
852.165	22276
852.299	22325
852.434	22318
852.569	22409
852.703	22310
852.838	22398
852.973	22428
853.107	22390
853.242	22166
853.376	22128
853.511	22070
853.645	22048
853.78	22196
853.914	22238
854.048	22204
854.183	22090
854.317	22177
854.451	22306
854.585	22082
854.72	22090
854.854	22268
854.988	22025
855.122	22143
855.256	22067
855.39	22147
855.524	22253
855.658	22211
855.792	22188
855.926	22192
856.06	22162
856.194	22242
856.327	22139
856.461	22143
856.595	22040
856.729	22204
856.862	22295
856.996	22268
857.13	22257
857.263	22249
857.397	22276
857.53	22234
857.664	22128
857.797	22230
857.931	22303
858.064	22177
858.197	22341
858.331	22215
858.464	22101
858.597	22055
858.731	22074
858.864	22192
858.997	22112
859.13	22230
859.263	22169
859.396	22299
859.529	22196
859.662	22139
859.795	22131
859.928	22158
860.061	22253
860.194	22344
860.327	22211
860.46	22147
860.592	22295
860.725	22295
860.858	22211
860.99	22211
861.123	22029
861.256	22013
861.388	22196
861.521	22946
861.653	22010
861.786	21926
861.918	22017
862.05	22017
862.183	22048
862.315	22025
862.447	22154
862.58	22105
862.712	21854
862.844	21842
862.976	21850
863.108	22032
863.24	22211
863.372	21629
863.504	21895
863.636	21854
863.768	21861
863.9	21930
864.032	21835
864.164	21831
864.296	21808
864.428	21960
864.559	21930
864.691	21907
864.823	21819
864.954	21865
865.086	21895
865.217	21838
865.349	21705
865.48	21728
865.612	21819
865.743	21857
865.875	21759
866.006	21625
866.137	21766
866.269	21728
866.4	21739
866.531	21526
866.662	21660
866.793	21652
866.924	21641
867.055	21770
867.186	21762
867.317	21583
867.448	21488
867.579	21614
867.71	21580
867.841	21557
867.972	21564
868.103	21694
868.233	21663
868.364	21603
868.495	21819
868.625	21869
868.756	22013
868.886	21918
869.017	21911
869.147	22078
869.278	22120
869.408	21949
869.539	21884
869.669	21918
869.799	21846
869.929	22074
870.06	21968
870.19	22238
870.32	22185
870.45	22284
870.58	22265
870.71	22451
870.84	22333
870.97	22329
871.1	22242
871.23	22424
871.36	22485
871.489	22287
871.619	22451
871.749	22470
871.879	22466
872.008	22474
872.138	22451
872.267	22500
872.397	22440
872.526	22485
872.656	22352
872.785	22432
872.915	22398
873.044	22531
873.173	22527
873.303	22546
873.432	22641
873.561	22580
873.69	22466
873.819	22474
873.948	22611
874.077	22504
874.206	22470
874.335	22531
874.464	22580
874.593	22736
874.722	22767
874.851	22679
874.979	22694
875.108	22892
875.237	22653
875.365	22538
875.494	22793
875.623	22885
875.751	22778
875.88	22759
876.008	22839
876.136	22980
876.265	23098
876.393	23162
876.521	23128
876.65	23189
876.778	23094
876.906	23067
877.034	23094
877.162	23048
877.29	23071
877.418	22991
877.546	23132
877.674	23151
877.802	23067
877.93	23075
878.058	23033
878.185	22862
878.313	23098
878.441	22995
878.568	22911
878.696	22991
878.824	23083
878.951	23121
879.079	23185
879.206	23280
879.333	23254
879.461	23178
879.588	23094
879.715	23208
879.842	23349
879.97	23022
880.097	22908
880.224	22946
880.351	22835
880.478	22915
880.605	22896
880.732	23010
880.859	23117
880.986	22938
881.112	22953
881.239	22748
881.366	22649
881.493	22592
881.619	22462
881.746	22478
881.872	22470
881.999	22455
882.125	22371
882.252	22356
882.378	22500
882.505	22481
882.631	22162
882.757	22284
882.883	22295
883.01	22158
883.136	22044
883.262	21983
883.388	21873
883.514	22188
883.64	22204
883.766	21987
883.892	21895
884.018	21964
884.143	22082
884.269	22154
884.395	21956
884.52	21804
884.646	21804
884.772	21732
884.897	21682
885.023	21812
885.148	21903
885.274	21915
885.399	21842
885.524	21747
885.65	21804
885.775	21827
885.9	21831
886.025	21880
886.15	21907
886.275	21759
886.4	21846
886.525	21701
886.65	21652
886.775	21698
886.9	21880
887.025	22010
887.149	21797
887.274	21553
887.399	21625
887.523	21580
887.648	21618
887.773	21447
887.897	21561
888.021	21557
888.146	21538
888.27	21614
888.395	21625
888.519	21496
888.643	21618
888.767	21671
888.891	21515
889.015	21294
889.139	21370
889.263	21313
889.387	21348
889.511	21443
889.635	21389
889.759	21275
889.883	21348
890.006	21348
890.13	21359
890.254	21340
890.377	21211
890.501	21100
890.624	21074
890.748	20998
890.871	20948
890.995	20853
891.118	20739
891.241	20975
891.364	20944
891.488	21028
891.611	20929
891.734	20849
891.857	20933
891.98	20823
892.103	21001
892.226	20864
892.349	20819
892.471	20651
892.594	20853
892.717	20902
892.839	20830
892.962	20777
893.085	20861
893.207	20727
893.33	20815
893.452	20689
893.575	20788
893.697	20682
893.819	20963
893.941	20929
894.064	20921
894.186	20682
894.308	20697
894.43	20880
894.552	20921
894.674	20834
894.796	20670
894.918	20781
895.04	20785
895.161	20895
895.283	20758
895.405	20689
895.526	20834
895.648	20674
895.769	20823
895.891	20785
896.012	20906
896.134	20849
896.255	20716
896.376	20762
896.498	20781
896.619	20815
896.74	20617
896.861	20849
896.982	21058
897.103	21214
897.224	21058
897.345	21001
897.466	20891
897.587	20994
897.708	21192
897.828	20834
897.949	20842
898.07	20815
898.19	20872
898.311	21009
898.431	20937
898.552	20971
898.672	20998
898.792	21036
898.913	20998
899.033	20891
899.153	20788
899.273	20606
899.393	20724
899.513	20727
899.633	20739
899.753	20705
899.873	20606
899.993	20716
900.113	20686
900.232	20655
900.352	20678
900.472	20571
900.591	20457
900.711	20590
900.83	20370
900.95	20522
901.069	20625
901.189	20336
901.308	20103
901.427	19989
901.546	20115
901.665	19951
901.784	20043
901.904	19917
902.023	19856
902.141	19795
902.26	19647
902.379	19643
902.498	19567
902.617	19582
902.735	19727
902.854	19453
902.973	19400
903.091	19358
903.21	19331
903.328	19259
903.446	19118
903.565	19069
903.683	18954
903.801	18802
903.919	18951
904.038	19084
904.156	18779
904.274	18863
904.392	18787
904.51	18776
904.627	18745
904.745	18886
904.863	18844
904.981	18570
905.098	18422
905.216	18555
905.334	18467
905.451	18433
905.569	18498
905.686	18513
905.803	18452
905.921	18285
906.038	18300
906.155	18163
906.272	18110
906.389	18011
906.506	17969
906.623	17958
906.74	17923
906.857	17779
906.974	17889
907.091	18019
907.208	18079
907.324	18034
907.441	17874
907.557	17748
907.674	17687
907.79	17653
907.907	17703
908.023	17657
908.139	17817
908.256	17570
908.372	17634
908.488	17471
908.604	17433
908.72	17376
908.836	17406
908.952	17398
909.068	17410
909.184	17501
909.3	17322
909.415	17414
909.531	17421
909.647	17105
909.762	17048
909.878	17075
909.993	17105
910.108	17136
910.224	17140
910.339	16976
910.454	17045
910.57	16885
910.685	16885
910.8	17105
910.915	16953
911.03	16877
911.145	16767
911.259	16634
911.374	16615
911.489	16607
911.604	16500
911.718	16451
911.833	16432
911.947	16375
912.062	16253
912.176	16466
912.291	16466
912.405	16512
912.519	16599
912.633	16679
912.748	16440
912.862	16402
912.976	16310
913.09	16128
913.204	16226
913.318	16230
913.431	16379
913.545	16310
913.659	16367
913.772	16242
913.886	16025
914	15960
914.113	16036
914.226	16215
914.34	16169
914.453	15880
914.566	16017
914.68	15888
914.793	15865
914.906	15720
915.019	15610
915.132	15523
915.245	15526
915.358	15660
915.47	15701
915.583	15618
915.696	15629
915.809	15762
915.921	15694
916.034	15595
916.146	15507
916.259	15496
916.371	15614
916.483	15599
916.595	15545
916.708	15397
916.82	15447
916.932	15401
917.044	15325
917.156	15363
917.268	15252
917.38	15272
917.491	15207
917.603	15275
917.715	15245
917.826	15275
917.938	15161
918.049	15077
918.161	15291
918.272	15401
918.384	15268
918.495	15207
918.606	15013
918.717	14975
918.828	15077
918.939	15161
919.05	14956
919.161	15005
919.272	14781
919.383	14883
919.494	15009
919.604	15161
919.715	15047
919.826	14853
919.936	14876
920.047	14986
920.157	14902
920.267	15195
920.378	14990
920.488	14891
920.598	15108
920.708	15336
920.818	14998
920.928	15180
921.038	15279
921.148	15165
921.258	14948
921.368	14842
921.477	14716
921.587	14648
921.697	14564
921.806	14644
921.916	14469
922.025	14412
922.134	14298
922.244	14267
922.353	14343
922.462	14210
922.571	14138
922.68	14077
922.789	13879
922.898	13967
923.007	13795
923.116	13921
923.224	13913
923.333	13936
923.442	13818
923.55	13845
923.659	13799
923.767	13742
923.876	13700
923.984	13814
924.092	13685
924.201	13700
924.309	13761
924.417	13685
924.525	13636
924.633	13624
924.741	14530
924.849	13422
924.956	13643
925.064	13354
925.172	13278
925.279	13278
925.387	13445
925.494	13312
925.602	13426
925.709	13453
925.816	13274
925.924	13282
926.031	13301
926.138	13297
926.245	13369
926.352	13282
926.459	13316
926.566	13232
926.673	13247
926.779	13152
926.886	13156
926.993	12989
927.099	12981
927.206	12913
927.312	12856
927.419	12996
927.525	12890
927.631	12947
927.737	12730
927.843	12760
927.95	12608
928.056	12673
928.162	12707
928.267	12783
928.373	13266
928.479	12757
928.585	12521
928.69	12646
928.796	12688
928.901	12582
929.007	12486
929.112	12559
929.218	12563
929.323	12490
929.428	12475
929.533	12490
929.638	12429
929.743	12433
929.848	12372
929.953	12369
930.058	12281
930.163	12182
930.267	12182
930.372	12281
930.477	12117
930.581	12464
930.685	12148
930.79	12053
930.894	12068
930.998	11946
931.103	12106
931.207	11695
931.311	11710
931.415	11516
931.519	11448
931.623	11406
