Data from test_V78500241_3248.txt Node
Date: Fri Mar 25 16:04:18 CST 2022
User: usil
Spectrometer: V785-0024
Trigger mode: 0
Integration Time (sec): 4.000000E-1
Scans to average: 1
Nonlinearity correction enabled: false
Boxcar width: 0
Storing dark spectrum: false
XAxis mode: Wavelengths
Number of Pixels in Spectrum: 1024
>>>>>Begin Spectral Data<<<<<
801.071	29025
801.214	28873
801.356	28717
801.499	28584
801.641	28516
801.783	28588
801.926	28615
802.068	28470
802.211	28504
802.353	28367
802.496	28333
802.638	28234
802.78	28135
802.923	28223
803.065	28181
803.208	28055
803.35	28169
803.492	28386
803.635	28440
803.777	28261
803.919	28390
804.061	28866
804.204	28367
804.346	28379
804.488	28192
804.63	28409
804.773	28291
804.915	28580
805.057	28554
805.199	28379
805.341	28504
805.483	28713
805.626	28462
805.768	28500
805.91	28599
806.052	28504
806.194	28569
806.336	28892
806.478	28569
806.62	28565
806.762	28694
806.904	28927
807.046	29121
807.188	29083
807.33	29048
807.472	29052
807.614	29109
807.756	29109
807.898	28923
808.04	28835
808.182	28934
808.324	28953
808.465	29048
808.607	29147
808.749	29360
808.891	29379
809.033	29444
809.174	29360
809.316	29372
809.458	29337
809.6	29288
809.741	29326
809.883	29501
810.025	29577
810.166	29646
810.308	29581
810.45	29547
810.591	29703
810.733	29307
810.875	29349
811.016	29299
811.158	29197
811.299	29467
811.441	29490
811.582	29539
811.724	29334
811.865	29364
812.007	29254
812.148	29254
812.29	29383
812.431	29535
812.573	29589
812.714	29809
812.855	29866
812.997	30076
813.138	29927
813.279	29828
813.421	29935
813.562	29813
813.703	29638
813.845	29551
813.986	29246
814.127	28995
814.268	29086
814.41	29033
814.551	29041
814.692	29079
814.833	29010
814.974	29105
815.115	29033
815.256	28904
815.397	28873
815.539	29014
815.68	28771
815.821	28767
815.962	28900
816.103	28790
816.244	28683
816.385	28816
816.526	28790
816.666	28459
816.807	28318
816.948	28489
817.089	28504
817.23	28428
817.371	28394
817.512	28287
817.653	28405
817.793	28139
817.934	28417
818.075	28417
818.216	28333
818.356	28352
818.497	28219
818.638	27941
818.778	27998
818.919	28086
819.06	28314
819.2	28344
819.341	28432
819.481	28401
819.622	28603
819.762	28683
819.903	28675
820.043	28607
820.184	28565
820.324	28382
820.465	28649
820.605	28508
820.746	28516
820.886	28303
821.026	28379
821.167	28584
821.307	28481
821.447	28421
821.588	28287
821.728	28284
821.868	28112
822.008	27880
822.149	27941
822.289	27850
822.429	27526
822.569	27458
822.709	27507
822.849	27287
822.99	27511
823.13	27386
823.27	27443
823.41	27150
823.55	27077
823.69	27161
823.83	27165
823.97	27218
824.11	27112
824.25	26952
824.389	27009
824.529	27066
824.669	27146
824.809	27127
824.949	27062
825.089	27146
825.228	27058
825.368	26861
825.508	26876
825.648	26914
825.787	26986
825.927	27005
826.067	26811
826.206	26929
826.346	26979
826.485	26914
826.625	26891
826.765	27039
826.904	26895
827.044	26670
827.183	26609
827.323	26606
827.462	26678
827.601	26583
827.741	26522
827.88	26746
828.02	26476
828.159	26644
828.298	26583
828.437	26800
828.577	26480
828.716	26617
828.855	26568
828.994	26248
829.134	26278
829.273	26457
829.412	26309
829.551	26240
829.69	26278
829.829	26244
829.968	26377
830.107	26309
830.246	26244
830.385	26172
830.524	26107
830.663	26119
830.802	26161
830.941	25936
831.08	25803
831.219	25989
831.357	25887
831.496	26138
831.635	25928
831.774	25849
831.913	25807
832.051	25628
832.19	25784
832.329	25731
832.467	25552
832.606	25556
832.744	25441
832.883	25556
833.022	25571
833.16	25575
833.299	25495
833.437	25586
833.576	25559
833.714	25708
833.852	25674
833.991	25582
834.129	25818
834.267	25807
834.406	25548
834.544	25700
834.682	25628
834.821	25556
834.959	25822
835.097	25620
835.235	25639
835.373	25605
835.511	25613
835.65	25495
835.788	25438
835.926	25396
836.064	25434
836.202	25289
836.34	25495
836.478	25506
836.615	25358
836.753	25571
836.891	25495
837.029	25502
837.167	25495
837.305	25415
837.443	25297
837.58	25415
837.718	25415
837.856	25373
837.993	25331
838.131	25365
838.269	25168
838.406	25240
838.544	25148
838.681	25065
838.819	24844
838.956	24700
839.094	24684
839.231	24798
839.369	25012
839.506	25152
839.643	25023
839.781	24627
839.918	24734
840.055	24688
840.193	24734
840.33	24658
840.467	24623
840.604	24692
840.742	25038
840.879	24437
841.016	24703
841.153	24483
841.29	24798
841.427	24635
841.564	24776
841.701	24551
841.838	24608
841.975	24677
842.112	24422
842.249	24551
842.385	24464
842.522	24730
842.659	24494
842.796	24407
842.933	24509
843.069	24407
843.206	24384
843.343	24410
843.479	24403
843.616	24346
843.752	24152
843.889	24213
844.025	24338
844.162	24228
844.298	24308
844.435	24155
844.571	24064
844.708	24296
844.844	24422
844.98	24330
845.117	24186
845.253	24159
845.389	24022
845.525	24110
845.661	23912
845.798	23866
845.934	24076
846.07	24030
846.206	23817
846.342	23965
846.478	23946
846.614	23615
846.75	23630
846.886	23638
847.022	23748
847.158	23687
847.294	23649
847.429	23676
847.565	23554
847.701	23752
847.837	23356
847.972	23421
848.108	23436
848.244	23414
848.379	23273
848.515	23200
848.65	23067
848.786	23185
848.921	23311
849.057	23299
849.192	23395
849.328	23121
849.463	23254
849.598	23128
849.734	23109
849.869	23067
850.004	22961
850.14	22991
850.275	23105
850.41	22900
850.545	23029
850.68	22984
850.815	22946
850.95	22968
851.085	23098
851.22	23162
851.355	23098
851.49	22987
851.625	23052
851.76	23029
851.895	22805
852.03	22736
852.165	23025
852.299	23014
852.434	23052
852.569	23071
852.703	23044
852.838	22930
852.973	23109
853.107	23029
853.242	22900
853.376	22953
853.511	22767
853.645	22820
853.78	22946
853.914	22869
854.048	22767
854.183	22839
854.317	22946
854.451	23029
854.585	22748
854.72	22793
854.854	22843
854.988	22733
855.122	22812
855.256	22831
855.39	22752
855.524	22873
855.658	22805
855.792	22812
855.926	22691
856.06	22828
856.194	22839
856.327	22797
856.461	22694
856.595	22706
856.729	22706
856.862	22991
856.996	22713
857.13	22911
857.263	22793
857.397	22904
857.53	22733
857.664	22919
857.797	22778
857.931	22771
858.064	22957
858.197	22961
858.331	22790
858.464	22698
858.597	22774
858.731	22892
858.864	22630
858.997	22828
859.13	22755
859.263	22694
859.396	22797
859.529	22786
859.662	22683
859.795	22809
859.928	22843
860.061	22908
860.194	23018
860.327	22790
860.46	22919
860.592	22919
860.725	23003
860.858	22949
860.99	22908
861.123	22736
861.256	22641
861.388	22953
861.521	23471
861.653	22607
861.786	22626
861.918	22675
862.05	22626
862.183	22672
862.315	22767
862.447	22816
862.58	22759
862.712	22516
862.844	22500
862.976	22565
863.108	22573
863.24	22934
863.372	22363
863.504	22531
863.636	22569
863.768	22516
863.9	22565
864.032	22466
864.164	22459
864.296	22561
864.428	22497
864.559	22516
864.691	22596
864.823	22523
864.954	22421
865.086	22402
865.217	22440
865.349	22238
865.48	22375
865.612	22314
865.743	22573
865.875	22417
866.006	22379
866.137	22500
866.269	22478
866.4	22470
866.531	22363
866.662	22306
866.793	22341
866.924	22246
867.055	22299
867.186	22390
867.317	22291
867.448	22246
867.579	22261
867.71	22253
867.841	22249
867.972	22265
868.103	22238
868.233	22284
868.364	22200
868.495	22268
868.625	22538
868.756	22733
868.886	22519
869.017	22554
869.147	22588
869.278	22675
869.408	22599
869.539	22516
869.669	22634
869.799	22508
869.929	22740
870.06	22653
870.19	22763
870.32	22919
870.45	22873
870.58	22976
870.71	23117
870.84	23029
870.97	22911
871.1	22873
871.23	23105
871.36	23220
871.489	23185
871.619	23044
871.749	23105
871.879	23109
872.008	23269
872.138	23128
872.267	23162
872.397	23056
872.526	23041
872.656	22942
872.785	23018
872.915	23223
873.044	23288
873.173	23155
873.303	23261
873.432	23185
873.561	23193
873.69	23178
873.819	23193
873.948	23132
874.077	23208
874.206	23147
874.335	23239
874.464	23204
874.593	23284
874.722	23425
874.851	23490
874.979	23452
875.108	23520
875.237	23391
875.365	23292
875.494	23231
875.623	23459
875.751	23311
875.88	23284
876.008	23604
876.136	23680
876.265	23623
876.393	23927
876.521	23745
876.65	23832
876.778	23745
876.906	23707
877.034	23619
877.162	23646
877.29	23718
877.418	23707
877.546	23695
877.674	23695
877.802	23878
877.93	23710
878.058	23642
878.185	23653
878.313	23585
878.441	23627
878.568	23699
878.696	23752
878.824	23783
878.951	23676
879.079	23901
879.206	23965
879.333	23885
879.461	23722
879.588	23893
879.715	23893
879.842	23904
879.97	23790
880.097	23535
880.224	23497
880.351	23619
880.478	23547
880.605	23520
880.732	23520
880.859	23733
880.986	23535
881.112	23581
881.239	23303
881.366	23337
881.493	23223
881.619	23132
881.746	23239
881.872	23113
881.999	23029
882.125	23033
882.252	23094
882.378	23079
882.505	23113
882.631	22934
882.757	22805
882.883	22896
883.01	22767
883.136	22748
883.262	22698
883.388	22588
883.514	22763
883.64	22793
883.766	22736
883.892	22516
884.018	22386
884.143	22641
884.269	22729
884.395	22497
884.52	22394
884.646	22440
884.772	22344
884.897	22268
885.023	22363
885.148	22489
885.274	22615
885.399	22573
885.524	22409
885.65	22379
885.775	22455
885.9	22481
886.025	22451
886.15	22379
886.275	22337
886.4	22333
886.525	22386
886.65	22287
886.775	22341
886.9	22466
887.025	22459
887.149	22360
887.274	22078
887.399	22116
887.523	22192
887.648	22101
887.773	22067
887.897	22150
888.021	22032
888.146	22044
888.27	22173
888.395	22204
888.519	22215
888.643	22101
888.767	22162
888.891	22090
889.015	21953
889.139	21964
889.263	21876
889.387	21968
889.511	22090
889.635	22101
889.759	21934
889.883	21998
890.006	22036
890.13	22048
890.254	21861
890.377	21884
890.501	21743
890.624	21660
890.748	21747
890.871	21530
890.995	21447
891.118	21572
891.241	21477
891.364	21393
891.488	21614
891.611	21580
891.734	21591
891.857	21587
891.98	21526
892.103	21682
892.226	21466
892.349	21526
892.471	21294
892.594	21511
892.717	21332
892.839	21469
892.962	21424
893.085	21378
893.207	21329
893.33	21336
893.452	21291
893.575	21431
893.697	21447
893.819	21576
893.941	21466
894.064	21466
894.186	21325
894.308	21154
894.43	21500
894.552	21561
894.674	21401
894.796	21302
894.918	21321
895.04	21180
895.161	21386
895.283	21454
895.405	21348
895.526	21378
895.648	21272
895.769	21321
895.891	21393
896.012	21367
896.134	21382
896.255	21401
896.376	21317
896.498	21351
896.619	21386
896.74	21279
896.861	21332
896.982	21652
897.103	21812
897.224	21519
897.345	21492
897.466	21492
897.587	21644
897.708	21690
897.828	21504
897.949	21580
898.07	21344
898.19	21538
898.311	21675
898.431	21572
898.552	21553
898.672	21667
898.792	21564
898.913	21469
899.033	21367
899.153	21393
899.273	21211
899.393	21363
899.513	21363
899.633	21222
899.753	21237
899.873	21329
899.993	21325
900.113	21173
900.232	21165
900.352	21184
900.472	21112
900.591	21051
900.711	21161
900.83	20971
900.95	21176
901.069	21154
901.189	20982
901.308	20590
901.427	20568
901.546	20701
901.665	20552
901.784	20434
901.904	20454
902.023	20320
902.141	20214
902.26	20180
902.379	20161
902.498	20035
902.617	20142
902.735	20077
902.854	20020
902.973	20062
903.091	19715
903.21	19685
903.328	19727
903.446	19624
903.565	19556
903.683	19552
903.801	19453
903.919	19514
904.038	19457
904.156	19434
904.274	19369
904.392	19354
904.51	19244
904.627	19285
904.745	19343
904.863	19293
904.981	19027
905.098	18973
905.216	18848
905.334	19034
905.451	19015
905.569	18947
905.686	18966
905.803	18962
905.921	18787
906.038	18924
906.155	18795
906.272	18627
906.389	18692
906.506	18646
906.623	18422
906.74	18445
906.857	18243
906.974	18361
907.091	18589
907.208	18536
907.324	18483
907.441	18296
907.557	18395
907.674	18140
907.79	18064
907.907	18167
908.023	18251
908.139	18140
908.256	18144
908.372	18155
908.488	18015
908.604	17935
908.72	17775
908.836	17912
908.952	17920
909.068	17950
909.184	18019
909.3	17958
909.415	17885
909.531	17912
909.647	17642
909.762	17710
909.878	17532
909.993	17547
910.108	17592
910.224	17547
910.339	17433
910.454	17417
910.57	17376
910.685	17299
910.8	17573
910.915	17630
911.03	17410
911.145	17151
911.259	17181
911.374	17151
911.489	17086
911.604	17037
911.718	16843
911.833	16858
911.947	16763
912.062	16771
912.176	16908
912.291	16961
912.405	16885
912.519	17117
912.633	17037
912.748	16957
912.862	16831
912.976	16847
913.09	16683
913.204	16626
913.318	16729
913.431	16835
913.545	16835
913.659	16774
913.772	16626
913.886	16550
914	16497
914.113	16630
914.226	16546
914.34	16637
914.453	16417
914.566	16428
914.68	16367
914.793	16413
914.906	16226
915.019	16173
915.132	16032
915.245	16055
915.358	16025
915.47	16090
915.583	16109
915.696	16059
915.809	16093
915.921	16173
916.034	15934
916.146	16055
916.259	15983
916.371	15998
916.483	15945
916.595	15979
916.708	15892
916.82	15884
916.932	15770
917.044	15766
917.156	15728
917.268	15739
917.38	15762
917.491	15603
917.603	15751
917.715	15808
917.826	15667
917.938	15652
918.049	15580
918.161	15622
918.272	15736
918.384	15698
918.495	15542
918.606	15507
918.717	15382
918.828	15469
918.939	15515
919.05	15374
919.161	15408
919.272	15131
919.383	15192
919.494	15412
919.604	15572
919.715	15408
919.826	15222
919.936	15367
920.047	15485
920.157	15374
920.267	15618
920.378	15447
920.488	15321
920.598	15492
920.708	15618
920.818	15469
920.928	15545
921.038	15641
921.148	15599
921.258	15363
921.368	15256
921.477	15112
921.587	15062
921.697	14941
921.806	15097
921.916	14925
922.025	14857
922.134	14716
922.244	14746
922.353	14724
922.462	14610
922.571	14571
922.68	14393
922.789	14320
922.898	14385
923.007	14309
923.116	14332
923.224	14374
923.333	14294
923.442	14218
923.55	14187
923.659	14233
923.767	14256
923.876	14138
923.984	14225
924.092	14027
924.201	14092
924.309	14081
924.417	14065
924.525	13875
924.633	13940
924.741	14830
924.849	13765
924.956	13932
925.064	13791
925.172	13731
925.279	13772
925.387	13696
925.494	13738
925.602	13803
925.709	13712
925.816	13620
925.924	13753
926.031	13677
926.138	13636
926.245	13696
926.352	13548
926.459	13727
926.566	13632
926.673	13571
926.779	13445
926.886	13483
926.993	13312
927.099	13365
927.206	13278
927.312	13225
927.419	13308
927.525	13190
927.631	13190
927.737	13126
927.843	13190
927.95	13080
928.056	13015
928.162	13103
928.267	13046
928.373	13525
928.479	13160
928.585	12924
928.69	12970
928.796	13034
928.901	12970
929.007	12753
929.112	12882
929.218	12829
929.323	12722
929.428	12840
929.533	12871
929.638	12673
929.743	12738
929.848	12821
929.953	12745
930.058	12688
930.163	12502
930.267	12471
930.372	12471
930.477	12395
930.581	12757
930.685	12452
930.79	12357
930.894	12372
930.998	12296
931.103	12460
931.207	12159
931.311	12030
931.415	11927
931.519	11718
931.623	11688
