Data from test_V78500241_1689.txt Node
Date: Fri Mar 25 15:53:30 CST 2022
User: usil
Spectrometer: V785-0024
Trigger mode: 0
Integration Time (sec): 4.000000E-1
Scans to average: 1
Nonlinearity correction enabled: false
Boxcar width: 0
Storing dark spectrum: false
XAxis mode: Wavelengths
Number of Pixels in Spectrum: 1024
>>>>>Begin Spectral Data<<<<<
801.071	28322
801.214	28242
801.356	28021
801.499	27975
801.641	28070
801.783	27945
801.926	27956
802.068	27831
802.211	27850
802.353	27766
802.496	27576
802.638	27564
802.78	27488
802.923	27382
803.065	27420
803.208	27610
803.35	27557
803.492	27838
803.635	27816
803.777	27542
803.919	27770
804.061	28010
804.204	27732
804.346	27663
804.488	27652
804.63	27679
804.773	27561
804.915	27812
805.057	27774
805.199	27732
805.341	27838
805.483	27778
805.626	27930
805.768	27869
805.91	27918
806.052	28017
806.194	27835
806.336	28185
806.478	27972
806.62	27983
806.762	27930
806.904	28143
807.046	28394
807.188	28447
807.33	28413
807.472	28455
807.614	28284
807.756	28322
807.898	28318
808.04	28169
808.182	28310
808.324	28196
808.465	28295
808.607	28557
808.749	28535
808.891	28809
809.033	28736
809.174	28656
809.316	28440
809.458	28611
809.6	28550
809.741	28672
809.883	28896
810.025	28862
810.166	28847
810.308	29079
810.45	28702
810.591	28755
810.733	28691
810.875	28607
811.016	28466
811.158	28546
811.299	28660
811.441	28835
811.582	28755
811.724	28413
811.865	28588
812.007	28382
812.148	28660
812.29	28630
812.431	28691
812.573	29003
812.714	28991
812.855	29147
812.997	29239
813.138	29318
813.279	29220
813.421	29151
813.562	29018
813.703	28900
813.845	28774
813.986	28508
814.127	28390
814.268	28291
814.41	28382
814.551	28154
814.692	28173
814.833	28120
814.974	28226
815.115	28200
815.256	28169
815.397	28211
815.539	28223
815.68	28063
815.821	27831
815.962	28185
816.103	28055
816.244	28105
816.385	27972
816.526	27816
816.666	27713
816.807	27549
816.948	27641
817.089	27816
817.23	27671
817.371	27519
817.512	27515
817.653	27667
817.793	27454
817.934	27633
818.075	27610
818.216	27549
818.356	27424
818.497	27542
818.638	27340
818.778	27344
818.919	27275
819.06	27408
819.2	27568
819.341	27435
819.481	27427
819.622	27713
819.762	27953
819.903	27854
820.043	27785
820.184	27644
820.324	27641
820.465	27682
820.605	27713
820.746	27660
820.886	27504
821.026	27667
821.167	27530
821.307	27831
821.447	27603
821.588	27488
821.728	27363
821.868	27222
822.008	26982
822.149	27085
822.289	27077
822.429	26796
822.569	26731
822.709	26758
822.849	26518
822.99	26511
823.13	26655
823.27	26530
823.41	26408
823.55	26412
823.69	26400
823.83	26366
823.97	26408
824.11	26134
824.25	26210
824.389	26313
824.529	26317
824.669	26259
824.809	26317
824.949	26218
825.089	26389
825.228	26252
825.368	26092
825.508	26058
825.648	26069
825.787	26107
825.927	26062
826.067	26027
826.206	26012
826.346	26183
826.485	26054
826.625	26081
826.765	26199
826.904	26187
827.044	25921
827.183	25742
827.323	25727
827.462	25791
827.601	25830
827.741	25662
827.88	25750
828.02	25811
828.159	25628
828.298	25841
828.437	25833
828.577	25712
828.716	25868
828.855	25677
828.994	25559
829.134	25552
829.273	25460
829.412	25388
829.551	25419
829.69	25491
829.829	25411
829.968	25457
830.107	25605
830.246	25540
830.385	25415
830.524	25479
830.663	25278
830.802	25122
830.941	25050
831.08	24916
831.219	25251
831.357	25297
831.496	25304
831.635	25126
831.774	25069
831.913	24905
832.051	24871
832.19	24928
832.329	24951
832.467	24848
832.606	24684
832.744	24722
832.883	24726
833.022	24635
833.16	24791
833.299	24776
833.437	24817
833.576	24802
833.714	24791
833.852	24821
833.991	24840
834.129	24844
834.267	24871
834.406	24878
834.544	24844
834.682	24913
834.821	24772
834.959	24916
835.097	24798
835.235	24757
835.373	24806
835.511	24726
835.65	24772
835.788	24673
835.926	24601
836.064	24380
836.202	24494
836.34	24665
836.478	24661
836.615	24677
836.753	24681
836.891	24779
837.029	24578
837.167	24578
837.305	24555
837.443	24460
837.58	24616
837.718	24490
837.856	24486
837.993	24536
838.131	24479
838.269	24292
838.406	24437
838.544	24232
838.681	24163
838.819	24049
838.956	23866
839.094	23920
839.231	23931
839.369	24068
839.506	24342
839.643	24201
839.781	23954
839.918	23802
840.055	23870
840.193	23942
840.33	23916
840.467	23901
840.604	23901
840.742	24167
840.879	23764
841.016	23676
841.153	23611
841.29	23992
841.427	23939
841.564	23935
841.701	23927
841.838	23809
841.975	23874
842.112	23790
842.249	23566
842.385	23710
842.522	23767
842.659	23745
842.796	23520
842.933	23566
843.069	23558
843.206	23512
843.343	23672
843.479	23680
843.616	23497
843.752	23292
843.889	23349
844.025	23539
844.162	23406
844.298	23402
844.435	23493
844.571	23315
844.708	23417
844.844	23531
844.98	23356
845.117	23516
845.253	23216
845.389	23345
845.525	23212
845.661	23242
845.798	23056
845.934	23083
846.07	23151
846.206	23064
846.342	23136
846.478	23014
846.614	22866
846.75	22675
846.886	22866
847.022	22904
847.158	22999
847.294	22896
847.429	22873
847.565	22771
847.701	23029
847.837	22618
847.972	22729
848.108	22698
848.244	22580
848.379	22489
848.515	22375
848.65	22466
848.786	22405
848.921	22341
849.057	22542
849.192	22485
849.328	22542
849.463	22421
849.598	22291
849.734	22333
849.869	22409
850.004	22173
850.14	22230
850.275	22090
850.41	22093
850.545	22147
850.68	22109
850.815	22230
850.95	22230
851.085	22314
851.22	22261
851.355	22196
851.49	22188
851.625	22029
851.76	22093
851.895	22173
852.03	22109
852.165	22090
852.299	22131
852.434	22242
852.569	22219
852.703	22143
852.838	22166
852.973	22390
853.107	22352
853.242	22074
853.376	21880
853.511	21835
853.645	21911
853.78	22078
853.914	22055
854.048	21888
854.183	22040
854.317	22025
854.451	22234
854.585	22013
854.72	21953
854.854	22116
854.988	21903
855.122	21964
855.256	21911
855.39	21922
855.524	22044
855.658	22013
855.792	21945
855.926	22044
856.06	21975
856.194	22150
856.327	21983
856.461	21937
856.595	22070
856.729	22025
856.862	22086
856.996	21930
857.13	22067
857.263	22147
857.397	22086
857.53	22048
857.664	21994
857.797	22101
857.931	22078
858.064	22051
858.197	22154
858.331	22070
858.464	21941
858.597	21895
858.731	21899
858.864	21926
858.997	21937
859.13	21960
859.263	22063
859.396	21956
859.529	22025
859.662	21895
859.795	21918
859.928	22086
860.061	22230
860.194	22135
860.327	22048
860.46	21975
860.592	22112
860.725	22280
860.858	22166
860.99	22029
861.123	21934
861.256	21964
861.388	21991
861.521	22847
861.653	21755
861.786	21854
861.918	21922
862.05	21861
862.183	21953
862.315	21930
862.447	21953
862.58	22002
862.712	21736
862.844	21705
862.976	21789
863.108	21812
863.24	22185
863.372	21629
863.504	21663
863.636	21724
863.768	21709
863.9	21660
864.032	21667
864.164	21610
864.296	21804
864.428	21713
864.559	21846
864.691	21831
864.823	21755
864.954	21709
865.086	21625
865.217	21713
865.349	21637
865.48	21511
865.612	21515
865.743	21755
865.875	21637
866.006	21591
866.137	21576
866.269	21618
866.4	21622
866.531	21595
866.662	21526
866.793	21599
866.924	21507
867.055	21534
867.186	21507
867.317	21397
867.448	21370
867.579	21473
867.71	21397
867.841	21340
867.972	21488
868.103	21454
868.233	21466
868.364	21496
868.495	21599
868.625	21808
868.756	21846
868.886	21637
869.017	21812
869.147	21831
869.278	21941
869.408	21724
869.539	21819
869.669	21812
869.799	21751
869.929	21903
870.06	21930
870.19	22040
870.32	22036
870.45	22021
870.58	22154
870.71	22295
870.84	22234
870.97	22105
871.1	22276
871.23	22413
871.36	22443
871.489	22276
871.619	22379
871.749	22329
871.879	22306
872.008	22394
872.138	22333
872.267	22310
872.397	22112
872.526	22204
872.656	22185
872.785	22314
872.915	22276
873.044	22569
873.173	22459
873.303	22405
873.432	22493
873.561	22478
873.69	22371
873.819	22325
873.948	22599
874.077	22299
874.206	22424
874.335	22440
874.464	22516
874.593	22565
874.722	22519
874.851	22668
874.979	22618
875.108	22805
875.237	22596
875.365	22546
875.494	22504
875.623	22683
875.751	22554
875.88	22565
876.008	22759
876.136	22771
876.265	23052
876.393	23117
876.521	23132
876.65	23079
876.778	22923
876.906	22885
877.034	22934
877.162	23022
877.29	22915
877.418	22824
877.546	23121
877.674	22999
877.802	22835
877.93	23056
878.058	22778
878.185	22866
878.313	22923
878.441	22915
878.568	22835
878.696	22961
878.824	22957
878.951	23113
879.079	23174
879.206	23269
879.333	23094
879.461	23056
879.588	22995
879.715	23159
879.842	23124
879.97	23006
880.097	22828
880.224	22740
880.351	22805
880.478	22733
880.605	22698
880.732	22797
880.859	22999
880.986	22679
881.112	22698
881.239	22683
881.366	22493
881.493	22451
881.619	22344
881.746	22276
881.872	22451
881.999	22261
882.125	22303
882.252	22356
882.378	22295
882.505	22405
882.631	22196
882.757	22063
882.883	22322
883.01	22128
883.136	21953
883.262	21888
883.388	21770
883.514	22021
883.64	22059
883.766	21956
883.892	21717
884.018	21751
884.143	21922
884.269	22120
884.395	21698
884.52	21652
884.646	21762
884.772	21568
884.897	21530
885.023	21633
885.148	21743
885.274	21850
885.399	21675
885.524	21720
885.65	21671
885.775	21724
885.9	21561
886.025	21690
886.15	21812
886.275	21603
886.4	21557
886.525	21511
886.65	21618
886.775	21606
886.9	21751
887.025	21804
887.149	21713
887.274	21561
887.399	21389
887.523	21355
887.648	21420
887.773	21306
887.897	21492
888.021	21496
888.146	21310
888.27	21329
888.395	21447
888.519	21500
888.643	21374
888.767	21496
888.891	21245
889.015	21310
889.139	21245
889.263	21192
889.387	21180
889.511	21272
889.635	21382
889.759	21222
889.883	21336
890.006	21252
890.13	21310
890.254	21176
890.377	21013
890.501	20971
890.624	20800
890.748	21047
890.871	20899
890.995	20724
891.118	20743
891.241	20815
891.364	20823
891.488	20895
891.611	20876
891.734	20735
891.857	20838
891.98	20712
892.103	20872
892.226	20804
892.349	20720
892.471	20571
892.594	20651
892.717	20556
892.839	20602
892.962	20777
893.085	20712
893.207	20765
893.33	20511
893.452	20594
893.575	20727
893.697	20609
893.819	20902
893.941	20815
894.064	20769
894.186	20708
894.308	20625
894.43	20621
894.552	20800
894.674	20765
894.796	20541
894.918	20644
895.04	20625
895.161	20689
895.283	20629
895.405	20636
895.526	20655
895.648	20674
895.769	20689
895.891	20697
896.012	20724
896.134	20655
896.255	20758
896.376	20781
896.498	20705
896.619	20720
896.74	20613
896.861	20701
896.982	21028
897.103	21096
897.224	20899
897.345	20819
897.466	20804
897.587	20788
897.708	21001
897.828	20948
897.949	20811
898.07	20697
898.19	20762
898.311	20853
898.431	20800
898.552	20830
898.672	21017
898.792	20960
898.913	20864
899.033	20720
899.153	20606
899.273	20598
899.393	20769
899.513	20705
899.633	20522
899.753	20575
899.873	20556
899.993	20674
900.113	20541
900.232	20495
900.352	20693
900.472	20339
900.591	20438
900.711	20415
900.83	20396
900.95	20473
901.069	20423
901.189	20324
901.308	20088
901.427	20008
901.546	19955
901.665	19932
901.784	19986
901.904	19875
902.023	19746
902.141	19601
902.26	19491
902.379	19677
902.498	19384
902.617	19449
902.735	19502
902.854	19434
902.973	19339
903.091	19114
903.21	19126
903.328	19080
903.446	18973
903.565	18947
903.683	18916
903.801	18783
903.919	18833
904.038	18882
904.156	18677
904.274	18825
904.392	18608
904.51	18669
904.627	18597
904.745	18711
904.863	18677
904.981	18479
905.098	18388
905.216	18395
905.334	18353
905.451	18327
905.569	18380
905.686	18403
905.803	18308
905.921	18053
906.038	18239
906.155	18091
906.272	18117
906.389	18087
906.506	17885
906.623	17912
906.74	17923
906.857	17752
906.974	17866
907.091	17897
907.208	17954
907.324	17942
907.441	17798
907.557	17687
907.674	17657
907.79	17551
907.907	17543
908.023	17627
908.139	17608
908.256	17520
908.372	17425
908.488	17433
908.604	17433
908.72	17299
908.836	17322
908.952	17242
909.068	17277
909.184	17368
909.3	17220
909.415	17368
909.531	17311
909.647	17079
909.762	16991
909.878	16908
909.993	16991
910.108	16923
910.224	16987
910.339	16900
910.454	16976
910.57	16862
910.685	16691
910.8	16862
910.915	17048
911.03	16831
911.145	16702
911.259	16596
911.374	16660
911.489	16622
911.604	16478
911.718	16421
911.833	16344
911.947	16219
912.062	16196
912.176	16303
912.291	16367
912.405	16276
912.519	16512
912.633	16474
912.748	16447
912.862	16344
912.976	16173
913.09	16006
913.204	16230
913.318	16150
913.431	16223
913.545	16143
913.659	16257
913.772	16040
913.886	15968
914	15907
914.113	16128
914.226	16207
914.34	16040
914.453	15861
914.566	15975
914.68	15850
914.793	15778
914.906	15625
915.019	15584
915.132	15469
915.245	15545
915.358	15507
915.47	15633
915.583	15515
915.696	15587
915.809	15584
915.921	15618
916.034	15435
916.146	15382
916.259	15408
916.371	15492
916.483	15545
916.595	15374
916.708	15405
916.82	15408
916.932	15287
917.044	15306
917.156	15306
917.268	15218
917.38	15211
917.491	15291
917.603	15100
917.715	15237
917.826	15230
917.938	15157
918.049	14948
918.161	15093
918.272	15154
918.384	15188
918.495	15055
918.606	15032
918.717	14891
918.828	14925
918.939	15032
919.05	14849
919.161	14804
919.272	14682
919.383	14895
919.494	14937
919.604	15070
919.715	14823
919.826	14727
919.936	14910
920.047	14914
920.157	14883
920.267	15097
920.378	14830
920.488	14925
920.598	15013
920.708	15222
920.818	14921
920.928	15028
921.038	15176
921.148	15013
921.258	14727
921.368	14705
921.477	14674
921.587	14556
921.697	14484
921.806	14598
921.916	14526
922.025	14415
922.134	14275
922.244	14153
922.353	14328
922.462	14214
922.571	14119
922.68	13951
922.789	13849
922.898	13875
923.007	13875
923.116	13890
923.224	13757
923.333	13814
923.442	13807
923.55	13753
923.659	13772
923.767	13795
923.876	13582
923.984	13734
924.092	13537
924.201	13662
924.309	13578
924.417	13537
924.525	13552
924.633	13578
924.741	14248
924.849	13350
924.956	13514
925.064	13304
925.172	13164
925.279	13373
925.387	13285
925.494	13255
925.602	13354
925.709	13293
925.816	13149
925.924	13137
926.031	13331
926.138	13221
926.245	13316
926.352	13084
926.459	13266
926.566	13259
926.673	13149
926.779	13027
926.886	13034
926.993	12886
927.099	12871
927.206	12764
927.312	12730
927.419	12871
927.525	12852
927.631	12894
927.737	12703
927.843	12703
927.95	12608
928.056	12669
928.162	12658
928.267	12658
928.373	13282
928.479	12726
928.585	12479
928.69	12597
928.796	12673
928.901	12574
929.007	12346
929.112	12506
929.218	12483
929.323	12403
929.428	12384
929.533	12460
929.638	12456
929.743	12300
929.848	12369
929.953	12232
930.058	12346
930.163	12011
930.267	12098
930.372	12163
930.477	12057
930.581	12224
930.685	12060
930.79	11939
930.894	12030
930.998	11912
931.103	12064
931.207	11646
931.311	11608
931.415	11547
931.519	11345
931.623	11318
