Data from test_V78500241_2071.txt Node
Date: Fri Mar 25 15:56:08 CST 2022
User: usil
Spectrometer: V785-0024
Trigger mode: 0
Integration Time (sec): 4.000000E-1
Scans to average: 1
Nonlinearity correction enabled: false
Boxcar width: 0
Storing dark spectrum: false
XAxis mode: Wavelengths
Number of Pixels in Spectrum: 1024
>>>>>Begin Spectral Data<<<<<
801.071	28881
801.214	28885
801.356	28565
801.499	28459
801.641	28451
801.783	28451
801.926	28500
802.068	28375
802.211	28386
802.353	28341
802.496	28246
802.638	28135
802.78	28192
802.923	27994
803.065	28124
803.208	28040
803.35	28211
803.492	28337
803.635	28344
803.777	28382
803.919	28337
804.061	28748
804.204	28485
804.346	28295
804.488	28379
804.63	28421
804.773	28398
804.915	28413
805.057	28542
805.199	28363
805.341	28481
805.483	28573
805.626	28489
805.768	28417
805.91	28546
806.052	28531
806.194	28474
806.336	28679
806.478	28512
806.62	28603
806.762	28710
806.904	28881
807.046	29105
807.188	29098
807.33	28995
807.472	29113
807.614	28930
807.756	28904
807.898	28843
808.04	28820
808.182	28801
808.324	28805
808.465	28869
808.607	28972
808.749	29178
808.891	29360
809.033	29421
809.174	29398
809.316	29296
809.458	29151
809.6	29223
809.741	29490
809.883	29330
810.025	29509
810.166	29497
810.308	29486
810.45	29482
810.591	29414
810.733	29235
810.875	29353
811.016	29117
811.158	29181
811.299	29288
811.441	29448
811.582	29402
811.724	29242
811.865	29166
812.007	29143
812.148	29395
812.29	29258
812.431	29535
812.573	29668
812.714	29802
812.855	29752
812.997	29752
813.138	29999
813.279	29958
813.421	29767
813.562	29665
813.703	29600
813.845	29444
813.986	29258
814.127	29060
814.268	29090
814.41	29079
814.551	29109
814.692	29277
814.833	28881
814.974	29083
815.115	29109
815.256	28900
815.397	28869
815.539	28809
815.68	28831
815.821	28641
815.962	28923
816.103	28816
816.244	28592
816.385	28653
816.526	28672
816.666	28318
816.807	28291
816.948	28314
817.089	28428
817.23	28481
817.371	28234
817.512	28306
817.653	28223
817.793	28074
817.934	28287
818.075	28303
818.216	28280
818.356	28341
818.497	28287
818.638	28048
818.778	27994
818.919	28097
819.06	28070
819.2	28131
819.341	28333
819.481	28299
819.622	28344
819.762	28744
819.903	28607
820.043	28470
820.184	28512
820.324	28306
820.465	28497
820.605	28459
820.746	28443
820.886	28299
821.026	28447
821.167	28470
821.307	28409
821.447	28440
821.588	28265
821.728	28070
821.868	27914
822.008	27823
822.149	27831
822.289	27739
822.429	27523
822.569	27412
822.709	27511
822.849	27241
822.99	27351
823.13	27184
823.27	27283
823.41	27207
823.55	26963
823.69	27039
823.83	27146
823.97	27116
824.11	26929
824.25	26906
824.389	26952
824.529	26963
824.669	26933
824.809	26979
824.949	26990
825.089	27116
825.228	27096
825.368	26807
825.508	26701
825.648	26845
825.787	26902
825.927	26823
826.067	26811
826.206	26781
826.346	26804
826.485	26765
826.625	26769
826.765	26940
826.904	26872
827.044	26571
827.183	26636
827.323	26469
827.462	26560
827.601	26499
827.741	26530
827.88	26598
828.02	26564
828.159	26564
828.298	26533
828.437	26587
828.577	26469
828.716	26613
828.855	26408
828.994	26301
829.134	26210
829.273	26225
829.412	26328
829.551	26161
829.69	26305
829.829	26161
829.968	26404
830.107	26339
830.246	26278
830.385	26225
830.524	26355
830.663	26100
830.802	25909
830.941	25944
831.08	25807
831.219	25803
831.357	25776
831.496	25936
831.635	25784
831.774	25769
831.913	25582
832.051	25609
832.19	25590
832.329	25590
832.467	25563
832.606	25384
832.744	25373
832.883	25453
833.022	25381
833.16	25388
833.299	25571
833.437	25464
833.576	25594
833.714	25460
833.852	25681
833.991	25620
834.129	25704
834.267	25613
834.406	25616
834.544	25689
834.682	25567
834.821	25499
834.959	25750
835.097	25548
835.235	25533
835.373	25468
835.511	25403
835.65	25590
835.788	25354
835.926	25232
836.064	25285
836.202	25358
836.34	25324
836.478	25476
836.615	25449
836.753	25495
836.891	25388
837.029	25362
837.167	25304
837.305	25320
837.443	25221
837.58	25213
837.718	25213
837.856	25171
837.993	25145
838.131	25221
838.269	25129
838.406	25110
838.544	24973
838.681	25004
838.819	24795
838.956	24730
839.094	24688
839.231	24681
839.369	24814
839.506	25061
839.643	24882
839.781	24601
839.918	24677
840.055	24601
840.193	24639
840.33	24528
840.467	24544
840.604	24623
840.742	24905
840.879	24422
841.016	24490
841.153	24418
841.29	24669
841.427	24536
841.564	24646
841.701	24475
841.838	24502
841.975	24357
842.112	24551
842.249	24296
842.385	24270
842.522	24471
842.659	24410
842.796	24273
842.933	24380
843.069	24350
843.206	24239
843.343	24376
843.479	24315
843.616	24346
843.752	24079
843.889	24159
844.025	24133
844.162	24155
844.298	24292
844.435	24057
844.571	24133
844.708	24194
844.844	24296
844.98	24178
845.117	24213
845.253	23939
845.389	23931
845.525	23999
845.661	23885
845.798	23843
845.934	23813
846.07	23668
846.206	23946
846.342	23935
846.478	23859
846.614	23672
846.75	23573
846.886	23535
847.022	23661
847.158	23596
847.294	23531
847.429	23596
847.565	23372
847.701	23790
847.837	23345
847.972	23250
848.108	23273
848.244	23360
848.379	23109
848.515	23124
848.65	23117
848.786	23197
848.921	23193
849.057	23277
849.192	23258
849.328	23185
849.463	23044
849.598	23102
849.734	22930
849.869	22930
850.004	22843
850.14	23041
850.275	22869
850.41	22687
850.545	22733
850.68	22915
850.815	22809
850.95	22942
851.085	23067
851.22	22987
851.355	22949
851.49	22987
851.625	22953
851.76	22930
851.895	22786
852.03	22778
852.165	22771
852.299	23033
852.434	22957
852.569	22900
852.703	22873
852.838	22911
852.973	23003
853.107	22984
853.242	22942
853.376	22733
853.511	22672
853.645	22702
853.78	22771
853.914	22862
854.048	22721
854.183	22828
854.317	22854
854.451	22976
854.585	22774
854.72	22790
854.854	22733
854.988	22584
855.122	22694
855.256	22538
855.39	22713
855.524	22793
855.658	22854
855.792	22721
855.926	22752
856.06	22835
856.194	22786
856.327	22748
856.461	22615
856.595	22504
856.729	22755
856.862	22869
856.996	22759
857.13	22752
857.263	22835
857.397	22873
857.53	22774
857.664	22736
857.797	22782
857.931	22778
858.064	22672
858.197	22896
858.331	22725
858.464	22763
858.597	22626
858.731	22603
858.864	22713
858.997	22752
859.13	22694
859.263	22710
859.396	22824
859.529	22599
859.662	22740
859.795	22611
859.928	22672
860.061	22835
860.194	22900
860.327	22755
860.46	22687
860.592	22908
860.725	22828
860.858	22831
860.99	22797
861.123	22637
861.256	22599
861.388	22687
861.521	23490
861.653	22580
861.786	22489
861.918	22462
862.05	22535
862.183	22523
862.315	22634
862.447	22679
862.58	22641
862.712	22485
862.844	22352
862.976	22516
863.108	22470
863.24	22809
863.372	22344
863.504	22451
863.636	22489
863.768	22394
863.9	22451
864.032	22481
864.164	22322
864.296	22405
864.428	22451
864.559	22557
864.691	22436
864.823	22459
864.954	22440
865.086	22417
865.217	22371
865.349	22242
865.48	22341
865.612	22325
865.743	22459
865.875	22284
866.006	22246
866.137	22242
866.269	22318
866.4	22238
866.531	22325
866.662	22158
866.793	22226
866.924	22257
867.055	22276
867.186	22188
867.317	22341
867.448	22185
867.579	22204
867.71	22074
867.841	22078
867.972	22246
868.103	22257
868.233	22341
868.364	22211
868.495	22413
868.625	22367
868.756	22535
868.886	22493
869.017	22523
869.147	22489
869.278	22447
869.408	22394
869.539	22432
869.669	22622
869.799	22478
869.929	22500
870.06	22500
870.19	22733
870.32	22710
870.45	22809
870.58	22923
870.71	22953
870.84	22927
870.97	22797
871.1	22942
871.23	22976
871.36	23147
871.489	23105
871.619	23094
871.749	23003
871.879	23067
872.008	23231
872.138	22896
872.267	23033
872.397	22976
872.526	22862
872.656	22881
872.785	22831
872.915	22984
873.044	23212
873.173	23121
873.303	23117
873.432	23189
873.561	23174
873.69	23102
873.819	23083
873.948	23113
874.077	23003
874.206	23189
874.335	23022
874.464	23003
874.593	23322
874.722	23216
874.851	23296
874.979	23330
875.108	23417
875.237	23212
875.365	23136
875.494	23349
875.623	23337
875.751	23231
875.88	23402
876.008	23421
876.136	23467
876.265	23684
876.393	23828
876.521	23813
876.65	23767
876.778	23722
876.906	23684
877.034	23608
877.162	23695
877.29	23562
877.418	23638
877.546	23611
877.674	23539
877.802	23672
877.93	23634
878.058	23433
878.185	23562
878.313	23630
878.441	23581
878.568	23414
878.696	23570
878.824	23558
878.951	23707
879.079	23783
879.206	23870
879.333	23783
879.461	23642
879.588	23813
879.715	23729
879.842	23893
879.97	23668
880.097	23501
880.224	23482
880.351	23589
880.478	23398
880.605	23425
880.732	23463
880.859	23710
880.986	23360
881.112	23379
881.239	23231
881.366	23136
881.493	23071
881.619	23143
881.746	23109
881.872	22885
881.999	23056
882.125	23018
882.252	23044
882.378	22957
882.505	23052
882.631	22820
882.757	22615
882.883	22824
883.01	22755
883.136	22573
883.262	22519
883.388	22550
883.514	22565
883.64	22717
883.766	22630
883.892	22344
884.018	22447
884.143	22500
884.269	22691
884.395	22402
884.52	22139
884.646	22341
884.772	22188
884.897	22188
885.023	22284
885.148	22398
885.274	22489
885.399	22344
885.524	22295
885.65	22246
885.775	22371
885.9	22337
886.025	22417
886.15	22379
886.275	22261
886.4	22207
886.525	22341
886.65	22181
886.775	22238
886.9	22371
887.025	22462
887.149	22276
887.274	22112
887.399	22131
887.523	22074
887.648	22006
887.773	22086
887.897	22234
888.021	22025
888.146	22063
888.27	22188
888.395	22067
888.519	21994
888.643	22055
888.767	22131
888.891	21964
889.015	21785
889.139	21941
889.263	21968
889.387	21960
889.511	22082
889.635	22029
889.759	21827
889.883	21850
890.006	21819
890.13	22002
890.254	21751
890.377	21766
890.501	21660
890.624	21622
890.748	21641
890.871	21504
890.995	21435
891.118	21393
891.241	21355
891.364	21447
891.488	21568
891.611	21298
891.734	21329
891.857	21412
891.98	21443
892.103	21519
892.226	21439
892.349	21367
892.471	21142
892.594	21260
892.717	21287
892.839	21249
892.962	21291
893.085	21405
893.207	21252
893.33	21074
893.452	21348
893.575	21408
893.697	21291
893.819	21416
893.941	21454
894.064	21313
894.186	21294
894.308	21241
894.43	21272
894.552	21443
894.674	21302
894.796	21180
894.918	21283
895.04	21241
895.161	21298
895.283	21256
895.405	21214
895.526	21310
895.648	21241
895.769	21211
895.891	21367
896.012	21279
896.134	21260
896.255	21401
896.376	21245
896.498	21279
896.619	21367
896.74	21195
896.861	21325
896.982	21511
897.103	21633
897.224	21564
897.345	21416
897.466	21519
897.587	21443
897.708	21538
897.828	21454
897.949	21306
898.07	21222
898.19	21386
898.311	21564
898.431	21393
898.552	21370
898.672	21511
898.792	21439
898.913	21344
899.033	21287
899.153	21218
899.273	21039
899.393	21157
899.513	21256
899.633	21203
899.753	21192
899.873	21104
899.993	21272
900.113	21093
900.232	21028
900.352	21081
900.472	21009
900.591	20963
900.711	20830
900.83	20891
900.95	21013
901.069	20941
901.189	20769
901.308	20636
901.427	20431
901.546	20495
901.665	20355
901.784	20492
901.904	20438
902.023	20271
902.141	20103
902.26	20081
902.379	20065
902.498	19993
902.617	20020
902.735	20050
902.854	19993
902.973	20100
903.091	19700
903.21	19685
903.328	19609
903.446	19510
903.565	19441
903.683	19537
903.801	19346
903.919	19487
904.038	19407
904.156	19107
904.274	19381
904.392	19137
904.51	19209
904.627	19255
904.745	19339
904.863	19179
904.981	19012
905.098	18798
905.216	18817
905.334	19046
905.451	19008
905.569	18871
905.686	18897
905.803	18886
905.921	18669
906.038	18772
906.155	18711
906.272	18528
906.389	18593
906.506	18521
906.623	18407
906.74	18494
906.857	18342
906.974	18289
907.091	18509
907.208	18563
907.324	18494
907.441	18235
907.557	18121
907.674	18106
907.79	18095
907.907	18076
908.023	18186
908.139	18098
908.256	18019
908.372	18022
908.488	17961
908.604	17870
908.72	17824
908.836	17840
908.952	17748
909.068	17767
909.184	17988
909.3	17634
909.415	17942
909.531	17714
909.647	17501
909.762	17585
909.878	17497
909.993	17535
910.108	17478
910.224	17524
910.339	17433
910.454	17417
910.57	17235
910.685	17193
910.8	17474
910.915	17414
911.03	17220
911.145	17227
911.259	17121
911.374	17128
911.489	17060
911.604	17033
911.718	16896
911.833	16843
911.947	16812
912.062	16615
912.176	16839
912.291	16767
912.405	16873
912.519	17052
912.633	17037
912.748	16801
912.862	16771
912.976	16748
913.09	16550
913.204	16622
913.318	16637
913.431	16622
913.545	16717
913.659	16706
913.772	16672
913.886	16478
914	16440
914.113	16443
914.226	16443
914.34	16413
914.453	16306
914.566	16367
914.68	16219
914.793	16238
914.906	16074
915.019	16090
915.132	15915
915.245	15991
915.358	16021
915.47	16139
915.583	15945
915.696	16051
915.809	16154
915.921	16101
916.034	16006
916.146	15937
916.259	15838
916.371	15953
916.483	15873
916.595	15755
916.708	15831
916.82	15903
916.932	15739
917.044	15835
917.156	15831
917.268	15629
917.38	15667
917.491	15591
917.603	15618
917.715	15656
917.826	15679
917.938	15568
918.049	15393
918.161	15595
918.272	15698
918.384	15637
918.495	15545
918.606	15435
918.717	15401
918.828	15378
918.939	15321
919.05	15336
919.161	15363
919.272	15097
919.383	15192
919.494	15466
919.604	15538
919.715	15302
919.826	15332
919.936	15355
920.047	15313
920.157	15332
920.267	15492
920.378	15260
920.488	15275
920.598	15386
920.708	15610
920.818	15393
920.928	15477
921.038	15553
921.148	15405
921.258	15260
921.368	15089
921.477	15066
921.587	15146
921.697	14952
921.806	15017
921.916	14929
922.025	14746
922.134	14708
922.244	14621
922.353	14792
922.462	14476
922.571	14480
922.68	14339
922.789	14263
922.898	14362
923.007	14202
923.116	14389
923.224	14309
923.333	14202
923.442	14142
923.55	14024
923.659	14012
923.767	14199
923.876	14050
923.984	14073
924.092	13951
924.201	14046
924.309	14054
924.417	13932
924.525	13951
924.633	13928
924.741	14811
924.849	13700
924.956	13883
925.064	13757
925.172	13590
925.279	13704
925.387	13693
925.494	13719
925.602	13811
925.709	13723
925.816	13586
925.924	13715
926.031	13795
926.138	13639
926.245	13704
926.352	13495
926.459	13605
926.566	13712
926.673	13487
926.779	13331
926.886	13445
926.993	13320
927.099	13213
927.206	13160
927.312	13107
927.419	13285
927.525	13110
927.631	13274
927.737	13110
927.843	13012
927.95	13012
928.056	13004
928.162	13053
928.267	13160
928.373	13655
928.479	13015
928.585	12825
928.69	12909
928.796	13027
928.901	12848
929.007	12745
929.112	12856
929.218	12768
929.323	12741
929.428	12650
929.533	12886
929.638	12677
929.743	12665
929.848	12669
929.953	12681
930.058	12612
930.163	12517
930.267	12456
930.372	12471
930.477	12384
930.581	12597
930.685	12467
930.79	12152
930.894	12319
930.998	12175
931.103	12365
931.207	11878
931.311	11866
931.415	11897
931.519	11600
931.623	11592
