Data from test_V78500241_1227.txt Node
Date: Fri Mar 25 15:50:18 CST 2022
User: usil
Spectrometer: V785-0024
Trigger mode: 0
Integration Time (sec): 4.000000E-1
Scans to average: 1
Nonlinearity correction enabled: false
Boxcar width: 0
Storing dark spectrum: false
XAxis mode: Wavelengths
Number of Pixels in Spectrum: 1024
>>>>>Begin Spectral Data<<<<<
801.071	28557
801.214	28478
801.356	28276
801.499	28223
801.641	28131
801.783	28238
801.926	28200
802.068	28131
802.211	27926
802.353	28070
802.496	27724
802.638	27789
802.78	27675
802.923	27743
803.065	27629
803.208	27660
803.35	27804
803.492	27873
803.635	28097
803.777	27800
803.919	28055
804.061	28261
804.204	28101
804.346	28048
804.488	27880
804.63	28074
804.773	27907
804.915	27975
805.057	28139
805.199	28261
805.341	28207
805.483	28147
805.626	28101
805.768	28021
805.91	28268
806.052	28074
806.194	28021
806.336	28299
806.478	28341
806.62	28253
806.762	28177
806.904	28443
807.046	28824
807.188	28839
807.33	28607
807.472	28721
807.614	28618
807.756	28569
807.898	28500
808.04	28542
808.182	28588
808.324	28398
808.465	28489
808.607	28679
808.749	28847
808.891	29025
809.033	29044
809.174	28976
809.316	28930
809.458	28828
809.6	28748
809.741	29010
809.883	29033
810.025	29212
810.166	29178
810.308	29273
810.45	29083
810.591	29060
810.733	29003
810.875	28733
811.016	28675
811.158	28744
811.299	28892
811.441	29098
811.582	29075
811.724	28771
811.865	28831
812.007	28919
812.148	28782
812.29	28984
812.431	29010
812.573	29273
812.714	29330
812.855	29459
812.997	29463
813.138	29608
813.279	29501
813.421	29478
813.562	29459
813.703	29299
813.845	29162
813.986	28866
814.127	28881
814.268	28694
814.41	28622
814.551	28668
814.692	28668
814.833	28596
814.974	28573
815.115	28634
815.256	28557
815.397	28478
815.539	28432
815.68	28508
815.821	28375
815.962	28375
816.103	28363
816.244	28284
816.385	28162
816.526	28150
816.666	28048
816.807	27899
816.948	27888
817.089	28029
817.23	27994
817.371	27876
817.512	27968
817.653	27945
817.793	27720
817.934	27956
818.075	27793
818.216	27892
818.356	27819
818.497	27690
818.638	27622
818.778	27660
818.919	27816
819.06	27648
819.2	27720
819.341	27930
819.481	27911
819.622	28215
819.762	28261
819.903	28253
820.043	28158
820.184	28082
820.324	28093
820.465	28078
820.605	28055
820.746	28021
820.886	27918
821.026	28006
821.167	27956
821.307	28112
821.447	27926
821.588	27793
821.728	27762
821.868	27454
822.008	27401
822.149	27348
822.289	27378
822.429	27131
822.569	26963
822.709	27127
822.849	26925
822.99	26800
823.13	26895
823.27	26899
823.41	26587
823.55	26674
823.69	26773
823.83	26712
823.97	26655
824.11	26381
824.25	26412
824.389	26514
824.529	26545
824.669	26461
824.809	26609
824.949	26640
825.089	26636
825.228	26655
825.368	26370
825.508	26492
825.648	26374
825.787	26381
825.927	26461
826.067	26256
826.206	26396
826.346	26465
826.485	26503
826.625	26408
826.765	26590
826.904	26419
827.044	26164
827.183	26153
827.323	26221
827.462	26278
827.601	26149
827.741	26149
827.88	26119
828.02	25986
828.159	26012
828.298	26119
828.437	26187
828.577	26054
828.716	26218
828.855	26035
828.994	25814
829.134	25776
829.273	25833
829.412	25868
829.551	25772
829.69	25852
829.829	25795
829.968	25807
830.107	25822
830.246	25822
830.385	25788
830.524	25704
830.663	25632
830.802	25594
830.941	25354
831.08	25449
831.219	25468
831.357	25578
831.496	25609
831.635	25384
831.774	25282
831.913	25232
832.051	25228
832.19	25316
832.329	25263
832.467	25217
832.606	25034
832.744	25084
832.883	25110
833.022	25050
833.16	25088
833.299	25129
833.437	25069
833.576	25126
833.714	25183
833.852	25320
833.991	25187
834.129	25282
834.267	25274
834.406	25129
834.544	25194
834.682	25164
834.821	25053
834.959	25396
835.097	25103
835.235	25187
835.373	25122
835.511	25065
835.65	24943
835.788	24954
835.926	24776
836.064	24856
836.202	24692
836.34	24916
836.478	25164
836.615	24935
836.753	24981
836.891	24981
837.029	25015
837.167	25019
837.305	24932
837.443	24943
837.58	24703
837.718	24859
837.856	24833
837.993	24772
838.131	24753
838.269	24547
838.406	24661
838.544	24768
838.681	24456
838.819	24395
838.956	24064
839.094	24319
839.231	24281
839.369	24315
839.506	24627
839.643	24559
839.781	24228
839.918	24133
840.055	24213
840.193	24235
840.33	24285
840.467	24133
840.604	24350
840.742	24483
840.879	24133
841.016	24197
841.153	24140
841.29	24300
841.427	24171
841.564	24277
841.701	24254
841.838	24114
841.975	24072
842.112	24121
842.249	23992
842.385	23882
842.522	24270
842.659	23984
842.796	23920
842.933	24007
843.069	23741
843.206	23889
843.343	23988
843.479	23984
843.616	23897
843.752	23741
843.889	23843
844.025	23885
844.162	23726
844.298	23859
844.435	23600
844.571	23718
844.708	23695
844.844	23832
844.98	23851
845.117	23824
845.253	23547
845.389	23497
845.525	23623
845.661	23482
845.798	23425
845.934	23440
846.07	23452
846.206	23414
846.342	23589
846.478	23482
846.614	23181
846.75	23197
846.886	23090
847.022	23147
847.158	23128
847.294	23159
847.429	23098
847.565	23109
847.701	23387
847.837	23003
847.972	22896
848.108	22904
848.244	23033
848.379	22778
848.515	22835
848.65	22713
848.786	22736
848.921	22679
849.057	22793
849.192	22843
849.328	22812
849.463	22744
849.598	22736
849.734	22763
849.869	22588
850.004	22481
850.14	22596
850.275	22436
850.41	22512
850.545	22470
850.68	22500
850.815	22459
850.95	22455
851.085	22717
851.22	22664
851.355	22504
851.49	22535
851.625	22375
851.76	22485
851.895	22413
852.03	22474
852.165	22504
852.299	22485
852.434	22664
852.569	22500
852.703	22417
852.838	22504
852.973	22683
853.107	22694
853.242	22497
853.376	22360
853.511	22223
853.645	22268
853.78	22436
853.914	22424
854.048	22173
854.183	22230
854.317	22360
854.451	22596
854.585	22299
854.72	22261
854.854	22485
854.988	22268
855.122	22348
855.256	22207
855.39	22276
855.524	22303
855.658	22367
855.792	22242
855.926	22375
856.06	22424
856.194	22428
856.327	22333
856.461	22234
856.595	22291
856.729	22306
856.862	22436
856.996	22303
857.13	22379
857.263	22554
857.397	22386
857.53	22344
857.664	22367
857.797	22432
857.931	22489
858.064	22341
858.197	22341
858.331	22329
858.464	22322
858.597	22238
858.731	22265
858.864	22211
858.997	22257
859.13	22318
859.263	22360
859.396	22470
859.529	22303
859.662	22280
859.795	22333
859.928	22344
860.061	22443
860.194	22519
860.327	22329
860.46	22371
860.592	22485
860.725	22478
860.858	22379
860.99	22329
861.123	22421
861.256	22177
861.388	22348
861.521	23041
861.653	22101
861.786	22143
861.918	22162
862.05	22211
862.183	22162
862.315	22299
862.447	22135
862.58	22306
862.712	22059
862.844	22025
862.976	22219
863.108	22135
863.24	22303
863.372	21884
863.504	22078
863.636	22067
863.768	22070
863.9	21956
864.032	21956
864.164	21937
864.296	22109
864.428	22040
864.559	22120
864.691	22101
864.823	22116
864.954	22044
865.086	22006
865.217	21949
865.349	21819
865.48	21922
865.612	21911
865.743	21968
865.875	21903
866.006	21899
866.137	21884
866.269	21930
866.4	21759
866.531	21816
866.662	21724
866.793	21850
866.924	21838
867.055	21827
867.186	21998
867.317	21876
867.448	21770
867.579	21781
867.71	21793
867.841	21899
867.972	21880
868.103	21842
868.233	21732
868.364	21816
868.495	21926
868.625	21941
868.756	22204
868.886	21987
869.017	22002
869.147	22105
869.278	22097
869.408	22048
869.539	22097
869.669	22196
869.799	22226
869.929	22287
870.06	22154
870.19	22417
870.32	22284
870.45	22554
870.58	22516
870.71	22535
870.84	22584
870.97	22447
871.1	22440
871.23	22637
871.36	22634
871.489	22485
871.619	22607
871.749	22557
871.879	22637
872.008	22828
872.138	22516
872.267	22691
872.397	22653
872.526	22360
872.656	22447
872.785	22519
872.915	22710
873.044	22687
873.173	22683
873.303	22683
873.432	22748
873.561	22892
873.69	22763
873.819	22577
873.948	22736
874.077	22717
874.206	22721
874.335	22618
874.464	22812
874.593	22995
874.722	22881
874.851	22987
874.979	22828
875.108	23052
875.237	22847
875.365	22961
875.494	22721
875.623	22927
875.751	22767
875.88	22908
876.008	22911
876.136	22995
876.265	23227
876.393	23406
876.521	23349
876.65	23284
876.778	23235
876.906	23261
877.034	23075
877.162	23265
877.29	23250
877.418	23227
877.546	23288
877.674	23273
877.802	23181
877.93	23132
878.058	23151
878.185	23185
878.313	23261
878.441	23273
878.568	22999
878.696	23098
878.824	23223
878.951	23315
879.079	23353
879.206	23543
879.333	23398
879.461	23220
879.588	23345
879.715	23429
879.842	23608
879.97	23395
880.097	23071
880.224	23041
880.351	23181
880.478	23056
880.605	23102
880.732	23094
880.859	23307
880.986	23064
881.112	23056
881.239	23086
881.366	22858
881.493	22740
881.619	22649
881.746	22904
881.872	22603
881.999	22599
882.125	22584
882.252	22645
882.378	22546
882.505	22683
882.631	22497
882.757	22424
882.883	22398
883.01	22185
883.136	22303
883.262	22207
883.388	22196
883.514	22226
883.64	22303
883.766	22204
883.892	21991
884.018	22059
884.143	22200
884.269	22333
884.395	21991
884.52	21831
884.646	21930
884.772	21823
884.897	21804
885.023	21964
885.148	22048
885.274	21941
885.399	22010
885.524	21941
885.65	21960
885.775	21926
885.9	21865
886.025	22002
886.15	22101
886.275	21941
886.4	21861
886.525	21850
886.65	21964
886.775	21903
886.9	21892
887.025	22109
887.149	22002
887.274	21606
887.399	21587
887.523	21713
887.648	21507
887.773	21644
887.897	21652
888.021	21781
888.146	21549
888.27	21701
888.395	21739
888.519	21720
888.643	21675
888.767	21736
888.891	21591
889.015	21462
889.139	21523
889.263	21378
889.387	21622
889.511	21572
889.635	21610
889.759	21545
889.883	21622
890.006	21545
890.13	21587
890.254	21363
890.377	21416
890.501	21245
890.624	21195
890.748	21226
890.871	21146
890.995	20998
891.118	20986
891.241	21066
891.364	21055
891.488	21123
891.611	21150
891.734	20979
891.857	21047
891.98	20975
892.103	21017
892.226	21001
892.349	21051
892.471	20823
892.594	20952
892.717	20963
892.839	20849
892.962	20876
893.085	21051
893.207	20902
893.33	20765
893.452	20864
893.575	21005
893.697	20952
893.819	21013
893.941	21077
894.064	21077
894.186	20796
894.308	20845
894.43	20963
894.552	21039
894.674	20941
894.796	20788
894.918	20902
895.04	20899
895.161	20960
895.283	20963
895.405	20811
895.526	20895
895.648	20956
895.769	20876
895.891	20975
896.012	21043
896.134	20967
896.255	20963
896.376	20853
896.498	20918
896.619	21020
896.74	20921
896.861	20960
896.982	21184
897.103	21378
897.224	21184
897.345	21127
897.466	21081
897.587	21127
897.708	21161
897.828	21188
897.949	21005
898.07	21013
898.19	21001
898.311	21169
898.431	21055
898.552	21096
898.672	21298
898.792	21123
898.913	21161
899.033	21001
899.153	20872
899.273	20842
899.393	20754
899.513	20887
899.633	20861
899.753	20735
899.873	20746
899.993	20834
900.113	20796
900.232	20838
900.352	20750
900.472	20667
900.591	20689
900.711	20655
900.83	20575
900.95	20720
901.069	20640
901.189	20431
901.308	20229
901.427	20298
901.546	20157
901.665	20206
901.784	20115
901.904	20096
902.023	19871
902.141	19727
902.26	19715
902.379	19772
902.498	19655
902.617	19670
902.735	19670
902.854	19582
902.973	19643
903.091	19381
903.21	19369
903.328	19369
903.446	19381
903.565	19179
903.683	19160
903.801	18932
903.919	19099
904.038	18981
904.156	18894
904.274	18928
904.392	18848
904.51	18882
904.627	18856
904.745	18924
904.863	18996
904.981	18783
905.098	18544
905.216	18502
905.334	18608
905.451	18684
905.569	18563
905.686	18696
905.803	18498
905.921	18399
906.038	18338
906.155	18277
906.272	18254
906.389	18228
906.506	18076
906.623	18064
906.74	18114
906.857	17984
906.974	18015
907.091	18182
907.208	18117
907.324	18178
907.441	17977
907.557	17843
907.674	17760
907.79	17855
907.907	17798
908.023	17790
908.139	17874
908.256	17832
908.372	17707
908.488	17729
908.604	17520
908.72	17471
908.836	17516
908.952	17532
909.068	17482
909.184	17665
909.3	17619
909.415	17558
909.531	17459
909.647	17326
909.762	17235
909.878	17159
909.993	17277
910.108	17189
910.224	17193
910.339	17197
910.454	17010
910.57	17014
910.685	16873
910.8	17189
910.915	17136
911.03	16995
911.145	16831
911.259	16847
911.374	16805
911.489	16805
911.604	16748
911.718	16603
911.833	16432
911.947	16451
912.062	16417
912.176	16519
912.291	16569
912.405	16516
912.519	16721
912.633	16710
912.748	16588
912.862	16497
912.976	16363
913.09	16230
913.204	16318
913.318	16379
913.431	16417
913.545	16443
913.659	16443
913.772	16272
913.886	16109
914	16215
914.113	16257
914.226	16344
914.34	16196
914.453	16010
914.566	16162
914.68	16063
914.793	15964
914.906	15835
915.019	15717
915.132	15751
915.245	15690
915.358	15762
915.47	15755
915.583	15732
915.696	15762
915.809	15895
915.921	15819
916.034	15675
916.146	15701
916.259	15606
916.371	15519
916.483	15671
916.595	15526
916.708	15637
916.82	15447
916.932	15485
917.044	15500
917.156	15435
917.268	15378
917.38	15431
917.491	15389
917.603	15298
917.715	15488
917.826	15523
917.938	15348
918.049	15241
918.161	15275
918.272	15469
918.384	15412
918.495	15363
918.606	15176
918.717	15070
918.828	15131
918.939	15195
919.05	14982
919.161	14994
919.272	14807
919.383	14891
919.494	15199
919.604	15211
919.715	15131
919.826	14963
919.936	15058
920.047	15097
920.157	15142
920.267	15165
920.378	15119
920.488	15074
920.598	15161
920.708	15249
920.818	15237
920.928	15123
921.038	15325
921.148	15256
921.258	14956
921.368	14876
921.477	14739
921.587	14777
921.697	14610
921.806	14823
921.916	14629
922.025	14492
922.134	14404
922.244	14400
922.353	14473
922.462	14301
922.571	14183
922.68	14081
922.789	14180
922.898	14081
923.007	13993
923.116	14100
923.224	13940
923.333	13986
923.442	13997
923.55	13849
923.659	13890
923.767	13993
923.876	13822
923.984	13871
924.092	13761
924.201	13750
924.309	13727
924.417	13715
924.525	13708
924.633	13651
924.741	14499
924.849	13537
924.956	13677
925.064	13514
925.172	13373
925.279	13457
925.387	13483
925.494	13460
925.602	13506
925.709	13491
925.816	13403
925.924	13392
926.031	13358
926.138	13354
926.245	13445
926.352	13293
926.459	13358
926.566	13434
926.673	13335
926.779	13122
926.886	13183
926.993	13004
927.099	12954
927.206	12897
927.312	12996
927.419	12939
927.525	12958
927.631	12981
927.737	12817
927.843	12840
927.95	12753
928.056	12856
928.162	12837
928.267	12844
928.373	13537
928.479	12916
928.585	12517
928.69	12707
928.796	12821
928.901	12711
929.007	12509
929.112	12650
929.218	12620
929.323	12502
929.428	12597
929.533	12700
929.638	12414
929.743	12391
929.848	12521
929.953	12475
930.058	12361
930.163	12194
930.267	12167
930.372	12296
930.477	12186
930.581	12353
930.685	12258
930.79	12007
930.894	12015
930.998	12095
931.103	12175
931.207	11863
931.311	11885
931.415	11684
931.519	11444
931.623	11448
