Data from test_V78500241_1433.txt Node
Date: Fri Mar 25 15:51:43 CST 2022
User: usil
Spectrometer: V785-0024
Trigger mode: 0
Integration Time (sec): 4.000000E-1
Scans to average: 1
Nonlinearity correction enabled: false
Boxcar width: 0
Storing dark spectrum: false
XAxis mode: Wavelengths
Number of Pixels in Spectrum: 1024
>>>>>Begin Spectral Data<<<<<
801.071	28211
801.214	28139
801.356	27953
801.499	27873
801.641	27675
801.783	27793
801.926	27819
802.068	27797
802.211	27732
802.353	27629
802.496	27443
802.638	27492
802.78	27427
802.923	27401
803.065	27367
803.208	27416
803.35	27542
803.492	27538
803.635	27660
803.777	27462
803.919	27595
804.061	27895
804.204	27675
804.346	27591
804.488	27416
804.63	27553
804.773	27515
804.915	27633
805.057	27827
805.199	27606
805.341	27766
805.483	27857
805.626	27854
805.768	27766
805.91	27895
806.052	27838
806.194	27793
806.336	27991
806.478	27934
806.62	27842
806.762	27949
806.904	28097
807.046	28379
807.188	28265
807.33	28390
807.472	28166
807.614	28017
807.756	28135
807.898	28200
808.04	28135
808.182	28242
808.324	28188
808.465	28207
808.607	28295
808.749	28489
808.891	28508
809.033	28702
809.174	28527
809.316	28428
809.458	28447
809.6	28519
809.741	28603
809.883	28668
810.025	28858
810.166	28797
810.308	28641
810.45	28694
810.591	28755
810.733	28592
810.875	28546
811.016	28519
811.158	28367
811.299	28596
811.441	28675
811.582	28668
811.724	28474
811.865	28459
812.007	28493
812.148	28360
812.29	28462
812.431	28691
812.573	28771
812.714	28915
812.855	29003
812.997	29143
813.138	29258
813.279	29151
813.421	28987
813.562	29006
813.703	28820
813.845	28824
813.986	28478
814.127	28246
814.268	27991
814.41	28200
814.551	28150
814.692	28234
814.833	28196
814.974	28044
815.115	28268
815.256	28158
815.397	27994
815.539	28025
815.68	28048
815.821	27945
815.962	27968
816.103	27861
816.244	27869
816.385	27808
816.526	27800
816.666	27572
816.807	27553
816.948	27530
817.089	27580
817.23	27523
817.371	27439
817.512	27450
817.653	27427
817.793	27405
817.934	27496
818.075	27492
818.216	27450
818.356	27348
818.497	27279
818.638	27192
818.778	27214
818.919	27112
819.06	27245
819.2	27237
819.341	27439
819.481	27431
819.622	27663
819.762	27914
819.903	27724
820.043	27599
820.184	27743
820.324	27656
820.465	27553
820.605	27603
820.746	27663
820.886	27477
821.026	27622
821.167	27477
821.307	27530
821.447	27660
821.588	27500
821.728	27214
821.868	27077
822.008	26830
822.149	27093
822.289	26743
822.429	26746
822.569	26571
822.709	26560
822.849	26389
822.99	26374
823.13	26355
823.27	26438
823.41	26332
823.55	26088
823.69	26412
823.83	26164
823.97	26111
824.11	26134
824.25	26065
824.389	26062
824.529	26218
824.669	26054
824.809	26259
824.949	26221
825.089	26256
825.228	26096
825.368	25940
825.508	25883
825.648	25959
825.787	25932
825.927	25879
826.067	25902
826.206	25883
826.346	25966
826.485	26005
826.625	26039
826.765	26020
826.904	26039
827.044	25662
827.183	25731
827.323	25712
827.462	25757
827.601	25674
827.741	25677
827.88	25662
828.02	25552
828.159	25822
828.298	25658
828.437	25750
828.577	25662
828.716	25651
828.855	25693
828.994	25384
829.134	25335
829.273	25464
829.412	25308
829.551	25285
829.69	25415
829.829	25403
829.968	25548
830.107	25346
830.246	25434
830.385	25354
830.524	25285
830.663	25145
830.802	25107
830.941	24871
831.08	24935
831.219	25031
831.357	25023
831.496	25209
831.635	25015
831.774	24882
831.913	24909
832.051	24719
832.19	24692
832.329	24867
832.467	24719
832.606	24570
832.744	24612
832.883	24544
833.022	24783
833.16	24661
833.299	24661
833.437	24566
833.576	24749
833.714	24692
833.852	24688
833.991	24806
834.129	24947
834.267	24760
834.406	24650
834.544	24696
834.682	24711
834.821	24700
834.959	24867
835.097	24688
835.235	24734
835.373	24673
835.511	24684
835.65	24540
835.788	24521
835.926	24437
836.064	24418
836.202	24388
836.34	24673
836.478	24490
836.615	24525
836.753	24597
836.891	24525
837.029	24601
837.167	24479
837.305	24228
837.443	24418
837.58	24209
837.718	24391
837.856	24357
837.993	24369
838.131	24304
838.269	24171
838.406	24330
838.544	24155
838.681	24026
838.819	24034
838.956	23931
839.094	23874
839.231	23775
839.369	23942
839.506	24121
839.643	24057
839.781	23836
839.918	23878
840.055	23779
840.193	23764
840.33	23748
840.467	23745
840.604	23741
840.742	24015
840.879	23615
841.016	23756
841.153	23623
841.29	23832
841.427	23771
841.564	23733
841.701	23642
841.838	23672
841.975	23737
842.112	23783
842.249	23471
842.385	23482
842.522	23570
842.659	23566
842.796	23440
842.933	23482
843.069	23288
843.206	23436
843.343	23531
843.479	23600
843.616	23452
843.752	23269
843.889	23261
844.025	23455
844.162	23246
844.298	23474
844.435	23254
844.571	23197
844.708	23254
844.844	23334
844.98	23402
845.117	23265
845.253	23178
845.389	23143
845.525	23136
845.661	23079
845.798	23094
845.934	22999
846.07	22908
846.206	22999
846.342	23079
846.478	23052
846.614	22797
846.75	22649
846.886	22683
847.022	22736
847.158	22618
847.294	22778
847.429	22763
847.565	22740
847.701	22976
847.837	22519
847.972	22523
848.108	22481
848.244	22500
848.379	22325
848.515	22322
848.65	22367
848.786	22405
848.921	22322
849.057	22371
849.192	22348
849.328	22428
849.463	22341
849.598	22242
849.734	22280
849.869	22238
850.004	22021
850.14	22090
850.275	22040
850.41	22002
850.545	22074
850.68	22067
850.815	22097
850.95	22067
851.085	22265
851.22	22185
851.355	22032
851.49	22128
851.625	22067
851.76	22158
851.895	22010
852.03	21994
852.165	22040
852.299	22105
852.434	22101
852.569	22124
852.703	22135
852.838	22177
852.973	22348
853.107	22196
853.242	22086
853.376	21907
853.511	21838
853.645	21831
853.78	21998
853.914	21835
854.048	21884
854.183	21960
854.317	21888
854.451	22204
854.585	21819
854.72	21899
854.854	21937
854.988	21789
855.122	21857
855.256	21793
855.39	21842
855.524	21987
855.658	21964
855.792	22010
855.926	21846
856.06	21987
856.194	21934
856.327	21808
856.461	21831
856.595	21876
856.729	21918
856.862	21998
856.996	21770
857.13	21998
857.263	22074
857.397	21949
857.53	21800
857.664	21964
857.797	21949
857.931	22032
858.064	21983
858.197	21991
858.331	21793
858.464	21907
858.597	21800
858.731	21895
858.864	21884
858.997	21857
859.13	21797
859.263	21972
859.396	21945
859.529	21945
859.662	21854
859.795	21823
859.928	21888
860.061	22029
860.194	22234
860.327	21895
860.46	21975
860.592	21998
860.725	21903
860.858	22036
860.99	21968
861.123	21846
861.256	21854
861.388	21945
861.521	22706
861.653	21770
861.786	21633
861.918	21701
862.05	21762
862.183	21808
862.315	21831
862.447	21907
862.58	21804
862.712	21606
862.844	21557
862.976	21698
863.108	21679
863.24	22154
863.372	21553
863.504	21473
863.636	21500
863.768	21603
863.9	21724
864.032	21538
864.164	21526
864.296	21580
864.428	21762
864.559	21610
864.691	21675
864.823	21679
864.954	21610
865.086	21530
865.217	21572
865.349	21370
865.48	21561
865.612	21526
865.743	21580
865.875	21492
866.006	21504
866.137	21454
866.269	21462
866.4	21496
866.531	21424
866.662	21363
866.793	21466
866.924	21428
867.055	21454
867.186	21405
867.317	21454
867.448	21283
867.579	21287
867.71	21466
867.841	21279
867.972	21393
868.103	21549
868.233	21408
868.364	21439
868.495	21610
868.625	21656
868.756	21857
868.886	21724
869.017	21701
869.147	21682
869.278	21663
869.408	21762
869.539	21622
869.669	21781
869.799	21682
869.929	21823
870.06	21694
870.19	21998
870.32	21873
870.45	21930
870.58	21994
870.71	21987
870.84	22078
870.97	22116
871.1	22036
871.23	22230
871.36	22196
871.489	22257
871.619	22276
871.749	22215
871.879	22280
872.008	22443
872.138	22333
872.267	22226
872.397	22169
872.526	22025
872.656	22109
872.785	22215
872.915	22318
873.044	22371
873.173	22344
873.303	22207
873.432	22310
873.561	22413
873.69	22314
873.819	22352
873.948	22344
874.077	22329
874.206	22226
874.335	22382
874.464	22360
874.593	22622
874.722	22523
874.851	22527
874.979	22462
875.108	22466
875.237	22497
875.365	22447
875.494	22607
875.623	22588
875.751	22516
875.88	22508
876.008	22736
876.136	22733
876.265	23056
876.393	22972
876.521	22915
876.65	23010
876.778	22953
876.906	22949
877.034	22854
877.162	22919
877.29	22869
877.418	22824
877.546	22835
877.674	22847
877.802	22725
877.93	22869
878.058	22793
878.185	22733
878.313	22896
878.441	22938
878.568	22683
878.696	22713
878.824	22904
878.951	22919
879.079	23033
879.206	23178
879.333	23029
879.461	22816
879.588	22961
879.715	23041
879.842	23162
879.97	22904
880.097	22733
880.224	22683
880.351	22645
880.478	22702
880.605	22679
880.732	22634
880.859	22797
880.986	22744
881.112	22577
881.239	22523
881.366	22474
881.493	22348
881.619	22242
881.746	22253
881.872	22382
881.999	22325
882.125	22211
882.252	22147
882.378	22090
882.505	22291
882.631	22105
882.757	22025
882.883	22002
883.01	21937
883.136	21983
883.262	21911
883.388	21747
883.514	21915
883.64	21918
883.766	21873
883.892	21690
884.018	21766
884.143	21827
884.269	21960
884.395	21644
884.52	21633
884.646	21641
884.772	21481
884.897	21591
885.023	21652
885.148	21637
885.274	21705
885.399	21660
885.524	21485
885.65	21606
885.775	21622
885.9	21648
886.025	21720
886.15	21610
886.275	21481
886.4	21534
886.525	21492
886.65	21466
886.775	21447
886.9	21545
887.025	21812
887.149	21542
887.274	21450
887.399	21408
887.523	21245
887.648	21173
887.773	21325
887.897	21424
888.021	21523
888.146	21298
888.27	21389
888.395	21397
888.519	21435
888.643	21408
888.767	21477
888.891	21241
889.015	21230
889.139	21169
889.263	21089
889.387	21325
889.511	21321
889.635	21218
889.759	21070
889.883	21093
890.006	21138
890.13	21176
890.254	21032
890.377	21001
890.501	20811
890.624	20891
890.748	20944
890.871	20663
890.995	20648
891.118	20606
891.241	20701
891.364	20727
891.488	20731
891.611	20769
891.734	20609
891.857	20762
891.98	20845
892.103	20788
892.226	20670
892.349	20648
892.471	20583
892.594	20564
892.717	20594
892.839	20526
892.962	20594
893.085	20705
893.207	20549
893.33	20469
893.452	20423
893.575	20511
893.697	20537
893.819	20758
893.941	20823
894.064	20609
894.186	20556
894.308	20617
894.43	20727
894.552	20731
894.674	20659
894.796	20480
894.918	20514
895.04	20598
895.161	20530
895.283	20571
895.405	20514
895.526	20594
895.648	20549
895.769	20625
895.891	20663
896.012	20716
896.134	20571
896.255	20659
896.376	20583
896.498	20560
896.619	20762
896.74	20575
896.861	20549
896.982	20937
897.103	20986
897.224	20914
897.345	20861
897.466	20693
897.587	20807
897.708	20918
897.828	20883
897.949	20739
898.07	20651
898.19	20663
898.311	20982
898.431	20686
898.552	20731
898.672	20796
898.792	20838
898.913	20705
899.033	20804
899.153	20450
899.273	20511
899.393	20457
899.513	20552
899.633	20434
899.753	20454
899.873	20461
899.993	20655
900.113	20461
900.232	20415
900.352	20434
900.472	20347
900.591	20286
900.711	20294
900.83	20301
900.95	20309
901.069	20309
901.189	20195
901.308	19925
901.427	19780
901.546	19898
901.665	19875
901.784	19826
901.904	19708
902.023	19700
902.141	19502
902.26	19407
902.379	19373
902.498	19460
902.617	19331
902.735	19403
902.854	19384
902.973	19263
903.091	19114
903.21	19069
903.328	19023
903.446	19038
903.565	18886
903.683	18966
903.801	18601
903.919	18734
904.038	18711
904.156	18578
904.274	18719
904.392	18563
904.51	18563
904.627	18502
904.745	18707
904.863	18650
904.981	18464
905.098	18315
905.216	18346
905.334	18300
905.451	18388
905.569	18365
905.686	18342
905.803	18243
905.921	18091
906.038	18171
906.155	18110
906.272	17980
906.389	18083
906.506	17897
906.623	17809
906.74	17748
906.857	17668
906.974	17684
907.091	17790
907.208	17984
907.324	17847
907.441	17756
907.557	17543
907.674	17490
907.79	17395
907.907	17539
908.023	17539
908.139	17512
908.256	17417
908.372	17471
908.488	17383
908.604	17284
908.72	17216
908.836	17223
908.952	17181
909.068	17239
909.184	17334
909.3	17284
909.415	17288
909.531	17155
909.647	16957
909.762	16968
909.878	16919
909.993	17037
910.108	16972
910.224	17003
910.339	16946
910.454	16744
910.57	16740
910.685	16725
910.8	16927
910.915	16809
911.03	16805
911.145	16558
911.259	16630
911.374	16504
911.489	16489
911.604	16432
911.718	16253
911.833	16261
911.947	16280
912.062	16162
912.176	16215
912.291	16257
912.405	16318
912.519	16447
912.633	16550
912.748	16280
912.862	16067
912.976	16078
913.09	15987
913.204	16032
913.318	16032
913.431	16086
913.545	16166
913.659	16192
913.772	16131
913.886	15876
914	15736
914.113	15941
914.226	15994
914.34	15926
914.453	15728
914.566	15934
914.68	15857
914.793	15709
914.906	15492
915.019	15523
915.132	15348
915.245	15534
915.358	15557
915.47	15397
915.583	15435
915.696	15458
915.809	15564
915.921	15667
916.034	15355
916.146	15386
916.259	15367
916.371	15466
916.483	15389
916.595	15336
916.708	15321
916.82	15272
916.932	15233
917.044	15241
917.156	15237
917.268	15157
917.38	15161
917.491	15100
917.603	15123
917.715	15211
917.826	15195
917.938	15089
918.049	14918
918.161	15017
918.272	15165
918.384	15131
918.495	14982
918.606	14895
918.717	14781
918.828	14853
918.939	14883
919.05	14811
919.161	14895
919.272	14606
919.383	14705
919.494	14883
919.604	15055
919.715	14826
919.826	14689
919.936	14872
920.047	14990
920.157	14842
920.267	14948
920.378	14819
920.488	14804
920.598	14960
920.708	15097
920.818	15017
920.928	14906
921.038	15097
921.148	15032
921.258	14792
921.368	14708
921.477	14575
921.587	14465
921.697	14393
921.806	14564
921.916	14457
922.025	14278
922.134	14168
922.244	14145
922.353	14282
922.462	14111
922.571	14077
922.68	13856
922.789	13811
922.898	13826
923.007	13693
923.116	13856
923.224	13811
923.333	13807
923.442	13620
923.55	13670
923.659	13685
923.767	13689
923.876	13563
923.984	13689
924.092	13407
924.201	13609
924.309	13556
924.417	13544
924.525	13468
924.633	13468
924.741	14221
924.849	13324
924.956	13426
925.064	13225
925.172	13190
925.279	13236
925.387	13187
925.494	13247
925.602	13346
925.709	13244
925.816	13118
925.924	13171
926.031	13266
926.138	13179
926.245	13354
926.352	13084
926.459	13187
926.566	13171
926.673	13091
926.779	13042
926.886	12909
926.993	12825
927.099	12787
927.206	12745
927.312	12707
927.419	12730
927.525	12776
927.631	12829
927.737	12650
927.843	12555
927.95	12486
928.056	12540
928.162	12673
928.267	12528
928.373	13308
928.479	12662
928.585	12494
928.69	12544
928.796	12509
928.901	12422
929.007	12414
929.112	12433
929.218	12475
929.323	12289
929.428	12422
929.533	12422
929.638	12289
929.743	12262
929.848	12327
929.953	12205
930.058	12144
930.163	12003
930.267	12026
930.372	12148
930.477	11969
930.581	12213
930.685	12079
930.79	11843
930.894	11885
930.998	11843
931.103	12049
931.207	11707
931.311	11638
931.415	11486
931.519	11223
931.623	11231
