Data from test_V78500241_1827.txt Node
Date: Fri Mar 25 15:54:27 CST 2022
User: usil
Spectrometer: V785-0024
Trigger mode: 0
Integration Time (sec): 4.000000E-1
Scans to average: 1
Nonlinearity correction enabled: false
Boxcar width: 0
Storing dark spectrum: false
XAxis mode: Wavelengths
Number of Pixels in Spectrum: 1024
>>>>>Begin Spectral Data<<<<<
801.071	28607
801.214	28546
801.356	28424
801.499	28257
801.641	28246
801.783	28226
801.926	28314
802.068	28242
802.211	28192
802.353	28223
802.496	27937
802.638	27972
802.78	27880
802.923	27869
803.065	27812
803.208	27899
803.35	27964
803.492	28166
803.635	28013
803.777	28025
803.919	28188
804.061	28424
804.204	28154
804.346	28048
804.488	28067
804.63	28131
804.773	28162
804.915	28226
805.057	28337
805.199	28238
805.341	28207
805.483	28325
805.626	28352
805.768	28173
805.91	28246
806.052	28352
806.194	28348
806.336	28519
806.478	28291
806.62	28375
806.762	28481
806.904	28710
807.046	28942
807.188	28828
807.33	28793
807.472	28782
807.614	28706
807.756	28763
807.898	28615
808.04	28668
808.182	28630
808.324	28702
808.465	28809
808.607	28885
808.749	29090
808.891	29094
809.033	29181
809.174	29022
809.316	29121
809.458	29060
809.6	28934
809.741	29121
809.883	29094
810.025	29448
810.166	29421
810.308	29345
810.45	29284
810.591	29204
810.733	29113
810.875	29174
811.016	29060
811.158	28866
811.299	29086
811.441	29216
811.582	29261
811.724	29006
811.865	29044
812.007	29014
812.148	29064
812.29	28980
812.431	29193
812.573	29254
812.714	29577
812.855	29547
812.997	29554
813.138	29809
813.279	29665
813.421	29558
813.562	29490
813.703	29414
813.845	29239
813.986	29022
814.127	28862
814.268	28790
814.41	28809
814.551	28797
814.692	28839
814.833	28630
814.974	28782
815.115	28881
815.256	28641
815.397	28584
815.539	28706
815.68	28611
815.821	28485
815.962	28470
816.103	28432
816.244	28443
816.385	28295
816.526	28257
816.666	28131
816.807	27987
816.948	27934
817.089	28109
817.23	28185
817.371	28048
817.512	28017
817.653	28204
817.793	27991
817.934	27991
818.075	27987
818.216	28333
818.356	27964
818.497	27903
818.638	27732
818.778	27797
818.919	27819
819.06	27880
819.2	27781
819.341	27983
819.481	28116
819.622	28215
819.762	28504
819.903	28166
820.043	28284
820.184	28173
820.324	28287
820.465	28234
820.605	28158
820.746	28223
820.886	28029
821.026	28318
821.167	28112
821.307	28234
821.447	28158
821.588	27907
821.728	27975
821.868	27743
822.008	27538
822.149	27583
822.289	27603
822.429	27302
822.569	27249
822.709	27264
822.849	27154
822.99	27062
823.13	26963
823.27	26899
823.41	26826
823.55	26834
823.69	26910
823.83	26880
823.97	26807
824.11	26625
824.25	26823
824.389	26716
824.529	26727
824.669	26746
824.809	26975
824.949	26823
825.089	26788
825.228	26819
825.368	26674
825.508	26492
825.648	26549
825.787	26758
825.927	26579
826.067	26568
826.206	26560
826.346	26621
826.485	26670
826.625	26362
826.765	26526
826.904	26682
827.044	26396
827.183	26450
827.323	26218
827.462	26317
827.601	26366
827.741	26210
827.88	26237
828.02	26130
828.159	26347
828.298	26469
828.437	26259
828.577	26237
828.716	26408
828.855	26229
828.994	25974
829.134	26183
829.273	25974
829.412	26016
829.551	25837
829.69	25864
829.829	26043
829.968	26081
830.107	26001
830.246	25978
830.385	25951
830.524	25993
830.663	25841
830.802	25681
830.941	25662
831.08	25563
831.219	25620
831.357	25540
831.496	25898
831.635	25529
831.774	25445
831.913	25377
832.051	25506
832.19	25392
832.329	25411
832.467	25228
832.606	25343
832.744	25202
832.883	25263
833.022	25251
833.16	25251
833.299	25285
833.437	25293
833.576	25339
833.714	25301
833.852	25339
833.991	25384
834.129	25597
834.267	25316
834.406	25384
834.544	25312
834.682	25297
834.821	25354
834.959	25613
835.097	25133
835.235	25285
835.373	25362
835.511	25304
835.65	25217
835.788	25190
835.926	25061
836.064	25008
836.202	24943
836.34	25118
836.478	25221
836.615	25183
836.753	25129
836.891	25289
837.029	25316
837.167	25080
837.305	25084
837.443	25057
837.58	25027
837.718	25118
837.856	25046
837.993	24837
838.131	25019
838.269	24943
838.406	24882
838.544	24856
838.681	24551
838.819	24505
838.956	24448
839.094	24403
839.231	24540
839.369	24681
839.506	24928
839.643	24700
839.781	24483
839.918	24350
840.055	24574
840.193	24384
840.33	24205
840.467	24338
840.604	24471
840.742	24589
840.879	24334
841.016	24292
841.153	24201
841.29	24445
841.427	24346
841.564	24224
841.701	24285
841.838	24270
841.975	24194
842.112	24186
842.249	24262
842.385	24049
842.522	24304
842.659	24266
842.796	24133
842.933	24064
843.069	24079
843.206	24064
843.343	24114
843.479	24121
843.616	24129
843.752	23980
843.889	23847
844.025	24068
844.162	23821
844.298	23866
844.435	23771
844.571	23923
844.708	23828
844.844	24007
844.98	24064
845.117	23954
845.253	23733
845.389	23741
845.525	23729
845.661	23726
845.798	23524
845.934	23729
846.07	23482
846.206	23501
846.342	23748
846.478	23592
846.614	23326
846.75	23288
846.886	23334
847.022	23307
847.158	23414
847.294	23258
847.429	23288
847.565	23223
847.701	23661
847.837	23014
847.972	23006
848.108	23121
848.244	23227
848.379	23018
848.515	22877
848.65	22889
848.786	22911
848.921	22816
849.057	23052
849.192	22987
849.328	22999
849.463	22858
849.598	22843
849.734	22843
849.869	22771
850.004	22694
850.14	22527
850.275	22561
850.41	22527
850.545	22607
850.68	22561
850.815	22687
850.95	22615
851.085	22797
851.22	22774
851.355	22717
851.49	22672
851.625	22683
851.76	22687
851.895	22656
852.03	22603
852.165	22626
852.299	22717
852.434	22694
852.569	22771
852.703	22771
852.838	22736
852.973	22843
853.107	22889
853.242	22725
853.376	22462
853.511	22440
853.645	22382
853.78	22675
853.914	22493
854.048	22493
854.183	22485
854.317	22531
854.451	22774
854.585	22436
854.72	22508
854.854	22531
854.988	22489
855.122	22424
855.256	22299
855.39	22447
855.524	22649
855.658	22527
855.792	22481
855.926	22504
856.06	22413
856.194	22489
856.327	22584
856.461	22428
856.595	22443
856.729	22523
856.862	22538
856.996	22527
857.13	22554
857.263	22637
857.397	22630
857.53	22481
857.664	22508
857.797	22596
857.931	22649
858.064	22417
858.197	22653
858.331	22440
858.464	22402
858.597	22478
858.731	22424
858.864	22394
858.997	22493
859.13	22516
859.263	22527
859.396	22535
859.529	22466
859.662	22409
859.795	22462
859.928	22481
860.061	22634
860.194	22607
860.327	22466
860.46	22474
860.592	22584
860.725	22733
860.858	22599
860.99	22546
861.123	22390
861.256	22249
861.388	22527
861.521	23121
861.653	22382
861.786	22253
861.918	22318
862.05	22405
862.183	22329
862.315	22337
862.447	22409
862.58	22474
862.712	22196
862.844	22246
862.976	22287
863.108	22318
863.24	22668
863.372	22070
863.504	22173
863.636	22265
863.768	22135
863.9	22242
864.032	22173
864.164	22230
864.296	22059
864.428	22341
864.559	22120
864.691	22310
864.823	22124
864.954	22246
865.086	22211
865.217	22158
865.349	21979
865.48	22013
865.612	22074
865.743	22181
865.875	22105
866.006	22086
866.137	21972
866.269	22002
866.4	21956
866.531	21987
866.662	21991
866.793	21968
866.924	22025
867.055	21972
867.186	21968
867.317	22006
867.448	21964
867.579	21892
867.71	21880
867.841	21865
867.972	21911
868.103	22105
868.233	21979
868.364	21983
868.495	22101
868.625	22143
868.756	22462
868.886	22234
869.017	22265
869.147	22356
869.278	22352
869.408	22219
869.539	22200
869.669	22200
869.799	22276
869.929	22322
870.06	22386
870.19	22649
870.32	22622
870.45	22577
870.58	22694
870.71	22740
870.84	22580
870.97	22694
871.1	22687
871.23	22831
871.36	22881
871.489	22679
871.619	22949
871.749	22710
871.879	22862
872.008	22942
872.138	22835
872.267	22904
872.397	22835
872.526	22588
872.656	22660
872.785	22660
872.915	22801
873.044	23003
873.173	22976
873.303	22927
873.432	22919
873.561	22862
873.69	22828
873.819	22896
873.948	23003
874.077	22889
874.206	22812
874.335	22938
874.464	23022
874.593	23056
874.722	22972
874.851	23090
874.979	23208
875.108	23223
875.237	22972
875.365	22885
875.494	23006
875.623	23060
875.751	22972
875.88	23200
876.008	23185
876.136	23280
876.265	23455
876.393	23657
876.521	23520
876.65	23543
876.778	23509
876.906	23334
877.034	23303
877.162	23436
877.29	23410
877.418	23417
877.546	23353
877.674	23280
877.802	23463
877.93	23296
878.058	23368
878.185	23322
878.313	23356
878.441	23478
878.568	23220
878.696	23402
878.824	23433
878.951	23463
879.079	23554
879.206	23676
879.333	23474
879.461	23387
879.588	23433
879.715	23573
879.842	23752
879.97	23425
880.097	23216
880.224	23193
880.351	23391
880.478	23303
880.605	23124
880.732	23151
880.859	23425
880.986	23193
881.112	23193
881.239	23086
881.366	23071
881.493	22923
881.619	22824
881.746	22831
881.872	22927
881.999	22740
882.125	22793
882.252	22729
882.378	22786
882.505	22847
882.631	22573
882.757	22500
882.883	22580
883.01	22546
883.136	22325
883.262	22440
883.388	22333
883.514	22478
883.64	22462
883.766	22344
883.892	22268
884.018	22204
884.143	22322
884.269	22440
884.395	22196
884.52	22013
884.646	22109
884.772	22097
884.897	21934
885.023	22013
885.148	22284
885.274	22223
885.399	22162
885.524	22169
885.65	22070
885.775	22188
885.9	22120
886.025	22234
886.15	22219
886.275	21994
886.4	22090
886.525	22086
886.65	21911
886.775	22048
886.9	22120
887.025	22341
887.149	22074
887.274	21892
887.399	21972
887.523	21861
887.648	21899
887.773	21793
887.897	21884
888.021	21861
888.146	21759
888.27	21861
888.395	21934
888.519	21876
888.643	21857
888.767	21736
888.891	21797
889.015	21690
889.139	21595
889.263	21568
889.387	21720
889.511	21838
889.635	21800
889.759	21637
889.883	21614
890.006	21701
890.13	21736
890.254	21561
890.377	21557
890.501	21374
890.624	21291
890.748	21416
890.871	21298
890.995	21165
891.118	21058
891.241	21142
891.364	21211
891.488	21211
891.611	21161
891.734	21214
891.857	21207
891.98	21058
892.103	21146
892.226	21058
892.349	21272
892.471	20971
892.594	20960
892.717	21051
892.839	21009
892.962	21161
893.085	21188
893.207	21123
893.33	20975
893.452	20994
893.575	21138
893.697	21161
893.819	21230
893.941	21291
894.064	21112
894.186	21058
894.308	20998
894.43	21313
894.552	21272
894.674	21188
894.796	20952
894.918	21127
895.04	21055
895.161	21230
895.283	21150
895.405	21066
895.526	21036
895.648	21070
895.769	21051
895.891	21043
896.012	21058
896.134	21047
896.255	21085
896.376	21024
896.498	20979
896.619	21131
896.74	21157
896.861	21165
896.982	21359
897.103	21447
897.224	21237
897.345	21374
897.466	21138
897.587	21135
897.708	21420
897.828	21184
897.949	21230
898.07	20994
898.19	21123
898.311	21382
898.431	21218
898.552	21222
898.672	21321
898.792	21252
898.913	21405
899.033	21138
899.153	21093
899.273	20952
899.393	21039
899.513	20956
899.633	21009
899.753	20960
899.873	21039
899.993	21005
900.113	20864
900.232	20941
900.352	20918
900.472	20777
900.591	20701
900.711	20872
900.83	20739
900.95	20857
901.069	20872
901.189	20640
901.308	20385
901.427	20275
901.546	20183
901.665	20374
901.784	20301
901.904	20214
902.023	20176
902.141	19921
902.26	19959
902.379	20008
902.498	19890
902.617	19776
902.735	19898
902.854	19803
902.973	19689
903.091	19499
903.21	19468
903.328	19483
903.446	19480
903.565	19320
903.683	19282
903.801	19190
903.919	19301
904.038	19244
904.156	19046
904.274	19088
904.392	19000
904.51	19103
904.627	19008
904.745	19099
904.863	19038
904.981	18837
905.098	18700
905.216	18806
905.334	18814
905.451	18730
905.569	18703
905.686	18730
905.803	18665
905.921	18486
906.038	18631
906.155	18479
906.272	18410
906.389	18372
906.506	18300
906.623	18194
906.74	18247
906.857	18228
906.974	18102
907.091	18281
907.208	18319
907.324	18209
907.441	18186
907.557	17942
907.674	18041
907.79	17920
907.907	17893
908.023	17965
908.139	17961
908.256	17996
908.372	17745
908.488	17726
908.604	17695
908.72	17748
908.836	17657
908.952	17592
909.068	17592
909.184	17741
909.3	17786
909.415	17752
909.531	17589
909.647	17391
909.762	17322
909.878	17414
909.993	17315
910.108	17246
910.224	17303
910.339	17326
910.454	17204
910.57	17056
910.685	17033
910.8	17353
910.915	17356
911.03	17045
911.145	16972
911.259	16965
911.374	16877
911.489	16885
911.604	16809
911.718	16748
911.833	16649
911.947	16527
912.062	16516
912.176	16649
912.291	16672
912.405	16668
912.519	16850
912.633	16858
912.748	16717
912.862	16531
912.976	16512
913.09	16440
913.204	16451
913.318	16550
913.431	16603
913.545	16565
913.659	16436
913.772	16478
913.886	16360
914	16265
914.113	16242
914.226	16253
914.34	16352
914.453	16181
914.566	16230
914.68	16097
914.793	16204
914.906	15937
915.019	15857
915.132	15854
915.245	15808
915.358	15854
915.47	15857
915.583	15804
915.696	15941
915.809	15945
915.921	15968
916.034	15781
916.146	15842
916.259	15728
916.371	15755
916.483	15804
916.595	15652
916.708	15652
916.82	15739
916.932	15644
917.044	15599
917.156	15618
917.268	15488
917.38	15492
917.491	15488
917.603	15511
917.715	15545
917.826	15542
917.938	15424
918.049	15363
918.161	15351
918.272	15515
918.384	15454
918.495	15363
918.606	15264
918.717	15233
918.828	15367
918.939	15233
919.05	15070
919.161	15211
919.272	14994
919.383	15043
919.494	15355
919.604	15412
919.715	15184
919.826	15100
919.936	15097
920.047	15188
920.157	15192
920.267	15332
920.378	15252
920.488	15116
920.598	15351
920.708	15443
920.818	15321
920.928	15260
921.038	15424
921.148	15454
921.258	15070
921.368	15055
921.477	14914
921.587	14883
921.697	14743
921.806	14937
921.916	14746
922.025	14678
922.134	14598
922.244	14419
922.353	14598
922.462	14336
922.571	14286
922.68	14214
922.789	14138
922.898	14191
923.007	14164
923.116	14233
923.224	14225
923.333	14130
923.442	14008
923.55	13974
923.659	14065
923.767	14024
923.876	13932
923.984	14043
924.092	13906
924.201	13921
924.309	13898
924.417	13879
924.525	13769
924.633	13727
924.741	14446
924.849	13597
924.956	13689
925.064	13643
925.172	13476
925.279	13499
925.387	13445
925.494	13514
925.602	13651
925.709	13521
925.816	13274
925.924	13476
926.031	13636
926.138	13407
926.245	13457
926.352	13445
926.459	13476
926.566	13567
926.673	13346
926.779	13263
926.886	13335
926.993	13069
927.099	13046
927.206	13133
927.312	13012
927.419	13206
927.525	13141
927.631	13118
927.737	12943
927.843	12985
927.95	12798
928.056	12962
928.162	12886
928.267	12932
928.373	13514
928.479	12973
928.585	12665
928.69	12886
928.796	12825
928.901	12734
929.007	12715
929.112	12703
929.218	12730
929.323	12669
929.428	12620
929.533	12825
929.638	12570
929.743	12483
929.848	12582
929.953	12547
930.058	12486
930.163	12338
930.267	12239
930.372	12346
930.477	12163
930.581	12517
930.685	12350
930.79	12186
930.894	12129
930.998	12095
931.103	12308
931.207	11840
931.311	11840
931.415	11695
931.519	11566
931.623	11524
