Data from test_V78500241_3311.txt Node
Date: Fri Mar 25 16:04:44 CST 2022
User: usil
Spectrometer: V785-0024
Trigger mode: 0
Integration Time (sec): 4.000000E-1
Scans to average: 1
Nonlinearity correction enabled: false
Boxcar width: 0
Storing dark spectrum: false
XAxis mode: Wavelengths
Number of Pixels in Spectrum: 1024
>>>>>Begin Spectral Data<<<<<
801.071	28790
801.214	28580
801.356	28428
801.499	28428
801.641	28405
801.783	28356
801.926	28493
802.068	28455
802.211	28253
802.353	28280
802.496	28059
802.638	28006
802.78	28036
802.923	27892
803.065	27835
803.208	27895
803.35	28150
803.492	28074
803.635	28181
803.777	28051
803.919	28284
804.061	28755
804.204	28303
804.346	28131
804.488	28188
804.63	28162
804.773	28154
804.915	28284
805.057	28421
805.199	28325
805.341	28504
805.483	28348
805.626	28371
805.768	28223
805.91	28440
806.052	28409
806.194	28284
806.336	28466
806.478	28504
806.62	28436
806.762	28573
806.904	28687
807.046	29060
807.188	28877
807.33	28759
807.472	28946
807.614	28828
807.756	28835
807.898	28713
808.04	28637
808.182	28843
808.324	28930
808.465	28778
808.607	28927
808.749	29185
808.891	29273
809.033	29193
809.174	29231
809.316	29140
809.458	29094
809.6	29037
809.741	29124
809.883	29303
810.025	29421
810.166	29406
810.308	29444
810.45	29356
810.591	29296
810.733	29140
810.875	29151
811.016	29067
811.158	29006
811.299	29307
811.441	29299
811.582	29311
811.724	29098
811.865	29025
812.007	28991
812.148	29181
812.29	29204
812.431	29292
812.573	29455
812.714	29604
812.855	29657
812.997	29623
813.138	29904
813.279	29661
813.421	29596
813.562	29665
813.703	29452
813.845	29486
813.986	29242
814.127	28968
814.268	28938
814.41	28995
814.551	28877
814.692	28953
814.833	28675
814.974	28843
815.115	28904
815.256	28721
815.397	28896
815.539	28679
815.68	28774
815.821	28542
815.962	28702
816.103	28618
816.244	28557
816.385	28500
816.526	28421
816.666	28382
816.807	28318
816.948	28143
817.089	28253
817.23	28166
817.371	28261
817.512	28177
817.653	28090
817.793	28055
817.934	28063
818.075	28268
818.216	28219
818.356	28147
818.497	28036
818.638	27911
818.778	27972
818.919	27949
819.06	27941
819.2	28135
819.341	28265
819.481	28196
819.622	28261
819.762	28653
819.903	28405
820.043	28382
820.184	28409
820.324	28181
820.465	28314
820.605	28348
820.746	28226
820.886	28382
821.026	28219
821.167	28299
821.307	28196
821.447	28196
821.588	28230
821.728	27998
821.868	27854
822.008	27667
822.149	27759
822.289	27690
822.429	27260
822.569	27355
822.709	27298
822.849	27150
822.99	27233
823.13	27138
823.27	27135
823.41	27043
823.55	26960
823.69	26963
823.83	26986
823.97	26781
824.11	26845
824.25	26876
824.389	26750
824.529	26914
824.669	26716
824.809	27009
824.949	26849
825.089	26921
825.228	26891
825.368	26629
825.508	26708
825.648	26804
825.787	26731
825.927	26811
826.067	26712
826.206	26693
826.346	26727
826.485	26800
826.625	26754
826.765	26857
826.904	26739
827.044	26431
827.183	26393
827.323	26431
827.462	26503
827.601	26396
827.741	26419
827.88	26374
828.02	26408
828.159	26362
828.298	26564
828.437	26317
828.577	26393
828.716	26533
828.855	26412
828.994	26115
829.134	26191
829.273	26088
829.412	26016
829.551	26054
829.69	26081
829.829	26134
829.968	26180
830.107	26278
830.246	26050
830.385	26020
830.524	26069
830.663	25940
830.802	25947
830.941	25712
831.08	25860
831.219	25681
831.357	25830
831.496	25928
831.635	25757
831.774	25571
831.913	25499
832.051	25533
832.19	25377
832.329	25605
832.467	25449
832.606	25354
832.744	25274
832.883	25324
833.022	25377
833.16	25472
833.299	25415
833.437	25468
833.576	25620
833.714	25320
833.852	25632
833.991	25502
834.129	25449
834.267	25643
834.406	25434
834.544	25499
834.682	25392
834.821	25445
834.959	25529
835.097	25377
835.235	25476
835.373	25445
835.511	25457
835.65	25175
835.788	25422
835.926	25137
836.064	25148
836.202	25183
836.34	25145
836.478	25426
836.615	25198
836.753	25304
836.891	25335
837.029	25381
837.167	25194
837.305	25175
837.443	25148
837.58	25148
837.718	25270
837.856	25027
837.993	24951
838.131	25107
838.269	24954
838.406	24947
838.544	24920
838.681	24928
838.819	24776
838.956	24684
839.094	24494
839.231	24471
839.369	24612
839.506	25072
839.643	24745
839.781	24608
839.918	24505
840.055	24566
840.193	24509
840.33	24304
840.467	24467
840.604	24540
840.742	24646
840.879	24350
841.016	24414
841.153	24289
841.29	24570
841.427	24494
841.564	24502
841.701	24437
841.838	24410
841.975	24292
842.112	24376
842.249	24205
842.385	24350
842.522	24471
842.659	24418
842.796	24167
842.933	24216
843.069	24285
843.206	24262
843.343	24277
843.479	24197
843.616	24106
843.752	23965
843.889	23980
844.025	24117
844.162	23878
844.298	24205
844.435	23992
844.571	23939
844.708	24053
844.844	24098
844.98	24163
845.117	24072
845.253	23889
845.389	24015
845.525	23752
845.661	23866
845.798	23760
845.934	23897
846.07	23729
846.206	23672
846.342	23885
846.478	23733
846.614	23497
846.75	23364
846.886	23288
847.022	23547
847.158	23452
847.294	23474
847.429	23672
847.565	23505
847.701	23703
847.837	23254
847.972	23162
848.108	23277
848.244	23242
848.379	23155
848.515	23018
848.65	22949
848.786	23003
848.921	23143
849.057	23071
849.192	23102
849.328	23162
849.463	23128
849.598	22999
849.734	22869
849.869	22892
850.004	22763
850.14	22835
850.275	22850
850.41	22774
850.545	22706
850.68	22759
850.815	22713
850.95	22797
851.085	22949
851.22	22866
851.355	22767
851.49	22809
851.625	22831
851.76	22801
851.895	22748
852.03	22744
852.165	22668
852.299	22782
852.434	22923
852.569	22847
852.703	22786
852.838	22717
852.973	22968
853.107	22869
853.242	22641
853.376	22679
853.511	22519
853.645	22603
853.78	22748
853.914	22656
854.048	22542
854.183	22618
854.317	22702
854.451	22809
854.585	22698
854.72	22725
854.854	22736
854.988	22660
855.122	22527
855.256	22603
855.39	22634
855.524	22717
855.658	22755
855.792	22607
855.926	22675
856.06	22759
856.194	22645
856.327	22592
856.461	22516
856.595	22447
856.729	22580
856.862	22790
856.996	22637
857.13	22672
857.263	22782
857.397	22683
857.53	22615
857.664	22740
857.797	22710
857.931	22733
858.064	22664
858.197	22721
858.331	22717
858.464	22584
858.597	22637
858.731	22679
858.864	22565
858.997	22653
859.13	22645
859.263	22603
859.396	22645
859.529	22664
859.662	22557
859.795	22634
859.928	22656
860.061	22771
860.194	22713
860.327	22725
860.46	22691
860.592	22755
860.725	22843
860.858	22839
860.99	22706
861.123	22580
861.256	22554
861.388	22584
861.521	23288
861.653	22417
861.786	22500
861.918	22459
862.05	22478
862.183	22500
862.315	22531
862.447	22599
862.58	22637
862.712	22428
862.844	22394
862.976	22421
863.108	22421
863.24	22862
863.372	22211
863.504	22356
863.636	22295
863.768	22341
863.9	22299
864.032	22284
864.164	22280
864.296	22306
864.428	22421
864.559	22329
864.691	22322
864.823	22348
864.954	22322
865.086	22333
865.217	22268
865.349	22246
865.48	22261
865.612	22204
865.743	22284
865.875	22234
866.006	22173
866.137	22246
866.269	22215
866.4	22173
866.531	22063
866.662	22051
866.793	22268
866.924	22150
867.055	22139
867.186	22249
867.317	22116
867.448	22109
867.579	22112
867.71	22082
867.841	21972
867.972	22166
868.103	22131
868.233	22200
868.364	22032
868.495	22215
868.625	22341
868.756	22588
868.886	22405
869.017	22382
869.147	22409
869.278	22405
869.408	22382
869.539	22405
869.669	22561
869.799	22481
869.929	22470
870.06	22386
870.19	22763
870.32	22778
870.45	22759
870.58	22820
870.71	22915
870.84	22805
870.97	22698
871.1	22820
871.23	22953
871.36	22904
871.489	22850
871.619	22862
871.749	23029
871.879	23086
872.008	23094
872.138	22984
872.267	22965
872.397	22892
872.526	22858
872.656	22873
872.785	22881
872.915	23018
873.044	23075
873.173	23090
873.303	23128
873.432	22968
873.561	23136
873.69	22999
873.819	22987
873.948	23052
874.077	23025
874.206	22934
874.335	22961
874.464	23151
874.593	23227
874.722	23189
874.851	23231
874.979	23166
875.108	23166
875.237	23288
875.365	23083
875.494	23170
875.623	23337
875.751	23193
875.88	23159
876.008	23330
876.136	23455
876.265	23516
876.393	23756
876.521	23779
876.65	23684
876.778	23592
876.906	23520
877.034	23558
877.162	23668
877.29	23516
877.418	23474
877.546	23646
877.674	23551
877.802	23459
877.93	23680
878.058	23615
878.185	23482
878.313	23463
878.441	23497
878.568	23360
878.696	23493
878.824	23649
878.951	23707
879.079	23722
879.206	23954
879.333	23710
879.461	23611
879.588	23661
879.715	23672
879.842	23821
879.97	23703
880.097	23486
880.224	23303
880.351	23482
880.478	23368
880.605	23372
880.732	23364
880.859	23668
880.986	23455
881.112	23349
881.239	23258
881.366	23109
881.493	23075
881.619	23006
881.746	23083
881.872	22987
881.999	22987
882.125	22900
882.252	22889
882.378	22831
882.505	22953
882.631	22687
882.757	22649
882.883	22687
883.01	22653
883.136	22538
883.262	22474
883.388	22474
883.514	22546
883.64	22531
883.766	22588
883.892	22344
884.018	22424
884.143	22474
884.269	22622
884.395	22257
884.52	22253
884.646	22306
884.772	22112
884.897	22086
885.023	22318
885.148	22246
885.274	22371
885.399	22379
885.524	22375
885.65	22204
885.775	22284
885.9	22303
886.025	22261
886.15	22268
886.275	22128
886.4	22181
886.525	22246
886.65	22059
886.775	22238
886.9	22310
887.025	22459
887.149	22226
887.274	21994
887.399	22029
887.523	21930
887.648	21975
887.773	21838
887.897	22067
888.021	21975
888.146	21945
888.27	22112
888.395	22055
888.519	21979
888.643	21987
888.767	22044
888.891	21865
889.015	21778
889.139	21869
889.263	21880
889.387	21960
889.511	21949
889.635	21888
889.759	21724
889.883	21652
890.006	21705
890.13	21797
890.254	21732
890.377	21751
890.501	21576
890.624	21530
890.748	21564
890.871	21386
890.995	21401
891.118	21294
891.241	21317
891.364	21275
891.488	21416
891.611	21317
891.734	21294
891.857	21439
891.98	21325
892.103	21351
892.226	21340
892.349	21374
892.471	21127
892.594	21199
892.717	21348
892.839	21207
892.962	21241
893.085	21306
893.207	21131
893.33	21013
893.452	21051
893.575	21188
893.697	21154
893.819	21443
893.941	21477
894.064	21386
894.186	21192
894.308	21150
894.43	21340
894.552	21329
894.674	21249
894.796	21096
894.918	21317
895.04	21222
895.161	21264
895.283	21199
895.405	21028
895.526	21180
895.648	21154
895.769	21138
895.891	21150
896.012	21355
896.134	21203
896.255	21142
896.376	21154
896.498	21195
896.619	21180
896.74	21123
896.861	21302
896.982	21481
897.103	21736
897.224	21568
897.345	21454
897.466	21241
897.587	21382
897.708	21481
897.828	21447
897.949	21306
898.07	21146
898.19	21321
898.311	21412
898.431	21279
898.552	21443
898.672	21355
898.792	21435
898.913	21408
899.033	21226
899.153	21207
899.273	21017
899.393	21218
899.513	21047
899.633	21100
899.753	21127
899.873	20982
899.993	21104
900.113	21070
900.232	21039
900.352	21017
900.472	20994
900.591	20792
900.711	20944
900.83	20861
900.95	20975
901.069	20929
901.189	20838
901.308	20537
901.427	20457
901.546	20530
901.665	20476
901.784	20488
901.904	20259
902.023	20278
902.141	20096
902.26	19944
902.379	20122
902.498	19883
902.617	19921
902.735	20005
902.854	19978
902.973	19814
903.091	19712
903.21	19582
903.328	19658
903.446	19609
903.565	19411
903.683	19514
903.801	19289
903.919	19304
904.038	19384
904.156	19190
904.274	19282
904.392	19152
904.51	19091
904.627	19129
904.745	19091
904.863	19164
904.981	18924
905.098	18882
905.216	18821
905.334	18958
905.451	18757
905.569	18829
905.686	18810
905.803	18829
905.921	18536
906.038	18654
906.155	18582
906.272	18582
906.389	18445
906.506	18281
906.623	18292
906.74	18391
906.857	18239
906.974	18174
907.091	18547
907.208	18486
907.324	18376
907.441	18311
907.557	18095
907.674	18121
907.79	18019
907.907	18076
908.023	18148
908.139	18060
908.256	17999
908.372	17931
908.488	17882
908.604	17916
908.72	17741
908.836	17748
908.952	17756
909.068	17813
909.184	17832
909.3	17779
909.415	17775
909.531	17779
909.647	17448
909.762	17436
909.878	17334
909.993	17490
910.108	17539
910.224	17448
910.339	17497
910.454	17239
910.57	17200
910.685	17216
910.8	17486
910.915	17490
911.03	17189
911.145	17003
911.259	16968
911.374	17109
911.489	16965
911.604	16904
911.718	16843
911.833	16843
911.947	16752
912.062	16706
912.176	16881
912.291	16793
912.405	16835
912.519	17010
912.633	16877
912.748	16736
912.862	16710
912.976	16656
913.09	16512
913.204	16519
913.318	16706
913.431	16763
913.545	16580
913.659	16717
913.772	16519
913.886	16329
914	16344
914.113	16523
914.226	16497
914.34	16382
914.453	16265
914.566	16325
914.68	16242
914.793	16219
914.906	15964
915.019	16036
915.132	15899
915.245	15949
915.358	15895
915.47	15964
915.583	15964
915.696	16021
915.809	16097
915.921	16128
916.034	15884
916.146	15979
916.259	15823
916.371	15934
916.483	15918
916.595	15789
916.708	15739
916.82	15724
916.932	15739
917.044	15686
917.156	15694
917.268	15625
917.38	15625
917.491	15511
917.603	15637
917.715	15610
917.826	15747
917.938	15526
918.049	15466
918.161	15545
918.272	15625
918.384	15606
918.495	15538
918.606	15359
918.717	15233
918.828	15321
918.939	15321
919.05	15275
919.161	15374
919.272	15081
919.383	15169
919.494	15405
919.604	15610
919.715	15283
919.826	15272
919.936	15294
920.047	15359
920.157	15264
920.267	15428
920.378	15466
920.488	15268
920.598	15428
920.708	15610
920.818	15462
920.928	15351
921.038	15568
921.148	15359
921.258	15340
921.368	15222
921.477	14982
921.587	15020
921.697	14952
921.806	14994
921.916	14880
922.025	14823
922.134	14659
922.244	14606
922.353	14754
922.462	14587
922.571	14492
922.68	14434
922.789	14259
922.898	14202
923.007	14195
923.116	14339
923.224	14286
923.333	14267
923.442	14123
923.55	14084
923.659	14218
923.767	14225
923.876	14134
923.984	14115
924.092	14024
924.201	14027
924.309	14058
924.417	14016
924.525	13963
924.633	14054
924.741	14842
924.849	13708
924.956	13849
925.064	13803
925.172	13655
925.279	13696
925.387	13734
925.494	13708
925.602	13822
925.709	13765
925.816	13514
925.924	13651
926.031	13639
926.138	13647
926.245	13662
926.352	13495
926.459	13628
926.566	13632
926.673	13563
926.779	13403
926.886	13381
926.993	13278
927.099	13202
927.206	13213
927.312	13217
927.419	13225
927.525	13126
927.631	13228
927.737	13126
927.843	13061
927.95	12890
928.056	13099
928.162	13031
928.267	13057
928.373	13616
928.479	13069
928.585	12882
928.69	12989
928.796	13008
928.901	12909
929.007	12745
929.112	12814
929.218	12791
929.323	12772
929.428	12700
929.533	12795
929.638	12677
929.743	12741
929.848	12791
929.953	12608
930.058	12578
930.163	12384
930.267	12479
930.372	12513
930.477	12338
930.581	12646
930.685	12388
930.79	12338
930.894	12338
930.998	12285
931.103	12426
931.207	12064
931.311	11908
931.415	11840
931.519	11668
931.623	11642
