Data from test_V78500241_313.txt Node
Date: Fri Mar 25 15:43:58 CST 2022
User: usil
Spectrometer: V785-0024
Trigger mode: 0
Integration Time (sec): 4.000000E-1
Scans to average: 1
Nonlinearity correction enabled: false
Boxcar width: 0
Storing dark spectrum: false
XAxis mode: Wavelengths
Number of Pixels in Spectrum: 1024
>>>>>Begin Spectral Data<<<<<
801.071	29836
801.214	29699
801.356	29577
801.499	29627
801.641	29471
801.783	29551
801.926	29391
802.068	29433
802.211	29193
802.353	29189
802.496	29178
802.638	29102
802.78	29075
802.923	29147
803.065	29033
803.208	29090
803.35	29064
803.492	29189
803.635	29273
803.777	29227
803.919	29383
804.061	29745
804.204	29292
804.346	29269
804.488	29189
804.63	29284
804.773	29239
804.915	29497
805.057	29425
805.199	29181
805.341	29398
805.483	29410
805.626	29387
805.768	29254
805.91	29406
806.052	29299
806.194	29334
806.336	29661
806.478	29395
806.62	29406
806.762	29634
806.904	29771
807.046	29893
807.188	29817
807.33	29882
807.472	30007
807.614	29878
807.756	29802
807.898	29680
808.04	29718
808.182	29528
808.324	29562
808.465	29684
808.607	29817
808.749	29908
808.891	30262
809.033	30228
809.174	30095
809.316	30098
809.458	30133
809.6	29996
809.741	30194
809.883	30136
810.025	30407
810.166	30270
810.308	30349
810.45	30323
810.591	30201
810.733	30239
810.875	30129
811.016	30026
811.158	29908
811.299	30201
811.441	30209
811.582	30224
811.724	29988
811.865	30060
812.007	30087
812.148	29920
812.29	30121
812.431	30247
812.573	30304
812.714	30380
812.855	30608
812.997	30677
813.138	30973
813.279	30738
813.421	30467
813.562	30502
813.703	30414
813.845	30205
813.986	29950
814.127	29779
814.268	29634
814.41	29813
814.551	29566
814.692	29824
814.833	29718
814.974	29710
815.115	29718
815.256	29615
815.397	29600
815.539	29581
815.68	29512
815.821	29417
815.962	29429
816.103	29387
816.244	29379
816.385	29315
816.526	29140
816.666	29083
816.807	29048
816.948	29124
817.089	28976
817.23	28965
817.371	28968
817.512	28904
817.653	28850
817.793	28816
817.934	28927
818.075	29025
818.216	29037
818.356	28896
818.497	28858
818.638	28569
818.778	28637
818.919	28740
819.06	28854
819.2	28717
819.341	28896
819.481	28774
819.622	29128
819.762	29334
819.903	29185
820.043	29006
820.184	29025
820.324	28968
820.465	29083
820.605	29136
820.746	29052
820.886	28790
821.026	29014
821.167	28980
821.307	29155
821.447	28927
821.588	28801
821.728	28729
821.868	28561
822.008	28401
822.149	28409
822.289	28360
822.429	28021
822.569	27926
822.709	28078
822.849	28006
822.99	27945
823.13	27804
823.27	27800
823.41	27713
823.55	27511
823.69	27644
823.83	27717
823.97	27587
824.11	27336
824.25	27420
824.389	27408
824.529	27561
824.669	27473
824.809	27717
824.949	27530
825.089	27564
825.228	27523
825.368	27264
825.508	27233
825.648	27370
825.787	27359
825.927	27439
826.067	27226
826.206	27283
826.346	27332
826.485	27363
826.625	27405
826.765	27450
826.904	27431
827.044	27081
827.183	27039
827.323	26963
827.462	27066
827.601	27123
827.741	27070
827.88	27009
828.02	26963
828.159	27089
828.298	27100
828.437	27001
828.577	26906
828.716	27142
828.855	26982
828.994	26629
829.134	26689
829.273	26636
829.412	26629
829.551	26598
829.69	26606
829.829	26743
829.968	26724
830.107	26682
830.246	26678
830.385	26583
830.524	26625
830.663	26412
830.802	26377
830.941	26115
831.08	26267
831.219	26313
831.357	26328
831.496	26377
831.635	26130
831.774	26214
831.913	26092
832.051	26046
832.19	25978
832.329	26096
832.467	25849
832.606	25871
832.744	25784
832.883	25921
833.022	25830
833.16	25868
833.299	25864
833.437	25841
833.576	26111
833.714	26069
833.852	25947
833.991	26008
834.129	25883
834.267	26065
834.406	25864
834.544	25906
834.682	25814
834.821	25921
834.959	26145
835.097	25780
835.235	25940
835.373	25742
835.511	25852
835.65	25704
835.788	25849
835.926	25658
836.064	25647
836.202	25506
836.34	25712
836.478	25772
836.615	25548
836.753	25655
836.891	25746
837.029	25750
837.167	25613
837.305	25548
837.443	25377
837.58	25613
837.718	25655
837.856	25529
837.993	25620
838.131	25468
838.269	25411
838.406	25415
838.544	25335
838.681	25053
838.819	25027
838.956	24878
839.094	24924
839.231	25069
839.369	25038
839.506	25343
839.643	25187
839.781	24992
839.918	24947
840.055	24970
840.193	24848
840.33	24825
840.467	24802
840.604	24943
840.742	25228
840.879	24726
841.016	24772
841.153	24673
841.29	24890
841.427	24795
841.564	24821
841.701	24677
841.838	24829
841.975	24681
842.112	24623
842.249	24696
842.385	24612
842.522	24749
842.659	24517
842.796	24559
842.933	24483
843.069	24365
843.206	24426
843.343	24521
843.479	24441
843.616	24601
843.752	24232
843.889	24391
844.025	24414
844.162	24140
844.298	24247
844.435	24289
844.571	24171
844.708	24270
844.844	24593
844.98	24422
845.117	24292
845.253	24144
845.389	24133
845.525	24171
845.661	24258
845.798	23931
845.934	23965
846.07	24049
846.206	24007
846.342	24041
846.478	23851
846.614	23836
846.75	23619
846.886	23707
847.022	23699
847.158	23695
847.294	23874
847.429	23710
847.565	23554
847.701	23916
847.837	23433
847.972	23311
848.108	23459
848.244	23535
848.379	23303
848.515	23406
848.65	23174
848.786	23360
848.921	23220
849.057	23459
849.192	23356
849.328	23299
849.463	23235
849.598	23220
849.734	23185
849.869	23041
850.004	22946
850.14	23064
850.275	22984
850.41	22927
850.545	22946
850.68	22927
850.815	23086
850.95	22965
851.085	23208
851.22	23086
851.355	22972
851.49	22934
851.625	23018
851.76	22968
851.895	22930
852.03	22869
852.165	23025
852.299	23010
852.434	23033
852.569	23033
852.703	23052
852.838	23098
852.973	23124
853.107	23064
853.242	22972
853.376	22869
853.511	22691
853.645	22736
853.78	22809
853.914	22828
854.048	22767
854.183	22736
854.317	22896
854.451	22869
854.585	22854
854.72	22782
854.854	22828
854.988	22748
855.122	22729
855.256	22592
855.39	22824
855.524	22972
855.658	22889
855.792	22816
855.926	22900
856.06	22782
856.194	22900
856.327	22729
856.461	22809
856.595	22641
856.729	22797
856.862	22866
856.996	22786
857.13	22835
857.263	22767
857.397	22850
857.53	22812
857.664	22866
857.797	22755
857.931	22854
858.064	22854
858.197	22812
858.331	22805
858.464	22679
858.597	22622
858.731	22588
858.864	22668
858.997	22615
859.13	22801
859.263	22759
859.396	22835
859.529	22797
859.662	22687
859.795	22611
859.928	22702
860.061	22919
860.194	22904
860.327	22805
860.46	22641
860.592	22862
860.725	22824
860.858	22805
860.99	22660
861.123	22535
861.256	22687
861.388	22599
861.521	23406
861.653	22603
861.786	22561
861.918	22672
862.05	22645
862.183	22672
862.315	22774
862.447	22805
862.58	22778
862.712	22550
862.844	22333
862.976	22493
863.108	22466
863.24	22938
863.372	22337
863.504	22512
863.636	22356
863.768	22500
863.9	22478
864.032	22344
864.164	22310
864.296	22360
864.428	22493
864.559	22363
864.691	22577
864.823	22443
864.954	22329
865.086	22398
865.217	22234
865.349	22230
865.48	22226
865.612	22238
865.743	22360
865.875	22261
866.006	22333
866.137	22242
866.269	22223
866.4	22280
866.531	22238
866.662	22249
866.793	22219
866.924	22314
867.055	22329
867.186	22230
867.317	22158
867.448	22158
867.579	22112
867.71	22070
867.841	22135
867.972	22299
868.103	22204
868.233	22166
868.364	22169
868.495	22333
868.625	22341
868.756	22573
868.886	22276
869.017	22421
869.147	22519
869.278	22527
869.408	22417
869.539	22405
869.669	22577
869.799	22497
869.929	22622
870.06	22573
870.19	22630
870.32	22717
870.45	22748
870.58	22850
870.71	22835
870.84	22854
870.97	22790
871.1	22839
871.23	23029
871.36	23025
871.489	22812
871.619	23022
871.749	23098
871.879	23166
872.008	23128
872.138	23094
872.267	23029
872.397	22816
872.526	22786
872.656	22816
872.785	22869
872.915	23113
873.044	23204
873.173	22999
873.303	22991
873.432	23109
873.561	23140
873.69	23185
873.819	23010
873.948	23060
874.077	23033
874.206	22934
874.335	23029
874.464	23079
874.593	23227
874.722	23337
874.851	23311
874.979	23296
875.108	23322
875.237	23208
875.365	23105
875.494	23193
875.623	23307
875.751	23197
875.88	23265
876.008	23296
876.136	23486
876.265	23589
876.393	23798
876.521	23661
876.65	23691
876.778	23646
876.906	23482
877.034	23566
877.162	23497
877.29	23668
877.418	23676
877.546	23452
877.674	23703
877.802	23562
877.93	23615
878.058	23573
878.185	23429
878.313	23558
878.441	23547
878.568	23436
878.696	23608
878.824	23661
878.951	23592
879.079	23813
879.206	23737
879.333	23870
879.461	23543
879.588	23623
879.715	23783
879.842	23817
879.97	23596
880.097	23345
880.224	23383
880.351	23444
880.478	23326
880.605	23337
880.732	23493
880.859	23623
880.986	23387
881.112	23360
881.239	23269
881.366	23181
881.493	23079
881.619	22919
881.746	23010
881.872	22923
881.999	22850
882.125	22831
882.252	23060
882.378	22984
882.505	23056
882.631	22774
882.757	22850
882.883	22679
883.01	22740
883.136	22611
883.262	22542
883.388	22512
883.514	22599
883.64	22630
883.766	22554
883.892	22337
884.018	22500
884.143	22557
884.269	22660
884.395	22226
884.52	22154
884.646	22253
884.772	22268
884.897	22192
885.023	22261
885.148	22386
885.274	22447
885.399	22261
885.524	22318
885.65	22287
885.775	22200
885.9	22204
886.025	22447
886.15	22272
886.275	22337
886.4	22048
886.525	22101
886.65	22272
886.775	22306
886.9	22287
887.025	22489
887.149	22272
887.274	22109
887.399	22051
887.523	21907
887.648	22017
887.773	21956
887.897	22204
888.021	22093
888.146	21854
888.27	22112
888.395	22200
888.519	22097
888.643	22055
888.767	22078
888.891	21968
889.015	21789
889.139	21800
889.263	21747
889.387	21926
889.511	21892
889.635	21804
889.759	21831
889.883	21671
890.006	21774
890.13	21827
890.254	21713
890.377	21686
890.501	21576
890.624	21466
890.748	21488
890.871	21439
890.995	21321
891.118	21317
891.241	21298
891.364	21237
891.488	21488
891.611	21382
891.734	21348
891.857	21458
891.98	21420
892.103	21462
892.226	21306
892.349	21237
892.471	21096
892.594	21310
892.717	21283
892.839	21348
892.962	21252
893.085	21256
893.207	21230
893.33	21093
893.452	21135
893.575	21264
893.697	21260
893.819	21370
893.941	21405
894.064	21344
894.186	21207
894.308	21077
894.43	21260
894.552	21332
894.674	21355
894.796	21211
894.918	21131
895.04	21237
895.161	21245
895.283	21214
895.405	21100
895.526	21226
895.648	21161
895.769	21249
895.891	21199
896.012	21336
896.134	21245
896.255	21184
896.376	21214
896.498	21363
896.619	21146
896.74	21245
896.861	21260
896.982	21606
897.103	21823
897.224	21511
897.345	21397
897.466	21412
897.587	21420
897.708	21496
897.828	21397
897.949	21367
898.07	21249
898.19	21302
898.311	21488
898.431	21306
898.552	21435
898.672	21515
898.792	21408
898.913	21283
899.033	21237
899.153	21180
899.273	21123
899.393	21081
899.513	21154
899.633	21127
899.753	21169
899.873	21066
899.993	21127
900.113	20914
900.232	21055
900.352	21077
900.472	21005
900.591	20853
900.711	20963
900.83	20834
900.95	20960
901.069	20986
901.189	20724
901.308	20518
901.427	20408
901.546	20442
901.665	20503
901.784	20461
901.904	20244
902.023	20320
902.141	19982
902.26	19974
902.379	20024
902.498	19860
902.617	19883
902.735	19936
902.854	19883
902.973	19830
903.091	19529
903.21	19715
903.328	19571
903.446	19438
903.565	19358
903.683	19430
903.801	19244
903.919	19308
904.038	19331
904.156	19141
904.274	19114
904.392	19152
904.51	19114
904.627	19263
904.745	19175
904.863	19141
904.981	18837
905.098	18772
905.216	18806
905.334	18821
905.451	18962
905.569	18711
905.686	18783
905.803	18715
905.921	18467
906.038	18589
906.155	18627
906.272	18486
906.389	18486
906.506	18395
906.623	18407
906.74	18338
906.857	18228
906.974	18251
907.091	18410
907.208	18399
907.324	18270
907.441	18091
907.557	18095
907.674	17980
907.79	17965
907.907	18011
908.023	17988
908.139	17969
908.256	17935
908.372	17927
908.488	17821
908.604	17813
908.72	17646
908.836	17665
908.952	17779
909.068	17699
909.184	17661
909.3	17726
909.415	17775
909.531	17703
909.647	17497
909.762	17459
909.878	17273
909.993	17349
910.108	17299
910.224	17322
910.339	17345
910.454	17345
910.57	17147
910.685	17094
910.8	17376
910.915	17345
911.03	17022
911.145	17010
911.259	16991
911.374	17071
911.489	16900
911.604	16831
911.718	16618
911.833	16675
911.947	16607
912.062	16516
912.176	16702
912.291	16706
912.405	16675
912.519	16896
912.633	16771
912.748	16679
912.862	16675
912.976	16474
913.09	16322
913.204	16417
913.318	16478
913.431	16630
913.545	16493
913.659	16535
913.772	16451
913.886	16436
914	16371
914.113	16337
914.226	16371
914.34	16318
914.453	16090
914.566	16329
914.68	16139
914.793	16086
914.906	15945
915.019	15972
915.132	15911
915.245	15759
915.358	15816
915.47	15911
915.583	15941
915.696	15880
915.809	15983
915.921	16006
916.034	15816
916.146	15713
916.259	15698
916.371	15918
916.483	15724
916.595	15701
916.708	15641
916.82	15633
916.932	15610
917.044	15549
917.156	15564
917.268	15492
917.38	15633
917.491	15477
917.603	15336
917.715	15515
917.826	15545
917.938	15344
918.049	15252
918.161	15416
918.272	15462
918.384	15454
918.495	15374
918.606	15214
918.717	15184
918.828	15165
918.939	15317
919.05	15024
919.161	15173
919.272	14948
919.383	15036
919.494	15165
919.604	15310
919.715	15047
919.826	15066
919.936	15097
920.047	15157
920.157	15112
920.267	15294
920.378	15188
920.488	15112
920.598	15313
920.708	15420
920.818	15123
920.928	15283
921.038	15367
921.148	15405
921.258	15047
921.368	14914
921.477	14883
921.587	14944
921.697	14754
921.806	14842
921.916	14693
922.025	14571
922.134	14514
922.244	14438
922.353	14530
922.462	14355
922.571	14309
922.68	14183
922.789	14100
922.898	14103
923.007	14031
923.116	14138
923.224	14130
923.333	14012
923.442	13909
923.55	13898
923.659	13936
923.767	14012
923.876	13921
923.984	14001
924.092	13708
924.201	13928
924.309	13890
924.417	13769
924.525	13780
924.633	13818
924.741	14735
924.849	13582
924.956	13696
925.064	13529
925.172	13449
925.279	13537
925.387	13563
925.494	13582
925.602	13548
925.709	13639
925.816	13396
925.924	13343
926.031	13540
926.138	13384
926.245	13430
926.352	13297
926.459	13502
926.566	13438
926.673	13316
926.779	13171
926.886	13141
926.993	13118
927.099	13122
927.206	12993
927.312	12970
927.419	13076
927.525	13137
927.631	13023
927.737	12916
927.843	12890
927.95	12776
928.056	12905
928.162	12833
928.267	12829
928.373	13502
928.479	12973
928.585	12719
928.69	12833
928.796	12871
928.901	12719
929.007	12551
929.112	12719
929.218	12684
929.323	12650
929.428	12574
929.533	12688
929.638	12441
929.743	12521
929.848	12612
929.953	12467
930.058	12391
930.163	12277
930.267	12380
930.372	12315
930.477	12251
930.581	12376
930.685	12300
930.79	12072
930.894	12175
930.998	12049
931.103	12091
931.207	11722
931.311	11843
931.415	11661
931.519	11459
931.623	11440
