Data from test_V78500241_3254.txt Node
Date: Fri Mar 25 16:04:20 CST 2022
User: usil
Spectrometer: V785-0024
Trigger mode: 0
Integration Time (sec): 4.000000E-1
Scans to average: 1
Nonlinearity correction enabled: false
Boxcar width: 0
Storing dark spectrum: false
XAxis mode: Wavelengths
Number of Pixels in Spectrum: 1024
>>>>>Begin Spectral Data<<<<<
801.071	28812
801.214	28748
801.356	28622
801.499	28401
801.641	28417
801.783	28242
801.926	28352
802.068	28310
802.211	28386
802.353	28185
802.496	28150
802.638	28135
802.78	28002
802.923	27964
803.065	28177
803.208	28048
803.35	27968
803.492	28204
803.635	28242
803.777	28158
803.919	28295
804.061	28447
804.204	28268
804.346	28246
804.488	28173
804.63	28204
804.773	28150
804.915	28436
805.057	28409
805.199	28272
805.341	28352
805.483	28500
805.626	28443
805.768	28360
805.91	28428
806.052	28634
806.194	28474
806.336	28653
806.478	28451
806.62	28569
806.762	28634
806.904	28839
807.046	29067
807.188	28999
807.33	28938
807.472	28930
807.614	28801
807.756	28790
807.898	28831
808.04	28763
808.182	28763
808.324	28748
808.465	28854
808.607	29136
808.749	29307
808.891	29178
809.033	29391
809.174	29170
809.316	29128
809.458	29170
809.6	29193
809.741	29231
809.883	29330
810.025	29383
810.166	29455
810.308	29433
810.45	29417
810.591	29436
810.733	29197
810.875	29341
811.016	29025
811.158	29261
811.299	29322
811.441	29296
811.582	29372
811.724	29261
811.865	29124
812.007	29140
812.148	29132
812.29	29269
812.431	29303
812.573	29623
812.714	29554
812.855	29748
812.997	29764
813.138	29779
813.279	29813
813.421	29737
813.562	29676
813.703	29581
813.845	29425
813.986	29193
814.127	29018
814.268	28927
814.41	28953
814.551	28797
814.692	28904
814.833	28915
814.974	28850
815.115	28984
815.256	28755
815.397	28927
815.539	28824
815.68	28713
815.821	28736
815.962	28535
816.103	28725
816.244	28729
816.385	28588
816.526	28489
816.666	28303
816.807	28082
816.948	28147
817.089	28440
817.23	28261
817.371	28200
817.512	28158
817.653	28128
817.793	28261
817.934	28348
818.075	28173
818.216	28246
818.356	28112
818.497	28105
818.638	27884
818.778	28128
818.919	28021
819.06	27949
819.2	28135
819.341	28318
819.481	28207
819.622	28455
819.762	28508
819.903	28367
820.043	28421
820.184	28325
820.324	28299
820.465	28409
820.605	28481
820.746	28344
820.886	28276
821.026	28413
821.167	28268
821.307	28485
821.447	28219
821.588	28185
821.728	28032
821.868	27816
822.008	27762
822.149	27648
822.289	27713
822.429	27454
822.569	27401
822.709	27534
822.849	27252
822.99	27291
823.13	27184
823.27	27203
823.41	27089
823.55	26944
823.69	27195
823.83	27024
823.97	27108
824.11	26956
824.25	26735
824.389	26914
824.529	26937
824.669	26682
824.809	27047
824.949	26883
825.089	26998
825.228	26937
825.368	26864
825.508	26842
825.648	26697
825.787	26670
825.927	26682
826.067	26720
826.206	26883
826.346	26830
826.485	26705
826.625	26830
826.765	26937
826.904	26727
827.044	26526
827.183	26541
827.323	26298
827.462	26579
827.601	26552
827.741	26423
827.88	26556
828.02	26317
828.159	26400
828.298	26377
828.437	26659
828.577	26408
828.716	26602
828.855	26499
828.994	26119
829.134	26096
829.273	26168
829.412	26058
829.551	26153
829.69	26092
829.829	26153
829.968	26252
830.107	26180
830.246	26153
830.385	26073
830.524	26122
830.663	25959
830.802	25807
830.941	25803
831.08	25742
831.219	25750
831.357	25780
831.496	26046
831.635	25822
831.774	25700
831.913	25597
832.051	25426
832.19	25674
832.329	25472
832.467	25327
832.606	25247
832.744	25384
832.883	25495
833.022	25293
833.16	25499
833.299	25556
833.437	25388
833.576	25643
833.714	25438
833.852	25441
833.991	25548
834.129	25628
834.267	25529
834.406	25487
834.544	25540
834.682	25586
834.821	25518
834.959	25575
835.097	25479
835.235	25415
835.373	25411
835.511	25502
835.65	25384
835.788	25293
835.926	25320
836.064	25126
836.202	25107
836.34	25327
836.478	25392
836.615	25365
836.753	25445
836.891	25449
837.029	25331
837.167	25217
837.305	25247
837.443	25278
837.58	25175
837.718	25202
837.856	25019
837.993	25168
838.131	25179
838.269	24996
838.406	24962
838.544	24970
838.681	24886
838.819	24791
838.956	24665
839.094	24623
839.231	24563
839.369	24753
839.506	25008
839.643	24897
839.781	24650
839.918	24502
840.055	24688
840.193	24521
840.33	24399
840.467	24620
840.604	24612
840.742	24856
840.879	24361
841.016	24338
841.153	24350
841.29	24631
841.427	24399
841.564	24528
841.701	24521
841.838	24498
841.975	24380
842.112	24388
842.249	24273
842.385	24365
842.522	24475
842.659	24334
842.796	24152
842.933	24133
843.069	24106
843.206	24076
843.343	24311
843.479	24338
843.616	24448
843.752	24041
843.889	24057
844.025	24327
844.162	24034
844.298	24258
844.435	23950
844.571	24034
844.708	24049
844.844	24178
844.98	24148
845.117	24277
845.253	23965
845.389	24003
845.525	23912
845.661	23813
845.798	23745
845.934	23798
846.07	23714
846.206	23889
846.342	23874
846.478	23741
846.614	23558
846.75	23528
846.886	23410
847.022	23558
847.158	23585
847.294	23516
847.429	23535
847.565	23410
847.701	23672
847.837	23220
847.972	23086
848.108	23242
848.244	23296
848.379	23128
848.515	23181
848.65	22957
848.786	23204
848.921	23090
849.057	23140
849.192	23254
849.328	23121
849.463	23140
849.598	23044
849.734	22961
849.869	22942
850.004	22881
850.14	22877
850.275	22847
850.41	22763
850.545	22866
850.68	22839
850.815	22820
850.95	22862
851.085	23018
851.22	22892
851.355	22801
851.49	22824
851.625	22782
851.76	22767
851.895	22687
852.03	22805
852.165	22930
852.299	22927
852.434	22816
852.569	22968
852.703	22854
852.838	23022
852.973	22869
853.107	22946
853.242	22771
853.376	22637
853.511	22615
853.645	22664
853.78	22649
853.914	22675
854.048	22565
854.183	22630
854.317	22702
854.451	22831
854.585	22713
854.72	22618
854.854	22828
854.988	22691
855.122	22713
855.256	22360
855.39	22656
855.524	22706
855.658	22672
855.792	22691
855.926	22634
856.06	22691
856.194	22733
856.327	22687
856.461	22527
856.595	22538
856.729	22710
856.862	22805
856.996	22713
857.13	22782
857.263	22793
857.397	22748
857.53	22675
857.664	22641
857.797	22660
857.931	22782
858.064	22611
858.197	22774
858.331	22516
858.464	22512
858.597	22660
858.731	22649
858.864	22622
858.997	22630
859.13	22634
859.263	22782
859.396	22733
859.529	22516
859.662	22580
859.795	22687
859.928	22683
860.061	22873
860.194	22866
860.327	22763
860.46	22675
860.592	22835
860.725	22820
860.858	22698
860.99	22710
861.123	22573
861.256	22550
861.388	22668
861.521	23296
861.653	22653
861.786	22470
861.918	22550
862.05	22550
862.183	22615
862.315	22554
862.447	22637
862.58	22504
862.712	22405
862.844	22375
862.976	22531
863.108	22432
863.24	22569
863.372	22367
863.504	22265
863.636	22295
863.768	22314
863.9	22295
864.032	22261
864.164	22421
864.296	22306
864.428	22485
864.559	22451
864.691	22371
864.823	22470
864.954	22394
865.086	22413
865.217	22280
865.349	22318
865.48	22226
865.612	22242
865.743	22356
865.875	22291
866.006	22265
866.137	22169
866.269	22200
866.4	22143
866.531	22211
866.662	22006
866.793	22124
866.924	22078
867.055	22192
867.186	22177
867.317	22200
867.448	22143
867.579	22120
867.71	22131
867.841	22006
867.972	22185
868.103	22177
868.233	22109
868.364	22295
868.495	22291
868.625	22451
868.756	22363
868.886	22322
869.017	22405
869.147	22470
869.278	22493
869.408	22497
869.539	22379
869.669	22421
869.799	22432
869.929	22443
870.06	22413
870.19	22683
870.32	22561
870.45	22607
870.58	22778
870.71	22946
870.84	22873
870.97	22790
871.1	22904
871.23	22995
871.36	22968
871.489	22930
871.619	23003
871.749	22995
871.879	23029
872.008	23094
872.138	23064
872.267	22968
872.397	22816
872.526	22957
872.656	22706
872.785	22782
872.915	23121
873.044	23044
873.173	23098
873.303	23037
873.432	23098
873.561	23204
873.69	23014
873.819	22881
873.948	23124
874.077	23010
874.206	23033
874.335	23052
874.464	23204
874.593	23239
874.722	23220
874.851	23235
874.979	23402
875.108	23280
875.237	23250
875.365	23147
875.494	23197
875.623	23322
875.751	23197
875.88	23212
876.008	23296
876.136	23444
876.265	23608
876.393	23703
876.521	23691
876.65	23718
876.778	23741
876.906	23543
877.034	23703
877.162	23630
877.29	23490
877.418	23684
877.546	23608
877.674	23535
877.802	23638
877.93	23573
878.058	23501
878.185	23402
878.313	23524
878.441	23531
878.568	23330
878.696	23562
878.824	23604
878.951	23710
879.079	23832
879.206	23775
879.333	23623
879.461	23653
879.588	23737
879.715	23745
879.842	23783
879.97	23680
880.097	23482
880.224	23383
880.351	23414
880.478	23318
880.605	23288
880.732	23455
880.859	23436
880.986	23467
881.112	23360
881.239	23231
881.366	23235
881.493	23022
881.619	22892
881.746	23056
881.872	22919
881.999	22934
882.125	22831
882.252	23071
882.378	22831
882.505	23056
882.631	22713
882.757	22698
882.883	22816
883.01	22588
883.136	22550
883.262	22497
883.388	22546
883.514	22611
883.64	22733
883.766	22588
883.892	22394
884.018	22459
884.143	22527
884.269	22752
884.395	22257
884.52	22303
884.646	22291
884.772	22230
884.897	22097
885.023	22280
885.148	22394
885.274	22363
885.399	22443
885.524	22299
885.65	22299
885.775	22287
885.9	22188
886.025	22200
886.15	22299
886.275	22272
886.4	22268
886.525	22219
886.65	22261
886.775	22139
886.9	22409
887.025	22432
887.149	22268
887.274	22036
887.399	21953
887.523	21941
887.648	22013
887.773	21960
887.897	22006
888.021	21994
888.146	22029
888.27	22169
888.395	22116
888.519	22063
888.643	22082
888.767	22177
888.891	21895
889.015	21880
889.139	21770
889.263	21778
889.387	21907
889.511	22059
889.635	21930
889.759	21793
889.883	21717
890.006	21892
890.13	21941
890.254	21781
890.377	21736
890.501	21538
890.624	21625
890.748	21568
890.871	21386
890.995	21378
891.118	21340
891.241	21367
891.364	21359
891.488	21526
891.611	21332
891.734	21389
891.857	21416
891.98	21378
892.103	21302
892.226	21428
892.349	21317
892.471	21279
892.594	21249
892.717	21241
892.839	21180
892.962	21226
893.085	21351
893.207	21340
893.33	21176
893.452	21237
893.575	21230
893.697	21291
893.819	21397
893.941	21431
894.064	21283
894.186	21378
894.308	21157
894.43	21237
894.552	21363
894.674	21298
894.796	21226
894.918	21150
895.04	21184
895.161	21230
895.283	21199
895.405	21176
895.526	21287
895.648	21119
895.769	21264
895.891	21291
896.012	21332
896.134	21268
896.255	21165
896.376	21112
896.498	21138
896.619	21260
896.74	21283
896.861	21245
896.982	21580
897.103	21633
897.224	21473
897.345	21294
897.466	21340
897.587	21466
897.708	21466
897.828	21549
897.949	21329
898.07	21176
898.19	21351
898.311	21496
898.431	21302
898.552	21412
898.672	21469
898.792	21492
898.913	21481
899.033	21264
899.153	21077
899.273	21195
899.393	21150
899.513	21157
899.633	21180
899.753	21104
899.873	21085
899.993	21066
900.113	21077
900.232	21058
900.352	21142
900.472	21024
900.591	20758
900.711	20986
900.83	20811
900.95	21017
901.069	21081
901.189	20819
901.308	20640
901.427	20499
901.546	20454
901.665	20412
901.784	20568
901.904	20298
902.023	20298
902.141	20062
902.26	19947
902.379	20191
902.498	19986
902.617	19959
902.735	19902
902.854	19856
902.973	19837
903.091	19693
903.21	19597
903.328	19658
903.446	19582
903.565	19403
903.683	19362
903.801	19236
903.919	19388
904.038	19289
904.156	19247
904.274	19266
904.392	19118
904.51	19187
904.627	19148
904.745	19183
904.863	19240
904.981	19004
905.098	18840
905.216	18863
905.334	18871
905.451	18905
905.569	18760
905.686	18943
905.803	18859
905.921	18566
906.038	18684
906.155	18612
906.272	18578
906.389	18566
906.506	18410
906.623	18365
906.74	18410
906.857	18296
906.974	18243
907.091	18490
907.208	18407
907.324	18426
907.441	18296
907.557	18125
907.674	18045
907.79	18041
907.907	18114
908.023	18072
908.139	18011
908.256	17977
908.372	18022
908.488	17927
908.604	17783
908.72	17733
908.836	17847
908.952	17737
909.068	17843
909.184	17939
909.3	17870
909.415	17851
909.531	17798
909.647	17543
909.762	17497
909.878	17562
909.993	17558
910.108	17387
910.224	17474
910.339	17452
910.454	17364
910.57	17273
910.685	17246
910.8	17581
910.915	17406
911.03	17223
911.145	17220
911.259	17052
911.374	17109
911.489	16934
911.604	16999
911.718	16801
911.833	16805
911.947	16740
912.062	16649
912.176	16820
912.291	16816
912.405	16790
912.519	16904
912.633	16923
912.748	16801
912.862	16782
912.976	16691
913.09	16649
913.204	16535
913.318	16603
913.431	16679
913.545	16637
913.659	16607
913.772	16569
913.886	16546
914	16451
914.113	16577
914.226	16516
914.34	16466
914.453	16234
914.566	16493
914.68	16265
914.793	16192
914.906	16109
915.019	16017
915.132	15991
915.245	16048
915.358	16051
915.47	16074
915.583	15972
915.696	15991
915.809	16105
915.921	16131
916.034	16017
916.146	15960
916.259	15907
916.371	15941
916.483	15972
916.595	15785
916.708	15842
916.82	15831
916.932	15713
917.044	15720
917.156	15701
917.268	15641
917.38	15701
917.491	15572
917.603	15656
917.715	15827
917.826	15728
917.938	15542
918.049	15538
918.161	15568
918.272	15633
918.384	15717
918.495	15564
918.606	15447
918.717	15302
918.828	15389
918.939	15443
919.05	15241
919.161	15359
919.272	15119
919.383	15161
919.494	15431
919.604	15656
919.715	15344
919.826	15173
919.936	15188
920.047	15405
920.157	15249
920.267	15488
920.378	15325
920.488	15264
920.598	15412
920.708	15572
920.818	15340
920.928	15477
921.038	15603
921.148	15561
921.258	15260
921.368	15203
921.477	15066
921.587	15005
921.697	14842
921.806	15024
921.916	14906
922.025	14693
922.134	14659
922.244	14606
922.353	14735
922.462	14556
922.571	14511
922.68	14385
922.789	14313
922.898	14389
923.007	14256
923.116	14301
923.224	14301
923.333	14267
923.442	14138
923.55	14096
923.659	14157
923.767	14271
923.876	14183
923.984	14172
924.092	14031
924.201	14039
924.309	14058
924.417	14054
924.525	13944
924.633	14081
924.741	14663
924.849	13845
924.956	13925
925.064	13742
925.172	13750
925.279	13658
925.387	13616
925.494	13719
925.602	13788
925.709	13746
925.816	13510
925.924	13586
926.031	13658
926.138	13636
926.245	13597
926.352	13567
926.459	13708
926.566	13624
926.673	13571
926.779	13422
926.886	13392
926.993	13301
927.099	13251
927.206	13240
927.312	13133
927.419	13263
927.525	13240
927.631	13236
927.737	13183
927.843	13038
927.95	12973
928.056	13004
928.162	13027
928.267	13107
928.373	13537
928.479	13061
928.585	12882
928.69	13008
928.796	13080
928.901	12928
929.007	12753
929.112	12871
929.218	12871
929.323	12783
929.428	12654
929.533	12878
929.638	12616
929.743	12700
929.848	12604
929.953	12604
930.058	12494
930.163	12403
930.267	12490
930.372	12589
930.477	12361
930.581	12604
930.685	12399
930.79	12319
930.894	12346
930.998	12190
931.103	12315
931.207	12064
931.311	11950
931.415	11912
931.519	11680
931.623	11646
