Data from test_V78500241_865.txt Node
Date: Fri Mar 25 15:47:47 CST 2022
User: usil
Spectrometer: V785-0024
Trigger mode: 0
Integration Time (sec): 4.000000E-1
Scans to average: 1
Nonlinearity correction enabled: false
Boxcar width: 0
Storing dark spectrum: false
XAxis mode: Wavelengths
Number of Pixels in Spectrum: 1024
>>>>>Begin Spectral Data<<<<<
801.071	27500
801.214	27504
801.356	27245
801.499	26994
801.641	26914
801.783	26899
801.926	27001
802.068	26944
802.211	26906
802.353	26864
802.496	26640
802.638	26488
802.78	26640
802.923	26549
803.065	26476
803.208	26594
803.35	26564
803.492	26674
803.635	26693
803.777	26693
803.919	26948
804.061	27093
804.204	26788
804.346	26823
804.488	26632
804.63	26739
804.773	26659
804.915	26765
805.057	26838
805.199	26636
805.341	26963
805.483	26880
805.626	26887
805.768	26746
805.91	26861
806.052	26823
806.194	26731
806.336	27188
806.478	26979
806.62	27066
806.762	27013
806.904	27195
807.046	27435
807.188	27397
807.33	27275
807.472	27500
807.614	27386
807.756	27355
807.898	27401
808.04	27146
808.182	27233
808.324	27081
808.465	27169
808.607	27393
808.749	27587
808.891	27660
809.033	27679
809.174	27667
809.316	27504
809.458	27557
809.6	27599
809.741	27698
809.883	27759
810.025	27892
810.166	27747
810.308	27869
810.45	27903
810.591	27679
810.733	27557
810.875	27515
811.016	27458
811.158	27431
811.299	27736
811.441	27743
811.582	27671
811.724	27519
811.865	27481
812.007	27473
812.148	27526
812.29	27618
812.431	27717
812.573	27914
812.714	27991
812.855	28055
812.997	28116
813.138	28360
813.279	28147
813.421	28112
813.562	28078
813.703	27945
813.845	27861
813.986	27408
814.127	27344
814.268	27169
814.41	27188
814.551	27218
814.692	27199
814.833	27165
814.974	27013
815.115	27340
815.256	27142
815.397	27070
815.539	26971
815.68	27005
815.821	26960
815.962	26933
816.103	26971
816.244	26906
816.385	26891
816.526	26777
816.666	26606
816.807	26473
816.948	26514
817.089	26526
817.23	26457
817.371	26492
817.512	26492
817.653	26488
817.793	26476
817.934	26549
818.075	26473
818.216	26434
818.356	26393
818.497	26389
818.638	26320
818.778	26233
818.919	26305
819.06	26313
819.2	26320
819.341	26446
819.481	26381
819.622	26674
819.762	26765
819.903	26807
820.043	26617
820.184	26667
820.324	26625
820.465	26602
820.605	26670
820.746	26640
820.886	26545
821.026	26590
821.167	26530
821.307	26651
821.447	26476
821.588	26423
821.728	26248
821.868	26122
822.008	26107
822.149	25879
822.289	26001
822.429	25856
822.569	25681
822.709	25616
822.849	25495
822.99	25502
823.13	25491
823.27	25403
823.41	25293
823.55	25209
823.69	25206
823.83	25270
823.97	25179
824.11	25084
824.25	25019
824.389	25019
824.529	25282
824.669	25198
824.809	25259
824.949	25129
825.089	25152
825.228	25206
825.368	24916
825.508	24837
825.648	24985
825.787	24981
825.927	24954
826.067	24989
826.206	24996
826.346	25069
826.485	24875
826.625	25031
826.765	25190
826.904	24916
827.044	24764
827.183	24764
827.323	24745
827.462	24711
827.601	24768
827.741	24707
827.88	24882
828.02	24635
828.159	24673
828.298	24719
828.437	24623
828.577	24635
828.716	24764
828.855	24601
828.994	24334
829.134	24380
829.273	24395
829.412	24399
829.551	24270
829.69	24338
829.829	24445
829.968	24357
830.107	24540
830.246	24372
830.385	24342
830.524	24216
830.663	24182
830.802	24064
830.941	23950
831.08	24011
831.219	24045
831.357	24091
831.496	24216
831.635	23958
831.774	23973
831.913	23939
832.051	23786
832.19	23771
832.329	23809
832.467	23691
832.606	23589
832.744	23596
832.883	23657
833.022	23665
833.16	23630
833.299	23687
833.437	23657
833.576	23710
833.714	23703
833.852	23767
833.991	23901
834.129	23946
834.267	23901
834.406	23718
834.544	23680
834.682	23771
834.821	23847
834.959	23859
835.097	23707
835.235	23798
835.373	23741
835.511	23794
835.65	23501
835.788	23516
835.926	23524
836.064	23372
836.202	23364
836.34	23535
836.478	23649
836.615	23490
836.753	23596
836.891	23581
837.029	23611
837.167	23474
837.305	23493
837.443	23501
837.58	23372
837.718	23414
837.856	23425
837.993	23368
838.131	23440
838.269	23216
838.406	23315
838.544	23227
838.681	23056
838.819	23121
838.956	22873
839.094	22949
839.231	22934
839.369	23003
839.506	23356
839.643	23109
839.781	22858
839.918	22862
840.055	22881
840.193	22793
840.33	22763
840.467	22919
840.604	22824
840.742	23185
840.879	22634
841.016	22683
841.153	22721
841.29	22919
841.427	22668
841.564	22664
841.701	22706
841.838	22649
841.975	22626
842.112	22702
842.249	22656
842.385	22542
842.522	22805
842.659	22588
842.796	22409
842.933	22531
843.069	22573
843.206	22466
843.343	22611
843.479	22615
843.616	22535
843.752	22459
843.889	22440
844.025	22337
844.162	22192
844.298	22390
844.435	22226
844.571	22265
844.708	22207
844.844	22474
844.98	22356
845.117	22451
845.253	22287
845.389	22196
845.525	22188
845.661	22124
845.798	22013
845.934	22101
846.07	22021
846.206	22093
846.342	22230
846.478	22078
846.614	22010
846.75	21667
846.886	21679
847.022	21934
847.158	21838
847.294	21747
847.429	21747
847.565	21759
847.701	22017
847.837	21435
847.972	21545
848.108	21545
848.244	21469
848.379	21462
848.515	21256
848.65	21363
848.786	21351
848.921	21370
849.057	21485
849.192	21454
849.328	21439
849.463	21348
849.598	21302
849.734	21226
849.869	21138
850.004	21256
850.14	21195
850.275	21252
850.41	21100
850.545	21047
850.68	21146
850.815	21066
850.95	21260
851.085	21348
851.22	21340
851.355	21169
851.49	21173
851.625	21077
851.76	21108
851.895	21100
852.03	21028
852.165	21119
852.299	21154
852.434	21264
852.569	21085
852.703	21039
852.838	21226
852.973	21393
853.107	21207
853.242	21116
853.376	20982
853.511	20986
853.645	20986
853.78	21058
853.914	20986
854.048	21024
854.183	21001
854.317	21074
854.451	21207
854.585	20990
854.72	20925
854.854	20952
854.988	20921
855.122	20975
855.256	20853
855.39	21017
855.524	21024
855.658	20979
855.792	21104
855.926	20967
856.06	21013
856.194	21104
856.327	21001
856.461	20899
856.595	20872
856.729	20895
856.862	21066
856.996	20842
857.13	21214
857.263	21085
857.397	21020
857.53	20944
857.664	20952
857.797	20990
857.931	21165
858.064	20998
858.197	21104
858.331	21070
858.464	20861
858.597	20883
858.731	20937
858.864	20880
858.997	20902
859.13	20982
859.263	20990
859.396	21024
859.529	20883
859.662	20887
859.795	20967
859.928	21051
860.061	21161
860.194	21028
860.327	21039
860.46	21062
860.592	21104
860.725	21119
860.858	21127
860.99	21013
861.123	20910
861.256	20845
861.388	20994
861.521	21488
861.653	20864
861.786	20842
861.918	20765
862.05	20872
862.183	20906
862.315	20902
862.447	20849
862.58	21017
862.712	20651
862.844	20667
862.976	20735
863.108	20739
863.24	21116
863.372	20617
863.504	20648
863.636	20609
863.768	20864
863.9	20644
864.032	20697
864.164	20568
864.296	20746
864.428	20887
864.559	20788
864.691	20686
864.823	20716
864.954	20621
865.086	20629
865.217	20594
865.349	20602
865.48	20541
865.612	20632
865.743	20693
865.875	20686
866.006	20526
866.137	20655
866.269	20575
866.4	20686
866.531	20632
866.662	20469
866.793	20552
866.924	20632
867.055	20499
867.186	20533
867.317	20549
867.448	20404
867.579	20495
867.71	20343
867.841	20454
867.972	20545
868.103	20450
868.233	20465
868.364	20480
868.495	20606
868.625	20811
868.756	20872
868.886	20701
869.017	20758
869.147	20826
869.278	20720
869.408	20800
869.539	20697
869.669	20838
869.799	20720
869.929	20941
870.06	20853
870.19	21104
870.32	20971
870.45	21036
870.58	21116
870.71	21218
870.84	21211
870.97	21108
871.1	21154
871.23	21264
871.36	21435
871.489	21283
871.619	21249
871.749	21211
871.879	21469
872.008	21351
872.138	21401
872.267	21428
872.397	21184
872.526	21089
872.656	21275
872.785	21203
872.915	21397
873.044	21389
873.173	21397
873.303	21458
873.432	21340
873.561	21401
873.69	21542
873.819	21344
873.948	21416
874.077	21348
874.206	21351
874.335	21332
874.464	21538
874.593	21637
874.722	21622
874.851	21603
874.979	21660
875.108	21808
875.237	21492
875.365	21534
875.494	21644
875.623	21618
875.751	21572
875.88	21728
876.008	21747
876.136	21827
876.265	21994
876.393	22147
876.521	22074
876.65	22120
876.778	21937
876.906	21755
877.034	21987
877.162	21842
877.29	21922
877.418	21911
877.546	22025
877.674	22021
877.802	22013
877.93	22013
878.058	21846
878.185	21903
878.313	21987
878.441	21956
878.568	21759
878.696	21800
878.824	21869
878.951	22059
879.079	22082
879.206	22128
879.333	22280
879.461	21907
879.588	22025
879.715	22090
879.842	22200
879.97	22086
880.097	21728
880.224	21854
880.351	21736
880.478	21808
880.605	21663
880.732	21873
880.859	21998
880.986	21831
881.112	21816
881.239	21675
881.366	21622
881.493	21523
881.619	21378
881.746	21431
881.872	21245
881.999	21298
882.125	21325
882.252	21424
882.378	21275
882.505	21401
882.631	21192
882.757	21039
882.883	21157
883.01	21047
883.136	20937
883.262	21017
883.388	20967
883.514	21062
883.64	21195
883.766	20982
883.892	20762
884.018	20933
884.143	20994
884.269	21169
884.395	20648
884.52	20640
884.646	20731
884.772	20640
884.897	20518
885.023	20636
885.148	20891
885.274	20891
885.399	20819
885.524	20769
885.65	20686
885.775	20705
885.9	20655
886.025	20735
886.15	20811
886.275	20712
886.4	20720
886.525	20708
886.65	20644
886.775	20716
886.9	20769
887.025	20960
887.149	20705
887.274	20564
887.399	20450
887.523	20442
887.648	20511
887.773	20427
887.897	20594
888.021	20541
888.146	20499
888.27	20537
888.395	20674
888.519	20492
888.643	20568
888.767	20488
888.891	20347
889.015	20343
889.139	20404
889.263	20237
889.387	20427
889.511	20549
889.635	20415
889.759	20229
889.883	20343
890.006	20324
890.13	20511
890.254	20275
890.377	20210
890.501	20107
890.624	20008
890.748	20153
890.871	19967
890.995	19921
891.118	19913
891.241	20012
891.364	19921
891.488	20111
891.611	19852
891.734	19982
891.857	19989
891.98	19849
892.103	19974
892.226	19841
892.349	19909
892.471	19719
892.594	19917
892.717	19776
892.839	19761
892.962	19742
893.085	19883
893.207	19784
893.33	19715
893.452	19666
893.575	19868
893.697	19894
893.819	19879
893.941	20088
894.064	19997
894.186	19704
894.308	19769
894.43	19837
894.552	19959
894.674	19963
894.796	19674
894.918	19837
895.04	19769
895.161	19932
895.283	19845
895.405	19887
895.526	19769
895.648	19750
895.769	19807
895.891	19879
896.012	19986
896.134	19932
896.255	19818
896.376	19723
896.498	19822
896.619	19875
896.74	19799
896.861	19868
896.982	20157
897.103	20290
897.224	20069
897.345	20012
897.466	19993
897.587	20005
897.708	20130
897.828	20024
897.949	19963
898.07	19887
898.19	19974
898.311	20134
898.431	20035
898.552	20035
898.672	20210
898.792	20176
898.913	20092
899.033	19940
899.153	19814
899.273	19753
899.393	19746
899.513	19913
899.633	19845
899.753	19826
899.873	19738
899.993	19700
900.113	19837
900.232	19769
900.352	19727
900.472	19670
900.591	19483
900.711	19499
900.83	19518
900.95	19639
901.069	19590
901.189	19533
901.308	19301
901.427	19095
901.546	19244
901.665	19213
901.784	19247
901.904	19103
902.023	18871
902.141	18791
902.26	18798
902.379	18707
902.498	18684
902.617	18688
902.735	18776
902.854	18692
902.973	18669
903.091	18433
903.21	18281
903.328	18342
903.446	18330
903.565	18197
903.683	18296
903.801	18091
903.919	18129
904.038	18060
904.156	17946
904.274	18034
904.392	18057
904.51	17870
904.627	17897
904.745	18011
904.863	18019
904.981	17775
905.098	17611
905.216	17676
905.334	17676
905.451	17551
905.569	17520
905.686	17752
905.803	17585
905.921	17387
906.038	17528
906.155	17429
906.272	17398
906.389	17322
906.506	17041
906.623	17197
906.74	17090
906.857	17071
906.974	17128
907.091	17193
907.208	17250
907.324	17170
907.441	17029
907.557	16946
907.674	16839
907.79	16873
907.907	16782
908.023	16839
908.139	16889
908.256	16797
908.372	16847
908.488	16744
908.604	16710
908.72	16588
908.836	16527
908.952	16577
909.068	16664
909.184	16710
909.3	16634
909.415	16656
909.531	16561
909.647	16455
909.762	16341
909.878	16276
909.993	16344
910.108	16363
910.224	16265
910.339	16265
910.454	16185
910.57	16207
910.685	15926
910.8	16306
910.915	16249
911.03	16071
911.145	15926
911.259	15949
911.374	15937
911.489	15766
911.604	15778
911.718	15641
911.833	15667
911.947	15580
912.062	15462
912.176	15762
912.291	15759
912.405	15667
912.519	15873
912.633	15865
912.748	15690
912.862	15637
912.976	15443
913.09	15329
913.204	15401
913.318	15504
913.431	15584
913.545	15545
913.659	15572
913.772	15416
913.886	15378
914	15317
914.113	15389
914.226	15382
914.34	15264
914.453	15180
914.566	15313
914.68	15268
914.793	15123
914.906	14971
915.019	14899
915.132	14826
915.245	14853
915.358	14914
915.47	14929
915.583	14876
915.696	14864
915.809	15020
915.921	15089
916.034	14777
916.146	14785
916.259	14701
916.371	14792
916.483	14918
916.595	14731
916.708	14811
916.82	14781
916.932	14644
917.044	14750
917.156	14602
917.268	14495
917.38	14526
917.491	14552
917.603	14473
917.715	14587
917.826	14583
917.938	14454
918.049	14404
918.161	14533
918.272	14663
918.384	14610
918.495	14488
918.606	14282
918.717	14176
918.828	14298
918.939	14362
919.05	14256
919.161	14298
919.272	14126
919.383	14183
919.494	14362
919.604	14594
919.715	14339
919.826	14218
919.936	14271
920.047	14324
920.157	14336
920.267	14480
920.378	14336
920.488	14317
920.598	14530
920.708	14625
920.818	14499
920.928	14351
921.038	14541
921.148	14545
921.258	14248
921.368	14161
921.477	14081
921.587	14020
921.697	13890
921.806	14069
921.916	13875
922.025	13696
922.134	13674
922.244	13685
922.353	13620
922.462	13597
922.571	13495
922.68	13282
922.789	13377
922.898	13304
923.007	13171
923.116	13285
923.224	13384
923.333	13304
923.442	13168
923.55	13198
923.659	13209
923.767	13247
923.876	13095
923.984	13190
924.092	13065
924.201	13057
924.309	13110
924.417	13031
924.525	13023
924.633	13038
924.741	13883
924.849	12814
924.956	12909
925.064	12840
925.172	12719
925.279	12703
925.387	12791
925.494	12859
925.602	12886
925.709	12768
925.816	12684
925.924	12719
926.031	12817
926.138	12681
926.245	12673
926.352	12597
926.459	12738
926.566	12696
926.673	12593
926.779	12502
926.886	12437
926.993	12410
927.099	12346
927.206	12220
927.312	12194
927.419	12433
927.525	12384
927.631	12372
927.737	12186
927.843	12159
927.95	12011
928.056	12190
928.162	12190
928.267	12216
928.373	12642
928.479	12167
928.585	11977
928.69	12015
928.796	12102
928.901	12045
929.007	11847
929.112	12003
929.218	11965
929.323	11920
929.428	11866
929.533	12034
929.638	11866
929.743	11840
929.848	11832
929.953	11897
930.058	11794
930.163	11592
930.267	11554
930.372	11752
930.477	11554
930.581	11809
930.685	11554
930.79	11410
930.894	11543
930.998	11425
931.103	11509
931.207	11216
931.311	11132
931.415	11060
931.519	10885
931.623	10831
