Data from test_V78500241_1017.txt Node
Date: Fri Mar 25 15:48:50 CST 2022
User: usil
Spectrometer: V785-0024
Trigger mode: 0
Integration Time (sec): 4.000000E-1
Scans to average: 1
Nonlinearity correction enabled: false
Boxcar width: 0
Storing dark spectrum: false
XAxis mode: Wavelengths
Number of Pixels in Spectrum: 1024
>>>>>Begin Spectral Data<<<<<
801.071	28131
801.214	28006
801.356	27854
801.499	27751
801.641	27686
801.783	27751
801.926	27671
802.068	27736
802.211	27622
802.353	27443
802.496	27393
802.638	27287
802.78	27184
802.923	27329
803.065	27180
803.208	27203
803.35	27245
803.492	27359
803.635	27477
803.777	27431
803.919	27408
804.061	27656
804.204	27481
804.346	27488
804.488	27325
804.63	27443
804.773	27389
804.915	27519
805.057	27557
805.199	27401
805.341	27610
805.483	27690
805.626	27545
805.768	27568
805.91	27614
806.052	27660
806.194	27633
806.336	27774
806.478	27736
806.62	27778
806.762	27770
806.904	27899
807.046	28124
807.188	27983
807.33	28135
807.472	28147
807.614	27869
807.756	28051
807.898	27895
808.04	27865
808.182	27888
808.324	27926
808.465	28090
808.607	28120
808.749	28223
808.891	28386
809.033	28443
809.174	28223
809.316	28268
809.458	28238
809.6	28139
809.741	28421
809.883	28546
810.025	28668
810.166	28626
810.308	28717
810.45	28561
810.591	28428
810.733	28409
810.875	28325
811.016	28150
811.158	28314
811.299	28390
811.441	28493
811.582	28504
811.724	28192
811.865	28265
812.007	28314
812.148	28322
812.29	28337
812.431	28542
812.573	28691
812.714	28736
812.855	28790
812.997	28949
813.138	29162
813.279	28877
813.421	28934
813.562	28729
813.703	28660
813.845	28516
813.986	28310
814.127	28158
814.268	27956
814.41	27983
814.551	28010
814.692	28070
814.833	28059
814.974	28021
815.115	28025
815.256	27793
815.397	27823
815.539	27914
815.68	27759
815.821	27816
815.962	27819
816.103	27930
816.244	27686
816.385	27488
816.526	27603
816.666	27435
816.807	27256
816.948	27355
817.089	27485
817.23	27393
817.371	27173
817.512	27237
817.653	27226
817.793	27264
817.934	27207
818.075	27184
818.216	27427
818.356	27249
818.497	27256
818.638	26990
818.778	27188
818.919	27024
819.06	27116
819.2	27211
819.341	27226
819.481	27344
819.622	27427
819.762	27660
819.903	27603
820.043	27564
820.184	27454
820.324	27500
820.465	27496
820.605	27367
820.746	27367
820.886	27226
821.026	27378
821.167	27393
821.307	27557
821.447	27325
821.588	27222
821.728	27165
821.868	26937
822.008	26842
822.149	26777
822.289	26807
822.429	26670
822.569	26400
822.709	26423
822.849	26339
822.99	26351
823.13	26240
823.27	26100
823.41	26153
823.55	25890
823.69	26046
823.83	26206
823.97	26126
824.11	25833
824.25	25791
824.389	25833
824.529	26031
824.669	25856
824.809	26111
824.949	25887
825.089	25978
825.228	26126
825.368	25666
825.508	25803
825.648	25875
825.787	25818
825.927	25917
826.067	25833
826.206	25753
826.346	25807
826.485	25890
826.625	25799
826.765	25917
826.904	25814
827.044	25601
827.183	25468
827.323	25529
827.462	25449
827.601	25533
827.741	25632
827.88	25445
828.02	25407
828.159	25422
828.298	25525
828.437	25476
828.577	25445
828.716	25529
828.855	25533
828.994	25270
829.134	25259
829.273	25213
829.412	25156
829.551	25088
829.69	25190
829.829	25255
829.968	25179
830.107	25278
830.246	25190
830.385	25164
830.524	25042
830.663	25072
830.802	24962
830.941	24837
831.08	24787
831.219	24928
831.357	24730
831.496	25023
831.635	24863
831.774	24772
831.913	24646
832.051	24623
832.19	24555
832.329	24665
832.467	24357
832.606	24498
832.744	24456
832.883	24513
833.022	24426
833.16	24422
833.299	24646
833.437	24452
833.576	24513
833.714	24517
833.852	24616
833.991	24502
834.129	24677
834.267	24616
834.406	24608
834.544	24646
834.682	24585
834.821	24582
834.959	24658
835.097	24528
835.235	24582
835.373	24532
835.511	24460
835.65	24456
835.788	24376
835.926	24213
836.064	24144
836.202	24159
836.34	24445
836.478	24452
836.615	24376
836.753	24342
836.891	24376
837.029	24460
837.167	24323
837.305	24190
837.443	24243
837.58	24091
837.718	24285
837.856	24140
837.993	24041
838.131	24258
838.269	24011
838.406	24129
838.544	23996
838.681	23847
838.819	23802
838.956	23684
839.094	23630
839.231	23627
839.369	23790
839.506	23958
839.643	23790
839.781	23695
839.918	23771
840.055	23729
840.193	23581
840.33	23520
840.467	23714
840.604	23581
840.742	23988
840.879	23490
841.016	23570
841.153	23520
841.29	23684
841.427	23543
841.564	23695
841.701	23581
841.838	23520
841.975	23490
842.112	23524
842.249	23349
842.385	23364
842.522	23714
842.659	23471
842.796	23330
842.933	23261
843.069	23265
843.206	23337
843.343	23360
843.479	23376
843.616	23376
843.752	23060
843.889	23128
844.025	23189
844.162	23197
844.298	23250
844.435	23029
844.571	23079
844.708	23155
844.844	23166
844.98	23052
845.117	23288
845.253	23064
845.389	22991
845.525	22987
845.661	22991
845.798	22919
845.934	22919
846.07	22831
846.206	22774
846.342	23003
846.478	22919
846.614	22615
846.75	22557
846.886	22519
847.022	22618
847.158	22618
847.294	22550
847.429	22634
847.565	22531
847.701	22881
847.837	22337
847.972	22265
848.108	22398
848.244	22478
848.379	22200
848.515	22219
848.65	22101
848.786	22188
848.921	22242
849.057	22230
849.192	22200
849.328	22124
849.463	22162
849.598	22154
849.734	21949
849.869	21956
850.004	21854
850.14	22006
850.275	21835
850.41	21850
850.545	21930
850.68	21781
850.815	21918
850.95	21888
851.085	22128
851.22	22040
851.355	21876
851.49	22025
851.625	21956
851.76	21888
851.895	21831
852.03	21804
852.165	21857
852.299	21956
852.434	22093
852.569	21934
852.703	21953
852.838	22086
852.973	21998
853.107	22067
853.242	21831
853.376	21808
853.511	21603
853.645	21656
853.78	21876
853.914	21774
854.048	21583
854.183	21804
854.317	21793
854.451	22006
854.585	21736
854.72	21793
854.854	21850
854.988	21720
855.122	21823
855.256	21648
855.39	21724
855.524	21812
855.658	21781
855.792	21899
855.926	21724
856.06	21698
856.194	21720
856.327	21690
856.461	21652
856.595	21797
856.729	21663
856.862	21857
856.996	21732
857.13	21717
857.263	21831
857.397	21892
857.53	21808
857.664	21808
857.797	21888
857.931	21831
858.064	21911
858.197	21895
858.331	21793
858.464	21633
858.597	21564
858.731	21774
858.864	21652
858.997	21739
859.13	21633
859.263	21793
859.396	21907
859.529	21770
859.662	21766
859.795	21709
859.928	21823
860.061	21994
860.194	21934
860.327	21842
860.46	21671
860.592	21804
860.725	21998
860.858	21968
860.99	21823
861.123	21739
861.256	21785
861.388	21663
861.521	22523
861.653	21633
861.786	21625
861.918	21663
862.05	21637
862.183	21637
862.315	21534
862.447	21762
862.58	21686
862.712	21469
862.844	21481
862.976	21561
863.108	21564
863.24	21994
863.372	21412
863.504	21428
863.636	21374
863.768	21443
863.9	21435
864.032	21408
864.164	21447
864.296	21443
864.428	21553
864.559	21519
864.691	21507
864.823	21504
864.954	21519
865.086	21435
865.217	21439
865.349	21222
865.48	21306
865.612	21313
865.743	21428
865.875	21355
866.006	21374
866.137	21450
866.269	21420
866.4	21298
866.531	21344
866.662	21279
866.793	21195
866.924	21351
867.055	21272
867.186	21233
867.317	21272
867.448	21081
867.579	21252
867.71	21077
867.841	21233
867.972	21268
868.103	21310
868.233	21222
868.364	21287
868.495	21336
868.625	21454
868.756	21599
868.886	21367
869.017	21374
869.147	21720
869.278	21656
869.408	21454
869.539	21523
869.669	21595
869.799	21641
869.929	21682
870.06	21629
870.19	21903
870.32	21793
870.45	21812
870.58	21968
870.71	22101
870.84	22040
870.97	21937
871.1	21903
871.23	22029
871.36	22040
871.489	22093
871.619	21991
871.749	21968
871.879	22032
872.008	22120
872.138	22230
872.267	22093
872.397	21926
872.526	21922
872.656	21979
872.785	21972
872.915	22181
873.044	22188
873.173	22143
873.303	22207
873.432	22150
873.561	22230
873.69	22128
873.819	21991
873.948	22128
874.077	22135
874.206	22147
874.335	22109
874.464	22303
874.593	22436
874.722	22367
874.851	22421
874.979	22504
875.108	22409
875.237	22268
875.365	22287
875.494	22459
875.623	22474
875.751	22246
875.88	22337
876.008	22455
876.136	22588
876.265	22660
876.393	22885
876.521	22812
876.65	22881
876.778	22713
876.906	22729
877.034	22733
877.162	22782
877.29	22603
877.418	22740
877.546	22748
877.674	22717
877.802	22683
877.93	22672
878.058	22626
878.185	22759
878.313	22569
878.441	22713
878.568	22481
878.696	22577
878.824	22725
878.951	22752
879.079	22987
879.206	22968
879.333	22790
879.461	22809
879.588	22721
879.715	22869
879.842	22972
879.97	22793
880.097	22504
880.224	22527
880.351	22577
880.478	22535
880.605	22535
880.732	22436
880.859	22771
880.986	22542
881.112	22512
881.239	22390
881.366	22325
881.493	22139
881.619	22253
881.746	22139
881.872	22215
881.999	22032
882.125	21998
882.252	22051
882.378	22044
882.505	22188
882.631	22032
882.757	21846
882.883	21850
883.01	21739
883.136	21797
883.262	21622
883.388	21610
883.514	21739
883.64	21789
883.766	21701
883.892	21530
884.018	21542
884.143	21698
884.269	21732
884.395	21439
884.52	21355
884.646	21382
884.772	21363
884.897	21329
885.023	21466
885.148	21652
885.274	21603
885.399	21511
885.524	21344
885.65	21260
885.775	21447
885.9	21431
886.025	21500
886.15	21488
886.275	21496
886.4	21420
886.525	21370
886.65	21298
886.775	21237
886.9	21420
887.025	21454
887.149	21416
887.274	21222
887.399	21218
887.523	21237
887.648	21180
887.773	21043
887.897	21283
888.021	21195
888.146	21028
888.27	21306
888.395	21325
888.519	21188
888.643	21127
888.767	21283
888.891	21135
889.015	21047
889.139	21005
889.263	21017
889.387	21192
889.511	21252
889.635	21055
889.759	21013
889.883	21001
890.006	20960
890.13	21138
890.254	20872
890.377	20762
890.501	20739
890.624	20754
890.748	20754
890.871	20594
890.995	20545
891.118	20537
891.241	20697
891.364	20575
891.488	20674
891.611	20526
891.734	20617
891.857	20564
891.98	20480
892.103	20545
892.226	20583
892.349	20556
892.471	20339
892.594	20404
892.717	20503
892.839	20393
892.962	20450
893.085	20617
893.207	20454
893.33	20366
893.452	20320
893.575	20484
893.697	20499
893.819	20556
893.941	20720
894.064	20556
894.186	20320
894.308	20404
894.43	20461
894.552	20530
894.674	20629
894.796	20499
894.918	20427
895.04	20469
895.161	20545
895.283	20488
895.405	20457
895.526	20419
895.648	20488
895.769	20480
895.891	20476
896.012	20648
896.134	20488
896.255	20412
896.376	20355
896.498	20514
896.619	20564
896.74	20484
896.861	20484
896.982	20758
897.103	20891
897.224	20727
897.345	20708
897.466	20598
897.587	20712
897.708	20792
897.828	20720
897.949	20621
898.07	20560
898.19	20541
898.311	20815
898.431	20644
898.552	20678
898.672	20682
898.792	20918
898.913	20731
899.033	20549
899.153	20511
899.273	20454
899.393	20434
899.513	20495
899.633	20461
899.753	20499
899.873	20377
899.993	20431
900.113	20286
900.232	20377
900.352	20351
900.472	20145
900.591	20107
900.711	20336
900.83	20145
900.95	20362
901.069	20332
901.189	20062
901.308	19822
901.427	19818
901.546	19811
901.665	19761
901.784	19784
901.904	19620
902.023	19529
902.141	19346
902.26	19411
902.379	19422
902.498	19244
902.617	19240
902.735	19316
902.854	19225
902.973	19301
903.091	18875
903.21	19050
903.328	18996
903.446	18928
903.565	18829
903.683	18852
903.801	18646
903.919	18745
904.038	18601
904.156	18559
904.274	18597
904.392	18506
904.51	18513
904.627	18502
904.745	18456
904.863	18635
904.981	18323
905.098	18224
905.216	18174
905.334	18159
905.451	18197
905.569	18106
905.686	18178
905.803	18182
905.921	18079
906.038	18159
906.155	18045
906.272	17745
906.389	17939
906.506	17802
906.623	17817
906.74	17748
906.857	17581
906.974	17642
907.091	17767
907.208	17855
907.324	17733
907.441	17558
907.557	17433
907.674	17334
907.79	17414
907.907	17273
908.023	17478
908.139	17524
908.256	17391
908.372	17273
908.488	17356
908.604	17231
908.72	17170
908.836	17181
908.952	17060
909.068	17143
909.184	17174
909.3	17143
909.415	17102
909.531	17132
909.647	16991
909.762	16877
909.878	16953
909.993	16957
910.108	16828
910.224	16820
910.339	16889
910.454	16748
910.57	16691
910.685	16550
910.8	16919
910.915	16793
911.03	16618
911.145	16405
911.259	16500
911.374	16440
911.489	16382
911.604	16223
911.718	16284
911.833	16246
911.947	16150
912.062	16048
912.176	16219
912.291	16242
912.405	16143
912.519	16421
912.633	16375
912.748	16226
912.862	16090
912.976	16048
913.09	15880
913.204	15907
913.318	16055
913.431	15998
913.545	16006
913.659	16082
913.772	15956
913.886	15797
914	15842
914.113	15888
914.226	15854
914.34	15876
914.453	15736
914.566	15831
914.68	15671
914.793	15709
914.906	15424
915.019	15401
915.132	15443
915.245	15428
915.358	15374
915.47	15450
915.583	15420
915.696	15439
915.809	15488
915.921	15515
916.034	15458
916.146	15256
916.259	15351
916.371	15367
916.483	15306
916.595	15180
916.708	15233
916.82	15112
916.932	15169
917.044	15108
917.156	15081
917.268	15062
917.38	14967
917.491	15009
917.603	15005
917.715	15150
917.826	15093
917.938	14929
918.049	14849
918.161	14975
918.272	15085
918.384	15146
918.495	14899
918.606	14925
918.717	14689
918.828	14842
918.939	14769
919.05	14663
919.161	14834
919.272	14590
919.383	14613
919.494	14895
919.604	14925
919.715	14849
919.826	14758
919.936	14674
920.047	14815
920.157	14727
920.267	14956
920.378	14682
920.488	14758
920.598	14895
920.708	15028
920.818	14918
920.928	14895
921.038	15055
921.148	14982
921.258	14632
921.368	14640
921.477	14438
921.587	14438
921.697	14381
921.806	14446
921.916	14309
922.025	14271
922.134	14134
922.244	14073
922.353	14199
922.462	13932
922.571	14008
922.68	13780
922.789	13765
922.898	13750
923.007	13696
923.116	13841
923.224	13769
923.333	13765
923.442	13597
923.55	13578
923.659	13597
923.767	13651
923.876	13548
923.984	13620
924.092	13499
924.201	13609
924.309	13518
924.417	13438
924.525	13396
924.633	13377
924.741	14172
924.849	13209
924.956	13407
925.064	13118
925.172	13137
925.279	13084
925.387	13213
925.494	13179
925.602	13369
925.709	13217
925.816	12977
925.924	13114
926.031	13213
926.138	13175
926.245	13164
926.352	13061
926.459	13088
926.566	13168
926.673	13004
926.779	12890
926.886	12878
926.993	12779
927.099	12711
927.206	12700
927.312	12688
927.419	12711
927.525	12711
927.631	12772
927.737	12585
927.843	12570
927.95	12467
928.056	12540
928.162	12494
928.267	12506
928.373	13072
928.479	12623
928.585	12429
928.69	12456
928.796	12475
928.901	12433
929.007	12201
929.112	12429
929.218	12273
929.323	12258
929.428	12194
929.533	12315
929.638	12197
929.743	12239
929.848	12262
929.953	12186
930.058	12148
930.163	11935
930.267	11961
930.372	12121
930.477	11912
930.581	12140
930.685	11939
930.79	11904
930.894	11855
930.998	11832
931.103	11992
931.207	11600
931.311	11532
931.415	11436
931.519	11265
931.623	11189
