Data from test_V78500241_35.txt Node
Date: Fri Mar 25 15:42:02 CST 2022
User: usil
Spectrometer: V785-0024
Trigger mode: 0
Integration Time (sec): 4.000000E-1
Scans to average: 1
Nonlinearity correction enabled: false
Boxcar width: 0
Storing dark spectrum: false
XAxis mode: Wavelengths
Number of Pixels in Spectrum: 1024
>>>>>Begin Spectral Data<<<<<
801.071	28086
801.214	28025
801.356	27819
801.499	27682
801.641	27595
801.783	27545
801.926	27618
802.068	27538
802.211	27488
802.353	27424
802.496	27146
802.638	27249
802.78	27173
802.923	27138
803.065	27138
803.208	27047
803.35	27154
803.492	27211
803.635	27287
803.777	27180
803.919	27237
804.061	27488
804.204	27275
804.346	27070
804.488	27112
804.63	27176
804.773	27058
804.915	27180
805.057	27203
805.199	27108
805.341	27131
805.483	27374
805.626	27291
805.768	27157
805.91	27119
806.052	27203
806.194	27051
806.336	27351
806.478	27321
806.62	27123
806.762	27374
806.904	27519
807.046	27648
807.188	27610
807.33	27557
807.472	27622
807.614	27504
807.756	27603
807.898	27313
808.04	27416
808.182	27306
808.324	27435
808.465	27424
808.607	27538
808.749	27641
808.891	27808
809.033	27808
809.174	27720
809.316	27724
809.458	27633
809.6	27572
809.741	27797
809.883	27736
810.025	27979
810.166	27835
810.308	27937
810.45	27960
810.591	27770
810.733	27694
810.875	27443
811.016	27477
811.158	27351
811.299	27530
811.441	27724
811.582	27846
811.724	27622
811.865	27538
812.007	27618
812.148	27519
812.29	27587
812.431	27743
812.573	27937
812.714	27888
812.855	28044
812.997	28181
813.138	28299
813.279	28185
813.421	28230
813.562	28070
813.703	27812
813.845	27675
813.986	27370
814.127	27317
814.268	26952
814.41	27142
814.551	27062
814.692	27051
814.833	27001
814.974	27070
815.115	27001
815.256	27024
815.397	26994
815.539	26891
815.68	26838
815.821	26697
815.962	26788
816.103	26781
816.244	26735
816.385	26514
816.526	26499
816.666	26400
816.807	26073
816.948	26237
817.089	26339
817.23	26240
817.371	26355
817.512	26259
817.653	26062
817.793	26161
817.934	26210
818.075	26153
818.216	26126
818.356	26138
818.497	25951
818.638	25765
818.778	25807
818.919	25742
819.06	25928
819.2	25864
819.341	26069
819.481	26027
819.622	26237
819.762	26370
819.903	26385
820.043	26157
820.184	26149
820.324	26107
820.465	26183
820.605	26187
820.746	26008
820.886	26088
821.026	25978
821.167	26001
821.307	26077
821.447	26027
821.588	25928
821.728	26031
821.868	25666
822.008	25548
822.149	25411
822.289	25343
822.429	25240
822.569	25217
822.709	25202
822.849	24935
822.99	24821
823.13	24913
823.27	24932
823.41	24768
823.55	24738
823.69	24722
823.83	24669
823.97	24795
824.11	24525
824.25	24361
824.389	24475
824.529	24642
824.669	24311
824.809	24563
824.949	24566
825.089	24505
825.228	24414
825.368	24190
825.508	24197
825.648	24270
825.787	24251
825.927	24330
826.067	24247
826.206	24205
826.346	24342
826.485	24338
826.625	24372
826.765	24357
826.904	24186
827.044	23958
827.183	24121
827.323	23882
827.462	23923
827.601	23870
827.741	23828
827.88	23843
828.02	23805
828.159	23748
828.298	23843
828.437	23874
828.577	23745
828.716	23946
828.855	23764
828.994	23482
829.134	23627
829.273	23611
829.412	23592
829.551	23535
829.69	23505
829.829	23615
829.968	23604
830.107	23623
830.246	23512
830.385	23509
830.524	23406
830.663	23551
830.802	23132
830.941	22995
831.08	23162
831.219	23197
831.357	23067
831.496	23239
831.635	23128
831.774	22991
831.913	22976
832.051	22809
832.19	22862
832.329	22767
832.467	22691
832.606	22717
832.744	22755
832.883	22603
833.022	22641
833.16	22683
833.299	22809
833.437	22774
833.576	22733
833.714	22691
833.852	22687
833.991	22615
834.129	22911
834.267	22740
834.406	22691
834.544	22664
834.682	22748
834.821	22637
834.959	22778
835.097	22637
835.235	22725
835.373	22721
835.511	22767
835.65	22485
835.788	22504
835.926	22382
836.064	22348
836.202	22459
836.34	22668
836.478	22660
836.615	22538
836.753	22535
836.891	22508
837.029	22622
837.167	22569
837.305	22390
837.443	22443
837.58	22333
837.718	22371
837.856	22337
837.993	22306
838.131	22284
838.269	22329
838.406	22356
838.544	22154
838.681	21975
838.819	21770
838.956	21873
839.094	21827
839.231	21892
839.369	21968
839.506	22177
839.643	21972
839.781	21861
839.918	21614
840.055	21804
840.193	21698
840.33	21755
840.467	21625
840.604	21842
840.742	21972
840.879	21542
841.016	21595
841.153	21481
841.29	21694
841.427	21648
841.564	21762
841.701	21679
841.838	21587
841.975	21595
842.112	21629
842.249	21466
842.385	21412
842.522	21660
842.659	21485
842.796	21416
842.933	21561
843.069	21359
843.206	21370
843.343	21439
843.479	21336
843.616	21367
843.752	21214
843.889	21089
844.025	21150
844.162	21123
844.298	21218
844.435	21077
844.571	21036
844.708	21070
844.844	21150
844.98	21325
845.117	21192
845.253	21020
845.389	21074
845.525	20929
845.661	20960
845.798	20899
845.934	20834
846.07	20788
846.206	20998
846.342	20876
846.478	20842
846.614	20613
846.75	20450
846.886	20560
847.022	20450
847.158	20609
847.294	20579
847.429	20560
847.565	20575
847.701	20754
847.837	20286
847.972	20275
848.108	20256
848.244	20366
848.379	20100
848.515	20119
848.65	20134
848.786	20100
848.921	20187
849.057	20164
849.192	20225
849.328	20065
849.463	20168
849.598	20119
849.734	20054
849.869	19917
850.004	19769
850.14	19837
850.275	19811
850.41	19788
850.545	19784
850.68	19795
850.815	19860
850.95	19685
851.085	19963
851.22	19887
851.355	20005
851.49	19784
851.625	19811
851.76	19674
851.895	19746
852.03	19670
852.165	19769
852.299	19841
852.434	19681
852.569	19784
852.703	19830
852.838	19841
852.973	20020
853.107	19887
853.242	19731
853.376	19639
853.511	19499
853.645	19556
853.78	19833
853.914	19643
854.048	19620
854.183	19632
854.317	19723
854.451	19689
854.585	19613
854.72	19487
854.854	19712
854.988	19506
855.122	19597
855.256	19441
855.39	19674
855.524	19662
855.658	19601
855.792	19620
855.926	19727
856.06	19715
856.194	19658
856.327	19502
856.461	19605
856.595	19548
856.729	19529
856.862	19651
856.996	19662
857.13	19681
857.263	19704
857.397	19708
857.53	19499
857.664	19632
857.797	19594
857.931	19677
858.064	19586
858.197	19651
858.331	19571
858.464	19525
858.597	19480
858.731	19537
858.864	19518
858.997	19373
859.13	19601
859.263	19499
859.396	19696
859.529	19533
859.662	19480
859.795	19441
859.928	19647
860.061	19624
860.194	19670
860.327	19537
860.46	19445
860.592	19674
860.725	19586
860.858	19491
860.99	19537
861.123	19434
861.256	19457
861.388	19540
861.521	20054
861.653	19396
861.786	19327
861.918	19422
862.05	19632
862.183	19601
862.315	19632
862.447	19685
862.58	19502
862.712	19293
862.844	19312
862.976	19343
863.108	19278
863.24	19635
863.372	19171
863.504	19266
863.636	19213
863.768	19259
863.9	19225
864.032	19095
864.164	19164
864.296	19206
864.428	19270
864.559	19198
864.691	19228
864.823	19194
864.954	19183
865.086	19240
865.217	19247
865.349	19152
865.48	19091
865.612	19152
865.743	19251
865.875	19198
866.006	19057
866.137	19156
866.269	19156
866.4	19225
866.531	19057
866.662	19107
866.793	19065
866.924	19118
867.055	19000
867.186	19122
867.317	19027
867.448	19019
867.579	18989
867.71	18935
867.841	19000
867.972	19042
868.103	18981
868.233	19133
868.364	19114
868.495	19190
868.625	19339
868.756	19354
868.886	19236
869.017	19266
869.147	19407
869.278	19411
869.408	19331
869.539	19213
869.669	19324
869.799	19236
869.929	19445
870.06	19403
870.19	19651
870.32	19578
870.45	19670
870.58	19616
870.71	19723
870.84	19837
870.97	19723
871.1	19719
871.23	19830
871.36	19936
871.489	19780
871.619	19913
871.749	19879
871.879	20058
872.008	20027
872.138	19989
872.267	19772
872.397	19799
872.526	19784
872.656	19719
872.785	19731
872.915	19955
873.044	20043
873.173	19879
873.303	20012
873.432	19944
873.561	20092
873.69	20016
873.819	19917
873.948	19947
874.077	19849
874.206	19830
874.335	19909
874.464	20115
874.593	20187
874.722	20214
874.851	20195
874.979	20301
875.108	20221
875.237	20100
875.365	20145
875.494	20206
875.623	20358
875.751	20168
875.88	20225
876.008	20362
876.136	20484
876.265	20522
876.393	20720
876.521	20765
876.65	20621
876.778	20678
876.906	20598
877.034	20434
877.162	20636
877.29	20434
877.418	20556
877.546	20598
877.674	20541
877.802	20530
877.93	20583
878.058	20602
878.185	20473
878.313	20511
878.441	20545
878.568	20446
878.696	20408
878.824	20613
878.951	20663
879.079	20834
879.206	20823
879.333	20739
879.461	20686
879.588	20705
879.715	20834
879.842	20796
879.97	20549
880.097	20412
880.224	20415
880.351	20442
880.478	20366
880.605	20347
880.732	20263
880.859	20762
880.986	20400
881.112	20427
881.239	20290
881.366	20153
881.493	20145
881.619	20103
881.746	19951
881.872	20020
881.999	20016
882.125	20039
882.252	20138
882.378	20126
882.505	20122
882.631	19852
882.757	19746
882.883	19894
883.01	19746
883.136	19700
883.262	19594
883.388	19529
883.514	19757
883.64	19830
883.766	19677
883.892	19537
884.018	19567
884.143	19780
884.269	19856
884.395	19453
884.52	19377
884.646	19480
884.772	19289
884.897	19434
885.023	19537
885.148	19655
885.274	19609
885.399	19480
885.524	19403
885.65	19392
885.775	19426
885.9	19339
886.025	19441
886.15	19434
886.275	19308
886.4	19335
886.525	19365
886.65	19274
886.775	19373
886.9	19434
887.025	19578
887.149	19369
887.274	19236
887.399	19107
887.523	19183
887.648	19057
887.773	19088
887.897	19255
888.021	19236
888.146	19114
888.27	19232
888.395	19293
888.519	19194
888.643	19270
888.767	19152
888.891	19168
889.015	19027
889.139	19031
889.263	18905
889.387	19042
889.511	19171
889.635	19088
889.759	18939
889.883	18935
890.006	18989
890.13	19141
890.254	18920
890.377	18928
890.501	18783
890.624	18654
890.748	18730
890.871	18631
890.995	18566
891.118	18506
891.241	18597
891.364	18585
891.488	18783
891.611	18486
891.734	18654
891.857	18608
891.98	18589
892.103	18601
892.226	18616
892.349	18608
892.471	18418
892.594	18536
892.717	18559
892.839	18452
892.962	18532
893.085	18563
893.207	18471
893.33	18330
893.452	18414
893.575	18582
893.697	18532
893.819	18654
893.941	18719
894.064	18673
894.186	18540
894.308	18433
894.43	18566
894.552	18646
894.674	18688
894.796	18429
894.918	18494
895.04	18418
895.161	18525
895.283	18589
895.405	18422
895.526	18639
895.648	18509
895.769	18585
895.891	18559
896.012	18692
896.134	18665
896.255	18559
896.376	18540
896.498	18661
896.619	18601
896.74	18574
896.861	18726
896.982	19046
897.103	19137
897.224	18973
897.345	18871
897.466	18798
897.587	18791
897.708	18954
897.828	18875
897.949	18730
898.07	18646
898.19	18669
898.311	18878
898.431	18837
898.552	18779
898.672	18894
898.792	18844
898.913	18806
899.033	18734
899.153	18544
899.273	18380
899.393	18566
899.513	18566
899.633	18578
899.753	18570
899.873	18452
899.993	18525
900.113	18437
900.232	18540
900.352	18555
900.472	18372
900.591	18346
900.711	18319
900.83	18289
900.95	18361
901.069	18574
901.189	18232
901.308	17866
901.427	17916
901.546	17965
901.665	17946
901.784	17980
901.904	17935
902.023	17752
902.141	17634
902.26	17532
902.379	17516
902.498	17436
902.617	17471
902.735	17589
902.854	17493
902.973	17326
903.091	17086
903.21	17086
903.328	17075
903.446	17037
903.565	16965
903.683	17018
903.801	16904
903.919	16850
904.038	16873
904.156	16691
904.274	16839
904.392	16656
904.51	16649
904.627	16637
904.745	16748
904.863	16774
904.981	16459
905.098	16329
905.216	16417
905.334	16371
905.451	16344
905.569	16268
905.686	16371
905.803	16348
905.921	16253
906.038	16306
906.155	16063
906.272	16051
906.389	16086
906.506	15907
906.623	15895
906.74	15895
906.857	15850
906.974	15846
907.091	15949
907.208	16105
907.324	15926
907.441	15785
907.557	15637
907.674	15682
907.79	15637
907.907	15648
908.023	15568
908.139	15553
908.256	15603
908.372	15542
908.488	15458
908.604	15348
908.72	15279
908.836	15283
908.952	15249
909.068	15306
909.184	15454
909.3	15195
909.415	15275
909.531	15199
909.647	15036
909.762	14971
909.878	14994
909.993	15039
910.108	15051
910.224	14929
910.339	15020
910.454	14868
910.57	14861
910.685	14746
910.8	15055
910.915	15005
911.03	14857
911.145	14667
911.259	14590
911.374	14712
911.489	14533
911.604	14389
911.718	14355
911.833	14404
911.947	14301
912.062	14237
912.176	14377
912.291	14396
912.405	14454
912.519	14632
912.633	14579
912.748	14476
912.862	14320
912.976	14237
913.09	14027
913.204	14130
913.318	14145
913.431	14172
913.545	14290
913.659	14298
913.772	14088
913.886	14157
914	13970
914.113	14096
914.226	14199
914.34	14187
914.453	13940
914.566	14077
914.68	13913
914.793	13947
914.906	13791
915.019	13731
915.132	13639
915.245	13636
915.358	13746
915.47	13715
915.583	13742
915.696	13734
915.809	13814
915.921	13917
916.034	13647
916.146	13533
916.259	13586
916.371	13628
916.483	13613
916.595	13506
916.708	13506
916.82	13605
916.932	13525
917.044	13521
917.156	13510
917.268	13308
917.38	13392
917.491	13346
917.603	13434
917.715	13464
917.826	13480
917.938	13255
918.049	13232
918.161	13327
918.272	13453
918.384	13388
918.495	13396
918.606	13190
918.717	13084
918.828	13213
918.939	13206
919.05	13000
919.161	13053
919.272	12859
919.383	13069
919.494	13110
919.604	13263
919.715	13198
919.826	13080
919.936	13069
920.047	13088
920.157	13107
920.267	13297
920.378	13145
920.488	13080
920.598	13259
920.708	13320
920.818	13183
920.928	13221
921.038	13400
921.148	13388
921.258	13088
921.368	13012
921.477	12951
921.587	12764
921.697	12719
921.806	12939
921.916	12711
922.025	12517
922.134	12559
922.244	12486
922.353	12623
922.462	12414
922.571	12338
922.68	12247
922.789	12155
922.898	12148
923.007	12209
923.116	12117
923.224	12125
923.333	12121
923.442	11897
923.55	11977
923.659	12011
923.767	12064
923.876	11996
923.984	11965
924.092	11878
924.201	12003
924.309	11939
924.417	11965
924.525	11901
924.633	11866
924.741	12833
924.849	11714
924.956	11935
925.064	11627
925.172	11619
925.279	11608
925.387	11676
925.494	11745
925.602	11794
925.709	11840
925.816	11554
925.924	11745
926.031	11771
926.138	11638
926.245	11691
926.352	11490
926.459	11653
926.566	11691
926.673	11516
926.779	11395
926.886	11368
926.993	11360
927.099	11296
927.206	11204
927.312	11250
927.419	11277
927.525	11284
927.631	11322
927.737	11124
927.843	11140
927.95	11045
928.056	11098
928.162	11185
928.267	11208
928.373	11851
928.479	11174
928.585	10915
928.69	11117
928.796	11178
928.901	11006
929.007	10835
929.112	11041
929.218	10965
929.323	10934
929.428	10896
929.533	11045
929.638	10839
929.743	10771
929.848	10896
929.953	10862
930.058	10656
930.163	10615
930.267	10653
930.372	10736
930.477	10478
930.581	10767
930.685	10706
930.79	10375
930.894	10462
930.998	10394
931.103	10573
931.207	10173
931.311	10051
931.415	10063
931.519	9880
931.623	9850
