Data from test_V78500241_547.txt Node
Date: Fri Mar 25 15:45:35 CST 2022
User: usil
Spectrometer: V785-0024
Trigger mode: 0
Integration Time (sec): 4.000000E-1
Scans to average: 1
Nonlinearity correction enabled: false
Boxcar width: 0
Storing dark spectrum: false
XAxis mode: Wavelengths
Number of Pixels in Spectrum: 1024
>>>>>Begin Spectral Data<<<<<
801.071	27728
801.214	27500
801.356	27466
801.499	27279
801.641	27211
801.783	27214
801.926	27233
802.068	27203
802.211	27268
802.353	26982
802.496	26994
802.638	26769
802.78	26861
802.923	26849
803.065	26750
803.208	26758
803.35	26811
803.492	26887
803.635	26986
803.777	26830
803.919	27001
804.061	27252
804.204	27104
804.346	26849
804.488	27005
804.63	27020
804.773	26929
804.915	27074
805.057	27066
805.199	26914
805.341	27058
805.483	27218
805.626	27096
805.768	26998
805.91	26918
806.052	27112
806.194	27058
806.336	27294
806.478	27249
806.62	27074
806.762	27093
806.904	27427
807.046	27618
807.188	27568
807.33	27500
807.472	27641
807.614	27466
807.756	27481
807.898	27329
808.04	27336
808.182	27306
808.324	27355
808.465	27359
808.607	27641
808.749	27652
808.891	27914
809.033	27911
809.174	27846
809.316	27762
809.458	27793
809.6	27941
809.741	27880
809.883	27956
810.025	27949
810.166	27876
810.308	28021
810.45	28093
810.591	27998
810.733	27701
810.875	27591
811.016	27728
811.158	27751
811.299	27812
811.441	27876
811.582	27827
811.724	27823
811.865	27770
812.007	27705
812.148	27720
812.29	27842
812.431	27876
812.573	28029
812.714	28139
812.855	28230
812.997	28284
813.138	28500
813.279	28504
813.421	28287
813.562	28344
813.703	28055
813.845	27949
813.986	27717
814.127	27545
814.268	27408
814.41	27367
814.551	27473
814.692	27477
814.833	27351
814.974	27420
815.115	27408
815.256	27283
815.397	27370
815.539	27260
815.68	27256
815.821	27237
815.962	27230
816.103	27348
816.244	27047
816.385	27074
816.526	26975
816.666	26861
816.807	26708
816.948	26887
817.089	26960
817.23	26701
817.371	26640
817.512	26720
817.653	26743
817.793	26758
817.934	26819
818.075	26765
818.216	26807
818.356	26659
818.497	26469
818.638	26480
818.778	26400
818.919	26434
819.06	26488
819.2	26568
819.341	26781
819.481	26739
819.622	26876
819.762	27058
819.903	27070
820.043	26788
820.184	26811
820.324	26682
820.465	26971
820.605	26914
820.746	26800
820.886	26644
821.026	26800
821.167	26804
821.307	26724
821.447	26785
821.588	26621
821.728	26484
821.868	26298
822.008	26214
822.149	26286
822.289	26107
822.429	25868
822.569	25890
822.709	25925
822.849	25742
822.99	25662
823.13	25658
823.27	25594
823.41	25411
823.55	25381
823.69	25491
823.83	25487
823.97	25510
824.11	25263
824.25	25282
824.389	25285
824.529	25324
824.669	25251
824.809	25457
824.949	25327
825.089	25426
825.228	25392
825.368	25240
825.508	25046
825.648	25221
825.787	25133
825.927	25213
826.067	25053
826.206	25129
826.346	25168
826.485	25225
826.625	25091
826.765	25187
826.904	25247
827.044	24958
827.183	24875
827.323	24890
827.462	24848
827.601	24871
827.741	24783
827.88	24878
828.02	24837
828.159	24890
828.298	24962
828.437	24958
828.577	24837
828.716	24932
828.855	24817
828.994	24513
829.134	24509
829.273	24631
829.412	24604
829.551	24525
829.69	24654
829.829	24536
829.968	24783
830.107	24681
830.246	24563
830.385	24448
830.524	24505
830.663	24429
830.802	24357
830.941	24129
831.08	24098
831.219	24194
831.357	24232
831.496	24384
831.635	24144
831.774	24155
831.913	23999
832.051	23988
832.19	24034
832.329	23996
832.467	23832
832.606	23786
832.744	23790
832.883	23775
833.022	23813
833.16	24015
833.299	23851
833.437	23840
833.576	23878
833.714	23889
833.852	23931
833.991	23950
834.129	24003
834.267	23927
834.406	23855
834.544	23878
834.682	23935
834.821	23741
834.959	24167
835.097	23695
835.235	23992
835.373	23859
835.511	23901
835.65	23653
835.788	23718
835.926	23722
836.064	23490
836.202	23493
836.34	23764
836.478	23718
836.615	23630
836.753	23771
836.891	23817
837.029	23779
837.167	23726
837.305	23680
837.443	23630
837.58	23619
837.718	23634
837.856	23619
837.993	23478
838.131	23589
838.269	23330
838.406	23444
838.544	23383
838.681	23185
838.819	23124
838.956	23041
839.094	23064
839.231	23098
839.369	23121
839.506	23516
839.643	23235
839.781	23064
839.918	23121
840.055	22972
840.193	23041
840.33	22987
840.467	22972
840.604	23075
840.742	23296
840.879	22752
841.016	22828
841.153	22866
841.29	23151
841.427	22862
841.564	22968
841.701	22942
841.838	22767
841.975	22873
842.112	22866
842.249	22889
842.385	22778
842.522	22987
842.659	22721
842.796	22740
842.933	22531
843.069	22660
843.206	22645
843.343	22778
843.479	22828
843.616	22721
843.752	22481
843.889	22413
844.025	22603
844.162	22493
844.298	22596
844.435	22455
844.571	22630
844.708	22588
844.844	22599
844.98	22683
845.117	22554
845.253	22413
845.389	22318
845.525	22375
845.661	22291
845.798	22325
845.934	22333
846.07	22230
846.206	22333
846.342	22268
846.478	22341
846.614	21975
846.75	21964
846.886	21922
847.022	22002
847.158	21918
847.294	21907
847.429	21934
847.565	21915
847.701	22169
847.837	21625
847.972	21675
848.108	21797
848.244	21679
848.379	21568
848.515	21504
848.65	21477
848.786	21667
848.921	21511
849.057	21675
849.192	21583
849.328	21561
849.463	21542
849.598	21386
849.734	21439
849.869	21435
850.004	21237
850.14	21268
850.275	21272
850.41	21298
850.545	21268
850.68	21332
850.815	21401
850.95	21252
851.085	21500
851.22	21454
851.355	21340
851.49	21298
851.625	21214
851.76	21294
851.895	21195
852.03	21245
852.165	21272
852.299	21374
852.434	21287
852.569	21378
852.703	21245
852.838	21275
852.973	21515
853.107	21431
853.242	21157
853.376	21131
853.511	21104
853.645	21051
853.78	21138
853.914	21184
854.048	21100
854.183	21199
854.317	21116
854.451	21325
854.585	21081
854.72	21142
854.854	21214
854.988	21043
855.122	21199
855.256	21131
855.39	20963
855.524	21157
855.658	21165
855.792	21127
855.926	21119
856.06	21188
856.194	21157
856.327	21074
856.461	21028
856.595	21039
856.729	21119
856.862	21180
856.996	21199
857.13	21260
857.263	21329
857.397	21180
857.53	21176
857.664	21351
857.797	21211
857.931	21241
858.064	21154
858.197	21252
858.331	21154
858.464	21116
858.597	20975
858.731	20975
858.864	21051
858.997	21108
859.13	21108
859.263	21104
859.396	21298
859.529	21013
859.662	21100
859.795	21093
859.928	21249
860.061	21230
860.194	21325
860.327	21032
860.46	21161
860.592	21264
860.725	21192
860.858	21283
860.99	21055
861.123	21028
861.256	21074
861.388	21127
861.521	21690
861.653	21020
861.786	20933
861.918	20910
862.05	21058
862.183	21070
862.315	21055
862.447	21081
862.58	21058
862.712	20819
862.844	20781
862.976	20921
863.108	20796
863.24	21412
863.372	20819
863.504	20838
863.636	20815
863.768	20910
863.9	20960
864.032	20674
864.164	20765
864.296	20998
864.428	20880
864.559	20990
864.691	20982
864.823	20872
864.954	20819
865.086	20849
865.217	20800
865.349	20788
865.48	20777
865.612	20632
865.743	20853
865.875	20807
866.006	20655
866.137	20739
866.269	20769
866.4	20670
866.531	20712
866.662	20674
866.793	20609
866.924	20667
867.055	20712
867.186	20743
867.317	20530
867.448	20514
867.579	20712
867.71	20625
867.841	20568
867.972	20727
868.103	20689
868.233	20697
868.364	20663
868.495	20891
868.625	20796
868.756	21024
868.886	20830
869.017	20838
869.147	21020
869.278	21184
869.408	21005
869.539	20963
869.669	20941
869.799	20998
869.929	20948
870.06	20929
870.19	21306
870.32	21192
870.45	21287
870.58	21344
870.71	21359
870.84	21511
870.97	21279
871.1	21401
871.23	21367
871.36	21583
871.489	21515
871.619	21549
871.749	21511
871.879	21450
872.008	21709
872.138	21553
872.267	21466
872.397	21374
872.526	21264
872.656	21264
872.785	21241
872.915	21622
873.044	21644
873.173	21492
873.303	21606
873.432	21660
873.561	21679
873.69	21599
873.819	21572
873.948	21633
874.077	21561
874.206	21572
874.335	21549
874.464	21679
874.593	21770
874.722	21739
874.851	21793
874.979	21838
875.108	21797
875.237	21709
875.365	21724
875.494	21778
875.623	21850
875.751	21747
875.88	21766
876.008	21854
876.136	21956
876.265	22173
876.393	22253
876.521	22215
876.65	22253
876.778	22139
876.906	22105
877.034	22067
877.162	22078
877.29	22055
877.418	22048
877.546	22120
877.674	22131
877.802	22006
877.93	22128
878.058	21983
878.185	21979
878.313	22101
878.441	22029
878.568	21926
878.696	22128
878.824	22101
878.951	22162
879.079	22272
879.206	22287
879.333	22333
879.461	22219
879.588	22090
879.715	22325
879.842	22421
879.97	22223
880.097	21991
880.224	21941
880.351	21983
880.478	21922
880.605	21956
880.732	21937
880.859	22265
880.986	21975
881.112	21941
881.239	21884
881.366	21644
881.493	21610
881.619	21572
881.746	21618
881.872	21488
881.999	21534
882.125	21511
882.252	21443
882.378	21469
882.505	21504
882.631	21310
882.757	21294
882.883	21256
883.01	21176
883.136	21252
883.262	21058
883.388	21176
883.514	21089
883.64	21294
883.766	21272
883.892	20975
884.018	21081
884.143	21142
884.269	21302
884.395	20921
884.52	20792
884.646	20933
884.772	20792
884.897	20693
885.023	20804
885.148	20830
885.274	20994
885.399	20891
885.524	20918
885.65	20872
885.775	20902
885.9	20788
886.025	20910
886.15	20971
886.275	20792
886.4	20678
886.525	20796
886.65	20746
886.775	20754
886.9	21001
887.025	21028
887.149	20819
887.274	20590
887.399	20511
887.523	20636
887.648	20568
887.773	20590
887.897	20697
888.021	20743
888.146	20579
888.27	20758
888.395	20716
888.519	20587
888.643	20629
888.767	20587
888.891	20537
889.015	20461
889.139	20488
889.263	20423
889.387	20526
889.511	20731
889.635	20552
889.759	20396
889.883	20423
890.006	20480
890.13	20518
890.254	20385
890.377	20294
890.501	20142
890.624	20088
890.748	20202
890.871	20062
890.995	19974
891.118	19970
891.241	19997
891.364	20035
891.488	20058
891.611	20024
891.734	20027
891.857	20119
891.98	20005
892.103	20103
892.226	20001
892.349	19959
892.471	19742
892.594	19875
892.717	19967
892.839	19890
892.962	19909
893.085	19959
893.207	19902
893.33	19921
893.452	19868
893.575	19963
893.697	19913
893.819	20058
893.941	20187
894.064	19947
894.186	19845
894.308	19898
894.43	20012
894.552	20073
894.674	20111
894.796	19712
894.918	19864
895.04	19940
895.161	19986
895.283	19875
895.405	19890
895.526	19864
895.648	19955
895.769	19841
895.891	20008
896.012	20027
896.134	19978
896.255	19830
896.376	19936
896.498	20012
896.619	19982
896.74	19864
896.861	19967
896.982	20221
897.103	20298
897.224	20187
897.345	20282
897.466	20214
897.587	20214
897.708	20343
897.828	20259
897.949	20035
898.07	19993
898.19	20092
898.311	20202
898.431	20016
898.552	20138
898.672	20278
898.792	20278
898.913	20240
899.033	20065
899.153	19978
899.273	19898
899.393	19917
899.513	19940
899.633	19856
899.753	19852
899.873	19898
899.993	19902
900.113	19894
900.232	19849
900.352	19723
900.472	19731
900.591	19677
900.711	19628
900.83	19685
900.95	19734
901.069	19826
901.189	19597
901.308	19308
901.427	19266
901.546	19312
901.665	19293
901.784	19270
901.904	19152
902.023	19046
902.141	18852
902.26	18909
902.379	18829
902.498	18760
902.617	18677
902.735	18878
902.854	18734
902.973	18726
903.091	18399
903.21	18494
903.328	18494
903.446	18304
903.565	18350
903.683	18311
903.801	18045
903.919	18228
904.038	18308
904.156	18022
904.274	18228
904.392	18041
904.51	17847
904.627	18022
904.745	17988
904.863	18155
904.981	17840
905.098	17714
905.216	17737
905.334	17695
905.451	17672
905.569	17687
905.686	17847
905.803	17783
905.921	17524
906.038	17562
906.155	17562
906.272	17356
906.389	17322
906.506	17273
906.623	17185
906.74	17269
906.857	17064
906.974	17109
907.091	17269
907.208	17421
907.324	17280
907.441	17045
907.557	17067
907.674	17018
907.79	16961
907.907	16934
908.023	17010
908.139	16980
908.256	16930
908.372	16793
908.488	16793
908.604	16740
908.72	16542
908.836	16664
908.952	16713
909.068	16733
909.184	16668
909.3	16710
909.415	16702
909.531	16592
909.647	16371
909.762	16344
909.878	16424
909.993	16325
910.108	16325
910.224	16352
910.339	16344
910.454	16253
910.57	16196
910.685	16124
910.8	16405
910.915	16322
911.03	16131
911.145	16051
911.259	16021
911.374	16051
911.489	15964
911.604	15873
911.718	15755
911.833	15778
911.947	15705
912.062	15557
912.176	15641
912.291	15846
912.405	15656
912.519	15964
912.633	15972
912.748	15747
912.862	15751
912.976	15488
913.09	15458
913.204	15504
913.318	15538
913.431	15603
913.545	15530
913.659	15542
913.772	15462
913.886	15462
914	15348
914.113	15435
914.226	15378
914.34	15382
914.453	15176
914.566	15389
914.68	15336
914.793	15313
914.906	15097
915.019	14998
915.132	14956
915.245	15009
915.358	14952
915.47	14937
915.583	14963
915.696	15009
915.809	15135
915.921	15093
916.034	14910
916.146	14864
916.259	14823
916.371	15032
916.483	14891
916.595	14872
916.708	14857
916.82	14724
916.932	14769
917.044	14807
917.156	14796
917.268	14655
917.38	14610
917.491	14686
917.603	14689
917.715	14754
917.826	14667
917.938	14560
918.049	14507
918.161	14545
918.272	14682
918.384	14674
918.495	14651
918.606	14438
918.717	14259
918.828	14431
918.939	14484
919.05	14362
919.161	14313
919.272	14138
919.383	14168
919.494	14374
919.604	14571
919.715	14412
919.826	14282
919.936	14278
920.047	14343
920.157	14301
920.267	14594
920.378	14377
920.488	14336
920.598	14575
920.708	14632
920.818	14598
920.928	14568
921.038	14648
921.148	14610
921.258	14328
921.368	14267
921.477	14199
921.587	14119
921.697	13932
921.806	14145
921.916	13944
922.025	13757
922.134	13693
922.244	13761
922.353	13776
922.462	13723
922.571	13525
922.68	13396
922.789	13426
922.898	13354
923.007	13415
923.116	13369
923.224	13365
923.333	13297
923.442	13289
923.55	13160
923.659	13285
923.767	13289
923.876	13225
923.984	13198
924.092	13141
924.201	13175
924.309	13164
924.417	13110
924.525	13099
924.633	13091
924.741	13830
924.849	12886
924.956	13019
925.064	12920
925.172	12753
925.279	12696
925.387	12875
925.494	12863
925.602	12947
925.709	12909
925.816	12722
925.924	12768
926.031	12875
926.138	12711
926.245	12871
926.352	12631
926.459	12787
926.566	12875
926.673	12658
926.779	12589
926.886	12604
926.993	12414
927.099	12353
927.206	12292
927.312	12357
927.419	12483
927.525	12296
927.631	12372
927.737	12266
927.843	12190
927.95	12155
928.056	12235
928.162	12220
928.267	12289
928.373	12844
928.479	12285
928.585	12106
928.69	12140
928.796	12224
928.901	12019
929.007	11912
929.112	12098
929.218	11977
929.323	11916
929.428	11969
929.533	12144
929.638	11840
929.743	11790
929.848	11965
929.953	11863
930.058	11832
930.163	11585
930.267	11642
930.372	11752
930.477	11642
930.581	11790
930.685	11691
930.79	11573
930.894	11573
930.998	11535
931.103	11577
931.207	11303
931.311	11311
931.415	11067
931.519	10854
931.623	10923
