Data from test_V78500241_1564.txt Node
Date: Fri Mar 25 15:52:38 CST 2022
User: usil
Spectrometer: V785-0024
Trigger mode: 0
Integration Time (sec): 4.000000E-1
Scans to average: 1
Nonlinearity correction enabled: false
Boxcar width: 0
Storing dark spectrum: false
XAxis mode: Wavelengths
Number of Pixels in Spectrum: 1024
>>>>>Begin Spectral Data<<<<<
801.071	28013
801.214	28059
801.356	27895
801.499	27876
801.641	27751
801.783	27739
801.926	27663
802.068	27595
802.211	27557
802.353	27576
802.496	27473
802.638	27382
802.78	27241
802.923	27268
803.065	27310
803.208	27188
803.35	27313
803.492	27416
803.635	27534
803.777	27458
803.919	27595
804.061	27842
804.204	27709
804.346	27458
804.488	27458
804.63	27378
804.773	27378
804.915	27606
805.057	27743
805.199	27561
805.341	27580
805.483	27766
805.626	27781
805.768	27557
805.91	27705
806.052	27698
806.194	27663
806.336	27880
806.478	27682
806.62	27675
806.762	27911
806.904	28010
807.046	28169
807.188	28131
807.33	28169
807.472	28128
807.614	28135
807.756	28120
807.898	28059
808.04	27956
808.182	27945
808.324	28021
808.465	27949
808.607	28253
808.749	28348
808.891	28440
809.033	28443
809.174	28329
809.316	28246
809.458	28272
809.6	28299
809.741	28432
809.883	28455
810.025	28721
810.166	28493
810.308	28675
810.45	28417
810.591	28481
810.733	28265
810.875	28249
811.016	28150
811.158	28181
811.299	28356
811.441	28519
811.582	28504
811.724	28356
811.865	28249
812.007	28394
812.148	28280
812.29	28352
812.431	28584
812.573	28664
812.714	28649
812.855	28850
812.997	28869
813.138	29018
813.279	28877
813.421	28881
813.562	28736
813.703	28649
813.845	28531
813.986	28352
814.127	28215
814.268	28021
814.41	27968
814.551	27972
814.692	28128
814.833	28040
814.974	27914
815.115	28021
815.256	27747
815.397	27857
815.539	27983
815.68	27793
815.821	27785
815.962	27793
816.103	27865
816.244	27709
816.385	27549
816.526	27599
816.666	27427
816.807	27317
816.948	27313
817.089	27435
817.23	27325
817.371	27241
817.512	27230
817.653	27237
817.793	27104
817.934	27298
818.075	27378
818.216	27363
818.356	27279
818.497	27203
818.638	27112
818.778	27062
818.919	27062
819.06	27081
819.2	27176
819.341	27230
819.481	27256
819.622	27542
819.762	27717
819.903	27504
820.043	27534
820.184	27485
820.324	27287
820.465	27557
820.605	27378
820.746	27344
820.886	27230
821.026	27310
821.167	27344
821.307	27420
821.447	27378
821.588	27283
821.728	27131
821.868	26948
822.008	26899
822.149	26724
822.289	26857
822.429	26568
822.569	26404
822.709	26575
822.849	26286
822.99	26400
823.13	26237
823.27	26248
823.41	26240
823.55	26134
823.69	26218
823.83	26142
823.97	26077
824.11	25982
824.25	25902
824.389	25921
824.529	25974
824.669	25936
824.809	26020
824.949	26069
825.089	25982
825.228	25974
825.368	25818
825.508	25708
825.648	25757
825.787	25909
825.927	25921
826.067	25780
826.206	25868
826.346	25997
826.485	25814
826.625	25822
826.765	25849
826.904	25868
827.044	25708
827.183	25552
827.323	25693
827.462	25616
827.601	25613
827.741	25571
827.88	25468
828.02	25483
828.159	25506
828.298	25544
828.437	25567
828.577	25453
828.716	25647
828.855	25430
828.994	25304
829.134	25190
829.273	25141
829.412	25137
829.551	25171
829.69	25126
829.829	25217
829.968	25228
830.107	25293
830.246	25270
830.385	25110
830.524	25095
830.663	25107
830.802	24924
830.941	24913
831.08	24779
831.219	24871
831.357	24802
831.496	25091
831.635	24783
831.774	24734
831.913	24631
832.051	24673
832.19	24589
832.329	24688
832.467	24479
832.606	24490
832.744	24498
832.883	24559
833.022	24456
833.16	24551
833.299	24536
833.437	24601
833.576	24635
833.714	24570
833.852	24559
833.991	24578
834.129	24540
834.267	24677
834.406	24616
834.544	24521
834.682	24471
834.821	24597
834.959	24753
835.097	24540
835.235	24620
835.373	24452
835.511	24467
835.65	24258
835.788	24475
835.926	24330
836.064	24114
836.202	24289
836.34	24346
836.478	24445
836.615	24342
836.753	24350
836.891	24403
837.029	24422
837.167	24251
837.305	24190
837.443	24273
837.58	24121
837.718	24407
837.856	24232
837.993	24003
838.131	24220
838.269	24152
838.406	24083
838.544	23992
838.681	23965
838.819	23912
838.956	23699
839.094	23646
839.231	23733
839.369	23783
839.506	24102
839.643	23961
839.781	23710
839.918	23554
840.055	23661
840.193	23638
840.33	23630
840.467	23577
840.604	23577
840.742	23977
840.879	23448
841.016	23467
841.153	23512
841.29	23623
841.427	23748
841.564	23642
841.701	23520
841.838	23539
841.975	23665
842.112	23585
842.249	23459
842.385	23376
842.522	23653
842.659	23322
842.796	23330
842.933	23372
843.069	23178
843.206	23345
843.343	23395
843.479	23341
843.616	23330
843.752	23037
843.889	23166
844.025	23174
844.162	23136
844.298	23159
844.435	23014
844.571	23162
844.708	23143
844.844	23254
844.98	23368
845.117	23200
845.253	23052
845.389	22976
845.525	22984
845.661	22915
845.798	22820
845.934	22835
846.07	22790
846.206	22869
846.342	23018
846.478	22733
846.614	22653
846.75	22527
846.886	22596
847.022	22561
847.158	22603
847.294	22660
847.429	22733
847.565	22504
847.701	22873
847.837	22352
847.972	22265
848.108	22440
848.244	22394
848.379	22291
848.515	22139
848.65	22097
848.786	22158
848.921	22242
849.057	22287
849.192	22265
849.328	22215
849.463	22078
849.598	22162
849.734	22131
849.869	21991
850.004	21895
850.14	21937
850.275	21861
850.41	21827
850.545	21812
850.68	21838
850.815	21983
850.95	21941
851.085	22093
851.22	22204
851.355	21945
851.49	21941
851.625	21907
851.76	21915
851.895	21846
852.03	21854
852.165	21953
852.299	22029
852.434	22025
852.569	21998
852.703	21873
852.838	22002
852.973	22082
853.107	22067
853.242	21861
853.376	21869
853.511	21637
853.645	21789
853.78	21975
853.914	21751
854.048	21812
854.183	21766
854.317	21846
854.451	21907
854.585	21850
854.72	21751
854.854	21907
854.988	21709
855.122	21774
855.256	21618
855.39	21781
855.524	21911
855.658	21846
855.792	21819
855.926	21774
856.06	21755
856.194	21789
856.327	21648
856.461	21671
856.595	21728
856.729	21705
856.862	21903
856.996	21751
857.13	21800
857.263	21827
857.397	21903
857.53	21774
857.664	21759
857.797	21857
857.931	21884
858.064	21576
858.197	21861
858.331	21701
858.464	21625
858.597	21648
858.731	21648
858.864	21637
858.997	21778
859.13	21827
859.263	21819
859.396	21808
859.529	21766
859.662	21785
859.795	21625
859.928	21732
860.061	21812
860.194	21922
860.327	21854
860.46	21789
860.592	21823
860.725	21880
860.858	21857
860.99	21827
861.123	21717
861.256	21751
861.388	21774
861.521	22325
861.653	21580
861.786	21610
861.918	21625
862.05	21622
862.183	21667
862.315	21648
862.447	21717
862.58	21614
862.712	21428
862.844	21485
862.976	21542
863.108	21534
863.24	21846
863.372	21458
863.504	21405
863.636	21370
863.768	21416
863.9	21576
864.032	21412
864.164	21473
864.296	21477
864.428	21603
864.559	21545
864.691	21739
864.823	21428
864.954	21500
865.086	21287
865.217	21420
865.349	21252
865.48	21374
865.612	21378
865.743	21466
865.875	21447
866.006	21351
866.137	21408
866.269	21420
866.4	21382
866.531	21272
866.662	21302
866.793	21302
866.924	21287
867.055	21313
867.186	21351
867.317	21211
867.448	21199
867.579	21176
867.71	21157
867.841	21252
867.972	21302
868.103	21252
868.233	21283
868.364	21180
868.495	21268
868.625	21614
868.756	21614
868.886	21481
869.017	21507
869.147	21473
869.278	21603
869.408	21580
869.539	21549
869.669	21606
869.799	21504
869.929	21625
870.06	21667
870.19	21827
870.32	21857
870.45	21827
870.58	21930
870.71	22093
870.84	22013
870.97	21865
871.1	21941
871.23	22097
871.36	22192
871.489	21956
871.619	22223
871.749	22044
871.879	22261
872.008	22257
872.138	22207
872.267	22143
872.397	21968
872.526	21907
872.656	22021
872.785	21956
872.915	22177
873.044	22173
873.173	22211
873.303	22150
873.432	22261
873.561	22265
873.69	22207
873.819	22090
873.948	22219
874.077	22116
874.206	22105
874.335	22124
874.464	22249
874.593	22531
874.722	22280
874.851	22394
874.979	22398
875.108	22466
875.237	22386
875.365	22329
875.494	22386
875.623	22436
875.751	22390
875.88	22394
876.008	22428
876.136	22538
876.265	22679
876.393	22767
876.521	22774
876.65	22824
876.778	22816
876.906	22656
877.034	22683
877.162	22790
877.29	22717
877.418	22630
877.546	22637
877.674	22679
877.802	22725
877.93	22603
878.058	22672
878.185	22713
878.313	22668
878.441	22702
878.568	22630
878.696	22694
878.824	22748
878.951	22759
879.079	22927
879.206	23041
879.333	22828
879.461	22687
879.588	22809
879.715	22900
879.842	22991
879.97	22793
880.097	22516
880.224	22497
880.351	22592
880.478	22626
880.605	22466
880.732	22550
880.859	22763
880.986	22580
881.112	22561
881.239	22409
881.366	22200
881.493	22310
881.619	22185
881.746	22063
881.872	22078
881.999	22093
882.125	21964
882.252	22173
882.378	22013
882.505	22230
882.631	22032
882.757	21831
882.883	21941
883.01	21812
883.136	21728
883.262	21622
883.388	21690
883.514	21705
883.64	21869
883.766	21705
883.892	21519
884.018	21568
884.143	21755
884.269	21846
884.395	21488
884.52	21443
884.646	21424
884.772	21408
884.897	21348
885.023	21359
885.148	21492
885.274	21644
885.399	21557
885.524	21447
885.65	21412
885.775	21504
885.9	21420
886.025	21496
886.15	21530
886.275	21408
886.4	21321
886.525	21294
886.65	21435
886.775	21374
886.9	21519
887.025	21496
887.149	21382
887.274	21176
887.399	21169
887.523	21279
887.648	21066
887.773	21131
887.897	21218
888.021	21222
888.146	21123
888.27	21283
888.395	21310
888.519	21237
888.643	21268
888.767	21268
888.891	21096
889.015	21047
889.139	21112
889.263	20933
889.387	21039
889.511	21188
889.635	21047
889.759	21024
889.883	20929
890.006	20895
890.13	21173
890.254	20929
890.377	20925
890.501	20663
890.624	20731
890.748	20781
890.871	20659
890.995	20396
891.118	20495
891.241	20609
891.364	20594
891.488	20667
891.611	20488
891.734	20640
891.857	20613
891.98	20537
892.103	20568
892.226	20594
892.349	20446
892.471	20355
892.594	20511
892.717	20503
892.839	20469
892.962	20533
893.085	20522
893.207	20526
893.33	20328
893.452	20404
893.575	20552
893.697	20549
893.819	20564
893.941	20849
894.064	20465
894.186	20347
894.308	20438
894.43	20522
894.552	20590
894.674	20503
894.796	20336
894.918	20492
895.04	20237
895.161	20587
895.283	20507
895.405	20469
895.526	20450
895.648	20362
895.769	20442
895.891	20434
896.012	20655
896.134	20427
896.255	20431
896.376	20381
896.498	20328
896.619	20499
896.74	20457
896.861	20514
896.982	20659
897.103	21020
897.224	20773
897.345	20583
897.466	20587
897.587	20636
897.708	20845
897.828	20731
897.949	20594
898.07	20469
898.19	20670
898.311	20792
898.431	20788
898.552	20689
898.672	20667
898.792	20697
898.913	20651
899.033	20450
899.153	20476
899.273	20309
899.393	20499
899.513	20389
899.633	20522
899.753	20438
899.873	20313
899.993	20431
900.113	20332
900.232	20503
900.352	20278
900.472	20271
900.591	20164
900.711	20199
900.83	20077
900.95	20347
901.069	20271
901.189	19982
901.308	19826
901.427	19837
901.546	19677
901.665	19715
901.784	19700
901.904	19597
902.023	19518
902.141	19312
902.26	19244
902.379	19362
902.498	19301
902.617	19240
902.735	19304
902.854	19202
902.973	19251
903.091	18920
903.21	18913
903.328	19015
903.446	18802
903.565	18852
903.683	18764
903.801	18696
903.919	18631
904.038	18692
904.156	18555
904.274	18604
904.392	18486
904.51	18475
904.627	18540
904.745	18521
904.863	18623
904.981	18311
905.098	18144
905.216	18171
905.334	18304
905.451	18163
905.569	18194
905.686	18209
905.803	18174
905.921	18064
906.038	18136
906.155	17916
906.272	17893
906.389	17843
906.506	17695
906.623	17695
906.74	17687
906.857	17623
906.974	17547
907.091	17760
907.208	17775
907.324	17741
907.441	17646
907.557	17376
907.674	17299
907.79	17334
907.907	17360
908.023	17387
908.139	17383
908.256	17376
908.372	17303
908.488	17307
908.604	17143
908.72	17083
908.836	17121
908.952	17052
909.068	17128
909.184	17178
909.3	17166
909.415	17223
909.531	17166
909.647	16976
909.762	16873
909.878	16740
909.993	16919
910.108	16782
910.224	16733
910.339	16854
910.454	16790
910.57	16634
910.685	16649
910.8	16828
910.915	16839
911.03	16592
911.145	16508
911.259	16344
911.374	16478
911.489	16356
911.604	16333
911.718	16177
911.833	16200
911.947	16048
912.062	15945
912.176	16124
912.291	16249
912.405	16188
912.519	16284
912.633	16299
912.748	16246
912.862	16147
912.976	15975
913.09	15956
913.204	15903
913.318	15994
913.431	16067
913.545	16055
913.659	15987
913.772	15915
913.886	15884
914	15736
914.113	15785
914.226	15747
914.34	15861
914.453	15663
914.566	15766
914.68	15728
914.793	15587
914.906	15435
915.019	15386
915.132	15344
915.245	15367
915.358	15473
915.47	15325
915.583	15344
915.696	15336
915.809	15523
915.921	15530
916.034	15405
916.146	15226
916.259	15245
916.371	15279
916.483	15348
916.595	15241
916.708	15184
916.82	15112
916.932	15169
917.044	15195
917.156	15131
917.268	15009
917.38	15074
917.491	15028
917.603	14994
917.715	15036
917.826	15055
917.938	14895
918.049	14902
918.161	15036
918.272	15112
918.384	15093
918.495	14849
918.606	14800
918.717	14769
918.828	14796
918.939	14800
919.05	14682
919.161	14735
919.272	14541
919.383	14537
919.494	14804
919.604	14925
919.715	14739
919.826	14735
919.936	14743
920.047	14864
920.157	14800
920.267	14975
920.378	14743
920.488	14727
920.598	14819
920.708	15024
920.818	14899
920.928	14929
921.038	15066
921.148	15009
921.258	14655
921.368	14598
921.477	14484
921.587	14492
921.697	14305
921.806	14450
921.916	14317
922.025	14138
922.134	14092
922.244	14050
922.353	14126
922.462	14050
922.571	13917
922.68	13830
922.789	13750
922.898	13830
923.007	13624
923.116	13723
923.224	13818
923.333	13723
923.442	13556
923.55	13666
923.659	13609
923.767	13674
923.876	13502
923.984	13533
924.092	13476
924.201	13491
924.309	13480
924.417	13540
924.525	13430
924.633	13350
924.741	14286
924.849	13213
924.956	13384
925.064	13240
925.172	13061
925.279	13107
925.387	13187
925.494	13171
925.602	13156
925.709	13145
925.816	13012
925.924	13084
926.031	13141
926.138	13133
926.245	13110
926.352	13053
926.459	13149
926.566	13194
926.673	12993
926.779	12875
926.886	12935
926.993	12707
927.099	12768
927.206	12642
927.312	12673
927.419	12730
927.525	12730
927.631	12791
927.737	12589
927.843	12654
927.95	12403
928.056	12441
928.162	12547
928.267	12627
928.373	13129
928.479	12623
928.585	12353
928.69	12418
928.796	12551
928.901	12384
929.007	12258
929.112	12350
929.218	12334
929.323	12304
929.428	12342
929.533	12391
929.638	12201
929.743	12251
929.848	12243
929.953	12152
930.058	12049
930.163	11874
930.267	11920
930.372	12064
930.477	11897
930.581	12064
930.685	12019
930.79	11889
930.894	11809
930.998	11752
931.103	11999
931.207	11528
931.311	11570
931.415	11490
931.519	11242
931.623	11239
