Data from test_V78500241_1521.txt Node
Date: Fri Mar 25 15:52:20 CST 2022
User: usil
Spectrometer: V785-0024
Trigger mode: 0
Integration Time (sec): 4.000000E-1
Scans to average: 1
Nonlinearity correction enabled: false
Boxcar width: 0
Storing dark spectrum: false
XAxis mode: Wavelengths
Number of Pixels in Spectrum: 1024
>>>>>Begin Spectral Data<<<<<
801.071	27888
801.214	27945
801.356	27926
801.499	27785
801.641	27618
801.783	27629
801.926	27652
802.068	27622
802.211	27583
802.353	27450
802.496	27351
802.638	27279
802.78	27294
802.923	27024
803.065	27104
803.208	27176
803.35	27302
803.492	27389
803.635	27523
803.777	27207
803.919	27504
804.061	27747
804.204	27454
804.346	27378
804.488	27256
804.63	27367
804.773	27359
804.915	27424
805.057	27549
805.199	27504
805.341	27530
805.483	27534
805.626	27595
805.768	27477
805.91	27580
806.052	27728
806.194	27564
806.336	27816
806.478	27778
806.62	27618
806.762	27838
806.904	28055
807.046	28200
807.188	28029
807.33	28078
807.472	28074
807.614	27903
807.756	28051
807.898	27800
808.04	27865
808.182	27876
808.324	27819
808.465	27945
808.607	28032
808.749	28196
808.891	28287
809.033	28527
809.174	28322
809.316	28265
809.458	28211
809.6	28249
809.741	28421
809.883	28447
810.025	28725
810.166	28466
810.308	28462
810.45	28580
810.591	28356
810.733	28272
810.875	28200
811.016	28025
811.158	28169
811.299	28120
811.441	28432
811.582	28318
811.724	28162
811.865	28086
812.007	28249
812.148	28253
812.29	28337
812.431	28318
812.573	28512
812.714	28797
812.855	28580
812.997	28801
813.138	28995
813.279	28911
813.421	28698
813.562	28599
813.703	28607
813.845	28390
813.986	28166
814.127	28101
814.268	27892
814.41	27975
814.551	27895
814.692	28010
814.833	27865
814.974	27876
815.115	28139
815.256	27812
815.397	27781
815.539	27778
815.68	27656
815.821	27682
815.962	27781
816.103	27633
816.244	27587
816.385	27405
816.526	27534
816.666	27332
816.807	27093
816.948	27302
817.089	27378
817.23	27351
817.371	27287
817.512	27237
817.653	27207
817.793	27161
817.934	27218
818.075	27245
818.216	27317
818.356	27146
818.497	27070
818.638	26902
818.778	27039
818.919	27051
819.06	27074
819.2	27203
819.341	27294
819.481	27275
819.622	27443
819.762	27545
819.903	27450
820.043	27420
820.184	27245
820.324	27310
820.465	27260
820.605	27363
820.746	27252
820.886	27203
821.026	27321
821.167	27310
821.307	27336
821.447	27294
821.588	27203
821.728	27096
821.868	26880
822.008	26670
822.149	26731
822.289	26659
822.429	26503
822.569	26423
822.709	26355
822.849	26336
822.99	26286
823.13	26191
823.27	26240
823.41	25814
823.55	26027
823.69	25997
823.83	26012
823.97	25974
824.11	25795
824.25	25750
824.389	25913
824.529	26001
824.669	25894
824.809	25887
824.949	25986
825.089	26069
825.228	25906
825.368	25723
825.508	25635
825.648	25616
825.787	25746
825.927	25826
826.067	25666
826.206	25700
826.346	25841
826.485	25830
826.625	25780
826.765	25799
826.904	25776
827.044	25639
827.183	25575
827.323	25464
827.462	25377
827.601	25346
827.741	25422
827.88	25556
828.02	25316
828.159	25472
828.298	25400
828.437	25525
828.577	25297
828.716	25548
828.855	25476
828.994	25183
829.134	25107
829.273	25251
829.412	25095
829.551	25259
829.69	25164
829.829	25156
829.968	25236
830.107	25232
830.246	25110
830.385	24981
830.524	25088
830.663	24882
830.802	24852
830.941	24745
831.08	24703
831.219	24871
831.357	24863
831.496	25065
831.635	24783
831.774	24669
831.913	24707
832.051	24479
832.19	24505
832.329	24498
832.467	24448
832.606	24372
832.744	24414
832.883	24391
833.022	24380
833.16	24437
833.299	24445
833.437	24597
833.576	24486
833.714	24513
833.852	24502
833.991	24585
834.129	24677
834.267	24582
834.406	24551
834.544	24525
834.682	24597
834.821	24403
834.959	24631
835.097	24551
835.235	24585
835.373	24528
835.511	24475
835.65	24540
835.788	24426
835.926	24232
836.064	24194
836.202	24209
836.34	24304
836.478	24498
836.615	24254
836.753	24334
836.891	24437
837.029	24502
837.167	24365
837.305	24266
837.443	24159
837.58	24194
837.718	24273
837.856	24254
837.993	24114
838.131	24155
838.269	24053
838.406	23958
838.544	23958
838.681	23821
838.819	23771
838.956	23604
839.094	23714
839.231	23760
839.369	23863
839.506	24041
839.643	23889
839.781	23695
839.918	23661
840.055	23611
840.193	23615
840.33	23592
840.467	23478
840.604	23718
840.742	23935
840.879	23398
841.016	23414
841.153	23356
841.29	23528
841.427	23505
841.564	23680
841.701	23410
841.838	23509
841.975	23611
842.112	23417
842.249	23547
842.385	23296
842.522	23425
842.659	23311
842.796	23292
842.933	23227
843.069	23296
843.206	23273
843.343	23269
843.479	23113
843.616	23250
843.752	23117
843.889	23151
844.025	23105
844.162	23090
844.298	23117
844.435	23041
844.571	23010
844.708	23098
844.844	23273
844.98	23235
845.117	23067
845.253	23094
845.389	22965
845.525	23006
845.661	22995
845.798	22812
845.934	22873
846.07	22809
846.206	22778
846.342	22976
846.478	22725
846.614	22519
846.75	22493
846.886	22577
847.022	22561
847.158	22474
847.294	22542
847.429	22470
847.565	22451
847.701	22744
847.837	22268
847.972	22188
848.108	22333
848.244	22215
848.379	22196
848.515	22101
848.65	22044
848.786	22097
848.921	22185
849.057	22310
849.192	22120
849.328	22158
849.463	22162
849.598	22025
849.734	21964
849.869	22013
850.004	21850
850.14	21903
850.275	21892
850.41	21717
850.545	21793
850.68	21789
850.815	21918
850.95	22055
851.085	22093
851.22	21918
851.355	21979
851.49	21937
851.625	21869
851.76	21869
851.895	21774
852.03	21736
852.165	21915
852.299	21880
852.434	21979
852.569	21895
852.703	21960
852.838	22059
852.973	22070
853.107	22143
853.242	21827
853.376	21633
853.511	21606
853.645	21652
853.78	21800
853.914	21690
854.048	21724
854.183	21800
854.317	21781
854.451	21949
854.585	21793
854.72	21625
854.854	21770
854.988	21622
855.122	21660
855.256	21671
855.39	21663
855.524	21846
855.658	21812
855.792	21759
855.926	21816
856.06	21720
856.194	21835
856.327	21701
856.461	21713
856.595	21660
856.729	21781
856.862	21762
856.996	21739
857.13	21861
857.263	21865
857.397	21808
857.53	21701
857.664	21739
857.797	21808
857.931	21823
858.064	21759
858.197	21690
858.331	21736
858.464	21606
858.597	21648
858.731	21705
858.864	21679
858.997	21694
859.13	21690
859.263	21759
859.396	21698
859.529	21675
859.662	21747
859.795	21648
859.928	21633
860.061	21884
860.194	21880
860.327	21884
860.46	21804
860.592	21956
860.725	21793
860.858	21713
860.99	21835
861.123	21523
861.256	21701
861.388	21637
861.521	22272
861.653	21614
861.786	21492
861.918	21515
862.05	21671
862.183	21778
862.315	21694
862.447	21610
862.58	21587
862.712	21530
862.844	21336
862.976	21500
863.108	21504
863.24	21884
863.372	21469
863.504	21477
863.636	21393
863.768	21367
863.9	21386
864.032	21306
864.164	21420
864.296	21515
864.428	21545
864.559	21454
864.691	21469
864.823	21599
864.954	21492
865.086	21302
865.217	21302
865.349	21302
865.48	21359
865.612	21211
865.743	21386
865.875	21340
866.006	21264
866.137	21310
866.269	21374
866.4	21310
866.531	21329
866.662	21313
866.793	21237
866.924	21321
867.055	21199
867.186	21195
867.317	21264
867.448	21176
867.579	21264
867.71	21180
867.841	21161
867.972	21355
868.103	21116
868.233	21146
868.364	21169
868.495	21355
868.625	21428
868.756	21679
868.886	21469
869.017	21473
869.147	21488
869.278	21648
869.408	21564
869.539	21705
869.669	21561
869.799	21416
869.929	21629
870.06	21572
870.19	21934
870.32	21804
870.45	21854
870.58	21907
870.71	21941
870.84	21888
870.97	21827
871.1	22010
871.23	22116
871.36	22226
871.489	22063
871.619	22029
871.749	22093
871.879	22139
872.008	22219
872.138	22135
872.267	22124
872.397	21964
872.526	21861
872.656	21861
872.785	22013
872.915	22048
873.044	22207
873.173	22128
873.303	22078
873.432	22188
873.561	22109
873.69	22021
873.819	22093
873.948	22128
874.077	22082
874.206	22116
874.335	22082
874.464	22200
874.593	22371
874.722	22348
874.851	22371
874.979	22299
875.108	22386
875.237	22234
875.365	22234
875.494	22382
875.623	22405
875.751	22386
875.88	22417
876.008	22466
876.136	22455
876.265	22668
876.393	22877
876.521	22786
876.65	22835
876.778	22725
876.906	22649
877.034	22641
877.162	22675
877.29	22660
877.418	22687
877.546	22752
877.674	22641
877.802	22592
877.93	22607
878.058	22691
878.185	22531
878.313	22607
878.441	22702
878.568	22504
878.696	22592
878.824	22679
878.951	22694
879.079	22866
879.206	22987
879.333	22824
879.461	22706
879.588	22755
879.715	22809
879.842	22927
879.97	22839
880.097	22531
880.224	22519
880.351	22417
880.478	22382
880.605	22592
880.732	22527
880.859	22683
880.986	22542
881.112	22451
881.239	22451
881.366	22242
881.493	22177
881.619	22135
881.746	22055
881.872	22101
881.999	22067
882.125	21998
882.252	22192
882.378	22032
882.505	22158
882.631	21998
882.757	21861
882.883	21873
883.01	21736
883.136	21762
883.262	21755
883.388	21519
883.514	21781
883.64	21656
883.766	21663
883.892	21485
884.018	21466
884.143	21762
884.269	21709
884.395	21568
884.52	21325
884.646	21359
884.772	21317
884.897	21363
885.023	21321
885.148	21462
885.274	21644
885.399	21496
885.524	21412
885.65	21439
885.775	21481
885.9	21355
886.025	21564
886.15	21473
886.275	21355
886.4	21230
886.525	21378
886.65	21325
886.775	21195
886.9	21370
887.025	21648
887.149	21363
887.274	21207
887.399	21116
887.523	21142
887.648	21085
887.773	21112
887.897	21184
888.021	21165
888.146	21142
888.27	21294
888.395	21260
888.519	21188
888.643	21188
888.767	21127
888.891	20994
889.015	21020
889.139	21104
889.263	20906
889.387	21062
889.511	21070
889.635	21039
889.759	20925
889.883	20899
890.006	20864
890.13	21066
890.254	20979
890.377	20735
890.501	20701
890.624	20724
890.748	20682
890.871	20609
890.995	20514
891.118	20526
891.241	20609
891.364	20590
891.488	20651
891.611	20366
891.734	20484
891.857	20503
891.98	20568
892.103	20545
892.226	20454
892.349	20431
892.471	20278
892.594	20454
892.717	20522
892.839	20427
892.962	20377
893.085	20522
893.207	20385
893.33	20278
893.452	20450
893.575	20393
893.697	20317
893.819	20503
893.941	20598
894.064	20476
894.186	20343
894.308	20347
894.43	20495
894.552	20571
894.674	20454
894.796	20313
894.918	20393
895.04	20415
895.161	20492
895.283	20450
895.405	20282
895.526	20381
895.648	20454
895.769	20530
895.891	20511
896.012	20465
896.134	20469
896.255	20396
896.376	20351
896.498	20377
896.619	20370
896.74	20400
896.861	20476
896.982	20727
897.103	20967
897.224	20765
897.345	20663
897.466	20587
897.587	20556
897.708	20705
897.828	20644
897.949	20552
898.07	20522
898.19	20583
898.311	20651
898.431	20613
898.552	20625
898.672	20667
898.792	20655
898.913	20648
899.033	20640
899.153	20419
899.273	20252
899.393	20419
899.513	20358
899.633	20484
899.753	20442
899.873	20294
899.993	20309
900.113	20305
900.232	20385
900.352	20278
900.472	20153
900.591	20134
900.711	20039
900.83	20008
900.95	20191
901.069	20199
901.189	20088
901.308	19719
901.427	19757
901.546	19723
901.665	19757
901.784	19727
901.904	19559
902.023	19411
902.141	19434
902.26	19320
902.379	19171
902.498	19247
902.617	19225
902.735	19266
902.854	19228
902.973	19114
903.091	18947
903.21	18905
903.328	18939
903.446	18844
903.565	18642
903.683	18692
903.801	18525
903.919	18726
904.038	18692
904.156	18441
904.274	18517
904.392	18437
904.51	18361
904.627	18486
904.745	18456
904.863	18589
904.981	18243
905.098	18148
905.216	18038
905.334	18300
905.451	18220
905.569	18114
905.686	18251
905.803	18197
905.921	17954
906.038	18030
906.155	17950
906.272	17866
906.389	17764
906.506	17668
906.623	17726
906.74	17733
906.857	17619
906.974	17566
907.091	17691
907.208	17779
907.324	17718
907.441	17604
907.557	17391
907.674	17406
907.79	17288
907.907	17318
908.023	17372
908.139	17421
908.256	17307
908.372	17254
908.488	17204
908.604	17128
908.72	17079
908.836	17102
908.952	16991
909.068	17056
909.184	17060
909.3	17086
909.415	17052
909.531	17178
909.647	16816
909.762	16793
909.878	16630
909.993	16778
910.108	16736
910.224	16702
910.339	16717
910.454	16721
910.57	16554
910.685	16596
910.8	16869
910.915	16771
911.03	16596
911.145	16497
911.259	16390
911.374	16386
911.489	16459
911.604	16295
911.718	16166
911.833	16093
911.947	16017
912.062	16017
912.176	16131
912.291	16207
912.405	16090
912.519	16348
912.633	16344
912.748	16185
912.862	16071
912.976	15842
913.09	15713
913.204	15911
913.318	15975
913.431	16048
913.545	15987
913.659	15998
913.772	15876
913.886	15778
914	15713
914.113	15739
914.226	15873
914.34	15846
914.453	15561
914.566	15747
914.68	15610
914.793	15557
914.906	15351
915.019	15370
915.132	15256
915.245	15332
915.358	15412
915.47	15370
915.583	15348
915.696	15306
915.809	15447
915.921	15428
916.034	15405
916.146	15237
916.259	15233
916.371	15359
916.483	15363
916.595	15226
916.708	15218
916.82	15173
916.932	15135
917.044	15146
917.156	15138
917.268	14941
917.38	14963
917.491	15017
917.603	14921
917.715	15093
917.826	15070
917.938	15009
918.049	14811
918.161	15039
918.272	15039
918.384	15005
918.495	14975
918.606	14887
918.717	14659
918.828	14785
918.939	14807
919.05	14705
919.161	14735
919.272	14556
919.383	14598
919.494	14777
919.604	14914
919.715	14678
919.826	14625
919.936	14735
920.047	14765
920.157	14792
920.267	14887
920.378	14769
920.488	14682
920.598	14823
920.708	14937
920.818	14902
920.928	14899
921.038	14944
921.148	15062
921.258	14750
921.368	14590
921.477	14457
921.587	14511
921.697	14305
921.806	14377
921.916	14298
922.025	14107
922.134	14027
922.244	14103
922.353	14126
922.462	13970
922.571	13818
922.68	13875
922.789	13742
922.898	13753
923.007	13575
923.116	13731
923.224	13731
923.333	13696
923.442	13460
923.55	13594
923.659	13548
923.767	13681
923.876	13480
923.984	13506
924.092	13434
924.201	13491
924.309	13472
924.417	13540
924.525	13460
924.633	13422
924.741	14313
924.849	13221
924.956	13301
925.064	13228
925.172	13110
925.279	13198
925.387	13149
925.494	13050
925.602	13327
925.709	13164
925.816	12981
925.924	13065
926.031	13164
926.138	13046
926.245	13114
926.352	12989
926.459	13069
926.566	13160
926.673	13000
926.779	12924
926.886	12886
926.993	12734
927.099	12719
927.206	12696
927.312	12593
927.419	12768
927.525	12688
927.631	12726
927.737	12597
927.843	12536
927.95	12357
928.056	12498
928.162	12540
928.267	12521
928.373	13168
928.479	12574
928.585	12399
928.69	12460
928.796	12479
928.901	12376
929.007	12201
929.112	12418
929.218	12403
929.323	12239
929.428	12209
929.533	12266
929.638	12273
929.743	12201
929.848	12209
929.953	12155
930.058	12091
930.163	11874
930.267	11897
930.372	12148
930.477	11920
930.581	12095
930.685	11942
930.79	11878
930.894	11779
930.998	11828
931.103	11897
931.207	11581
931.311	11402
931.415	11372
931.519	11197
931.623	11239
