Data from test_V78500241_3060.txt Node
Date: Fri Mar 25 16:02:59 CST 2022
User: usil
Spectrometer: V785-0024
Trigger mode: 0
Integration Time (sec): 4.000000E-1
Scans to average: 1
Nonlinearity correction enabled: false
Boxcar width: 0
Storing dark spectrum: false
XAxis mode: Wavelengths
Number of Pixels in Spectrum: 1024
>>>>>Begin Spectral Data<<<<<
801.071	28736
801.214	28618
801.356	28542
801.499	28375
801.641	28440
801.783	28303
801.926	28470
802.068	28390
802.211	28200
802.353	28177
802.496	28086
802.638	28021
802.78	27926
802.923	27899
803.065	27953
803.208	28074
803.35	28070
803.492	28253
803.635	28261
803.777	28291
803.919	28474
804.061	28573
804.204	28360
804.346	28257
804.488	28265
804.63	28150
804.773	28246
804.915	28337
805.057	28314
805.199	28291
805.341	28394
805.483	28375
805.626	28440
805.768	28272
805.91	28500
806.052	28538
806.194	28344
806.336	28641
806.478	28398
806.62	28516
806.762	28679
806.904	28752
807.046	28934
807.188	29014
807.33	28972
807.472	28934
807.614	28843
807.756	28911
807.898	28824
808.04	28660
808.182	28710
808.324	28771
808.465	28873
808.607	29044
808.749	29128
808.891	29311
809.033	29349
809.174	29121
809.316	29071
809.458	29166
809.6	29041
809.741	29330
809.883	29459
810.025	29406
810.166	29455
810.308	29448
810.45	29296
810.591	29448
810.733	29193
810.875	29223
811.016	29071
811.158	29083
811.299	29288
811.441	29239
811.582	29341
811.724	29223
811.865	29090
812.007	29140
812.148	29189
812.29	29181
812.431	29421
812.573	29562
812.714	29642
812.855	29646
812.997	29821
813.138	29988
813.279	29805
813.421	29676
813.562	29642
813.703	29543
813.845	29375
813.986	29220
814.127	29052
814.268	28850
814.41	28752
814.551	28984
814.692	28984
814.833	28908
814.974	28927
815.115	29037
815.256	28809
815.397	28790
815.539	28793
815.68	28729
815.821	28557
815.962	28755
816.103	28599
816.244	28573
816.385	28481
816.526	28470
816.666	28234
816.807	28196
816.948	28280
817.089	28295
817.23	28341
817.371	28128
817.512	28086
817.653	28265
817.793	28090
817.934	28169
818.075	28242
818.216	28207
818.356	28074
818.497	28078
818.638	27937
818.778	27911
818.919	27835
819.06	28010
819.2	28055
819.341	28223
819.481	28219
819.622	28379
819.762	28504
819.903	28508
820.043	28424
820.184	28382
820.324	28200
820.465	28443
820.605	28322
820.746	28428
820.886	28226
821.026	28333
821.167	28318
821.307	28440
821.447	28147
821.588	28143
821.728	28055
821.868	27819
822.008	27720
822.149	27812
822.289	27675
822.429	27450
822.569	27302
822.709	27397
822.849	27283
822.99	27317
823.13	27226
823.27	27039
823.41	27039
823.55	27005
823.69	27013
823.83	26921
823.97	27039
824.11	26830
824.25	26678
824.389	26944
824.529	27028
824.669	26960
824.809	26933
824.949	26952
825.089	27081
825.228	26868
825.368	26552
825.508	26788
825.648	26716
825.787	26826
825.927	26785
826.067	26765
826.206	26811
826.346	26762
826.485	26887
826.625	26731
826.765	26857
826.904	26632
827.044	26507
827.183	26636
827.323	26507
827.462	26492
827.601	26507
827.741	26377
827.88	26568
828.02	26298
828.159	26511
828.298	26408
828.437	26564
828.577	26355
828.716	26415
828.855	26328
828.994	26176
829.134	26191
829.273	26187
829.412	26054
829.551	26115
829.69	26172
829.829	26233
829.968	26259
830.107	26195
830.246	26214
830.385	26157
830.524	26035
830.663	25940
830.802	25875
830.941	25791
831.08	25670
831.219	25925
831.357	25822
831.496	25989
831.635	25746
831.774	25738
831.913	25795
832.051	25753
832.19	25632
832.329	25681
832.467	25613
832.606	25384
832.744	25381
832.883	25426
833.022	25422
833.16	25457
833.299	25502
833.437	25457
833.576	25487
833.714	25521
833.852	25521
833.991	25552
834.129	25632
834.267	25670
834.406	25441
834.544	25548
834.682	25468
834.821	25426
834.959	25708
835.097	25449
835.235	25468
835.373	25464
835.511	25430
835.65	25266
835.788	25377
835.926	25369
836.064	25023
836.202	25141
836.34	25316
836.478	25559
836.615	25324
836.753	25354
836.891	25434
837.029	25304
837.167	25164
837.305	25209
837.443	25164
837.58	25198
837.718	25274
837.856	25141
837.993	25015
838.131	25126
838.269	25050
838.406	25114
838.544	24901
838.681	24962
838.819	24768
838.956	24566
839.094	24631
839.231	24711
839.369	25000
839.506	25027
839.643	24863
839.781	24715
839.918	24604
840.055	24627
840.193	24608
840.33	24509
840.467	24639
840.604	24582
840.742	24760
840.879	24407
841.016	24380
841.153	24502
841.29	24627
841.427	24532
841.564	24593
841.701	24593
841.838	24486
841.975	24456
842.112	24365
842.249	24315
842.385	24239
842.522	24620
842.659	24334
842.796	24201
842.933	24235
843.069	24163
843.206	24140
843.343	24376
843.479	24338
843.616	24289
843.752	24060
843.889	23950
844.025	24235
844.162	24034
844.298	24121
844.435	24030
844.571	24022
844.708	24053
844.844	24289
844.98	24125
845.117	24171
845.253	23984
845.389	23969
845.525	24072
845.661	23870
845.798	23794
845.934	23874
846.07	23722
846.206	23783
846.342	23958
846.478	23847
846.614	23566
846.75	23490
846.886	23482
847.022	23516
847.158	23505
847.294	23535
847.429	23436
847.565	23341
847.701	23684
847.837	23132
847.972	23322
848.108	23265
848.244	23360
848.379	23204
848.515	23052
848.65	22972
848.786	23117
848.921	23048
849.057	23178
849.192	23299
849.328	23204
849.463	23117
849.598	23128
849.734	22968
849.869	22946
850.004	22877
850.14	22885
850.275	22858
850.41	22786
850.545	22835
850.68	22915
850.815	22976
850.95	22873
851.085	23033
851.22	22957
851.355	22923
851.49	22782
851.625	22809
851.76	22767
851.895	22729
852.03	22778
852.165	22809
852.299	22809
852.434	22946
852.569	22790
852.703	22942
852.838	22984
852.973	22934
853.107	22991
853.242	22831
853.376	22702
853.511	22615
853.645	22527
853.78	22744
853.914	22790
854.048	22649
854.183	22626
854.317	22733
854.451	22850
854.585	22584
854.72	22698
854.854	22797
854.988	22698
855.122	22626
855.256	22474
855.39	22641
855.524	22752
855.658	22744
855.792	22675
855.926	22603
856.06	22653
856.194	22778
856.327	22641
856.461	22626
856.595	22698
856.729	22710
856.862	22831
856.996	22645
857.13	22630
857.263	22774
857.397	22752
857.53	22660
857.664	22869
857.797	22752
857.931	22790
858.064	22721
858.197	22809
858.331	22664
858.464	22500
858.597	22500
858.731	22630
858.864	22645
858.997	22630
859.13	22748
859.263	22797
859.396	22748
859.529	22748
859.662	22557
859.795	22523
859.928	22645
860.061	22725
860.194	22793
860.327	22831
860.46	22660
860.592	22850
860.725	22812
860.858	22892
860.99	22691
861.123	22615
861.256	22577
861.388	22820
861.521	23444
861.653	22687
861.786	22413
861.918	22531
862.05	22554
862.183	22637
862.315	22672
862.447	22713
862.58	22588
862.712	22402
862.844	22303
862.976	22371
863.108	22592
863.24	22858
863.372	22329
863.504	22344
863.636	22265
863.768	22367
863.9	22234
864.032	22295
864.164	22352
864.296	22379
864.428	22455
864.559	22489
864.691	22516
864.823	22360
864.954	22344
865.086	22413
865.217	22158
865.349	22169
865.48	22333
865.612	22337
865.743	22295
865.875	22424
866.006	22242
866.137	22234
866.269	22185
866.4	22249
866.531	22268
866.662	22287
866.793	22181
866.924	22238
867.055	22131
867.186	22200
867.317	22280
867.448	22093
867.579	22238
867.71	22192
867.841	22147
867.972	22223
868.103	22128
868.233	22219
868.364	22078
868.495	22303
868.625	22470
868.756	22523
868.886	22348
869.017	22310
869.147	22474
869.278	22557
869.408	22428
869.539	22371
869.669	22470
869.799	22519
869.929	22668
870.06	22569
870.19	22748
870.32	22717
870.45	22809
870.58	22805
870.71	22911
870.84	22927
870.97	22847
871.1	22854
871.23	22984
871.36	22949
871.489	22961
871.619	23075
871.749	22995
871.879	22953
872.008	22976
872.138	23098
872.267	23041
872.397	22942
872.526	22889
872.656	22877
872.785	22889
872.915	23105
873.044	23151
873.173	23105
873.303	23212
873.432	23041
873.561	23235
873.69	23113
873.819	23052
873.948	23064
874.077	23018
874.206	23048
874.335	23109
874.464	23128
874.593	23322
874.722	23109
874.851	23425
874.979	23265
875.108	23360
875.237	23299
875.365	23174
875.494	23269
875.623	23376
875.751	23155
875.88	23216
876.008	23440
876.136	23444
876.265	23638
876.393	23809
876.521	23786
876.65	23684
876.778	23581
876.906	23554
877.034	23551
877.162	23676
877.29	23493
877.418	23638
877.546	23604
877.674	23748
877.802	23668
877.93	23687
878.058	23562
878.185	23589
878.313	23528
878.441	23429
878.568	23463
878.696	23524
878.824	23558
878.951	23653
879.079	23707
879.206	23828
879.333	23874
879.461	23566
879.588	23707
879.715	23764
879.842	23935
879.97	23638
880.097	23448
880.224	23379
880.351	23463
880.478	23592
880.605	23433
880.732	23444
880.859	23623
880.986	23444
881.112	23402
881.239	23303
881.366	23220
881.493	22965
881.619	23029
881.746	22953
881.872	22987
881.999	22934
882.125	22938
882.252	23014
882.378	22953
882.505	23037
882.631	22915
882.757	22603
882.883	22771
883.01	22717
883.136	22634
883.262	22421
883.388	22481
883.514	22622
883.64	22641
883.766	22577
883.892	22405
884.018	22436
884.143	22733
884.269	22668
884.395	22440
884.52	22253
884.646	22375
884.772	22242
884.897	22223
885.023	22253
885.148	22386
885.274	22413
885.399	22341
885.524	22204
885.65	22329
885.775	22329
885.9	22200
886.025	22417
886.15	22196
886.275	22284
886.4	22116
886.525	22234
886.65	22207
886.775	22246
886.9	22169
887.025	22481
887.149	22147
887.274	22109
887.399	22063
887.523	22029
887.648	22021
887.773	21884
887.897	22032
888.021	22082
888.146	22013
888.27	22120
888.395	22078
888.519	22105
888.643	22074
888.767	22158
888.891	21953
889.015	21819
889.139	21884
889.263	21926
889.387	22086
889.511	21907
889.635	21823
889.759	21728
889.883	21755
890.006	21797
890.13	21956
890.254	21694
890.377	21690
890.501	21580
890.624	21523
890.748	21591
890.871	21526
890.995	21302
891.118	21363
891.241	21397
891.364	21355
891.488	21488
891.611	21431
891.734	21374
891.857	21412
891.98	21389
892.103	21454
892.226	21336
892.349	21279
892.471	21108
892.594	21233
892.717	21291
892.839	21275
892.962	21241
893.085	21344
893.207	21157
893.33	21192
893.452	21157
893.575	21306
893.697	21230
893.819	21378
893.941	21382
894.064	21363
894.186	21188
894.308	21169
894.43	21275
894.552	21306
894.674	21283
894.796	21119
894.918	21222
895.04	21211
895.161	21268
895.283	21272
895.405	21157
895.526	21135
895.648	21085
895.769	21321
895.891	21249
896.012	21439
896.134	21264
896.255	21119
896.376	21150
896.498	21203
896.619	21275
896.74	21294
896.861	21252
896.982	21622
897.103	21644
897.224	21382
897.345	21507
897.466	21378
897.587	21325
897.708	21523
897.828	21332
897.949	21401
898.07	21180
898.19	21359
898.311	21443
898.431	21462
898.552	21481
898.672	21538
898.792	21515
898.913	21466
899.033	21317
899.153	21226
899.273	21112
899.393	21077
899.513	21138
899.633	20960
899.753	21195
899.873	21093
899.993	21195
900.113	20990
900.232	21135
900.352	21024
900.472	20925
900.591	20880
900.711	21024
900.83	20914
900.95	20990
901.069	21001
901.189	20705
901.308	20564
901.427	20400
901.546	20419
901.665	20602
901.784	20488
901.904	20336
902.023	20183
902.141	20077
902.26	19982
902.379	19989
902.498	20020
902.617	20062
902.735	19982
902.854	19913
902.973	19928
903.091	19635
903.21	19632
903.328	19567
903.446	19597
903.565	19597
903.683	19518
903.801	19434
903.919	19445
904.038	19369
904.156	19148
904.274	19171
904.392	19202
904.51	19259
904.627	19122
904.745	19202
904.863	19198
904.981	19019
905.098	18886
905.216	18722
905.334	18795
905.451	18939
905.569	18886
905.686	18924
905.803	18821
905.921	18658
906.038	18741
906.155	18646
906.272	18589
906.389	18525
906.506	18452
906.623	18407
906.74	18365
906.857	18350
906.974	18346
907.091	18433
907.208	18445
907.324	18456
907.441	18258
907.557	18087
907.674	18144
907.79	18041
907.907	17988
908.023	18064
908.139	18121
908.256	18053
908.372	17992
908.488	17904
908.604	17851
908.72	17889
908.836	17920
908.952	17733
909.068	17684
909.184	17961
909.3	17912
909.415	17802
909.531	17775
909.647	17547
909.762	17653
909.878	17455
909.993	17474
910.108	17501
910.224	17410
910.339	17406
910.454	17360
910.57	17318
910.685	17181
910.8	17497
910.915	17452
911.03	17398
911.145	17136
911.259	17041
911.374	17067
911.489	17117
911.604	16980
911.718	16889
911.833	16854
911.947	16763
912.062	16721
912.176	16869
912.291	16675
912.405	16812
912.519	16957
912.633	16957
912.748	16767
912.862	16809
912.976	16535
913.09	16512
913.204	16588
913.318	16679
913.431	16729
913.545	16801
913.659	16771
913.772	16558
913.886	16451
914	16325
914.113	16538
914.226	16565
914.34	16462
914.453	16303
914.566	16459
914.68	16382
914.793	16249
914.906	16025
915.019	16025
915.132	15972
915.245	16013
915.358	16055
915.47	15968
915.583	16059
915.696	16021
915.809	16055
915.921	16166
916.034	15899
916.146	15876
916.259	15941
916.371	15903
916.483	15937
916.595	15724
916.708	15797
916.82	15861
916.932	15827
917.044	15778
917.156	15652
917.268	15572
917.38	15568
917.491	15667
917.603	15603
917.715	15644
917.826	15686
917.938	15477
918.049	15420
918.161	15663
918.272	15656
918.384	15606
918.495	15557
918.606	15458
918.717	15329
918.828	15363
918.939	15412
919.05	15226
919.161	15249
919.272	15138
919.383	15264
919.494	15428
919.604	15466
919.715	15272
919.826	15283
919.936	15268
920.047	15329
920.157	15268
920.267	15435
920.378	15370
920.488	15241
920.598	15435
920.708	15488
920.818	15424
920.928	15412
921.038	15618
921.148	15568
921.258	15207
921.368	15100
921.477	15032
921.587	15051
921.697	14876
921.806	15032
921.916	14948
922.025	14674
922.134	14712
922.244	14670
922.353	14659
922.462	14507
922.571	14450
922.68	14362
922.789	14187
922.898	14252
923.007	14244
923.116	14336
923.224	14339
923.333	14210
923.442	14176
923.55	14073
923.659	14111
923.767	14130
923.876	14115
923.984	14138
924.092	14096
924.201	14119
924.309	13947
924.417	13982
924.525	13925
924.633	13879
924.741	14750
924.849	13700
924.956	13898
925.064	13658
925.172	13666
925.279	13700
925.387	13784
925.494	13586
925.602	13738
925.709	13677
925.816	13518
925.924	13594
926.031	13655
926.138	13533
926.245	13643
926.352	13548
926.459	13597
926.566	13613
926.673	13514
926.779	13434
926.886	13392
926.993	13274
927.099	13126
927.206	13198
927.312	13160
927.419	13149
927.525	13202
927.631	13217
927.737	13076
927.843	13141
927.95	12985
928.056	13057
928.162	12989
928.267	13046
928.373	13548
928.479	13183
928.585	12897
928.69	12913
928.796	12966
928.901	12863
929.007	12768
929.112	12840
929.218	12776
929.323	12779
929.428	12764
929.533	12783
929.638	12658
929.743	12631
929.848	12745
929.953	12612
930.058	12563
930.163	12380
930.267	12327
930.372	12578
930.477	12357
930.581	12563
930.685	12441
930.79	12311
930.894	12353
930.998	12148
931.103	12334
931.207	12045
931.311	12007
931.415	11805
931.519	11592
931.623	11684
