Data from test_V78500241_2713.txt Node
Date: Fri Mar 25 16:00:35 CST 2022
User: usil
Spectrometer: V785-0024
Trigger mode: 0
Integration Time (sec): 4.000000E-1
Scans to average: 1
Nonlinearity correction enabled: false
Boxcar width: 0
Storing dark spectrum: false
XAxis mode: Wavelengths
Number of Pixels in Spectrum: 1024
>>>>>Begin Spectral Data<<<<<
801.071	28645
801.214	28672
801.356	28443
801.499	28390
801.641	28200
801.783	28196
801.926	28291
802.068	28207
802.211	28139
802.353	28017
802.496	27991
802.638	27953
802.78	27827
802.923	27705
803.065	27736
803.208	27755
803.35	27953
803.492	27873
803.635	28036
803.777	28017
803.919	28223
804.061	28459
804.204	28192
804.346	28150
804.488	28006
804.63	28010
804.773	28017
804.915	28299
805.057	28356
805.199	28204
805.341	28272
805.483	28257
805.626	28272
805.768	28169
805.91	28109
806.052	28344
806.194	28200
806.336	28489
806.478	28253
806.62	28291
806.762	28565
806.904	28497
807.046	28850
807.188	28710
807.33	28733
807.472	28641
807.614	28702
807.756	28721
807.898	28596
808.04	28527
808.182	28611
808.324	28740
808.465	28843
808.607	28881
808.749	28961
808.891	28873
809.033	29086
809.174	29010
809.316	29018
809.458	28911
809.6	28873
809.741	29056
809.883	29113
810.025	29372
810.166	29349
810.308	29250
810.45	29193
810.591	29128
810.733	29041
810.875	28919
811.016	28877
811.158	29071
811.299	28919
811.441	29197
811.582	29018
811.724	28980
811.865	28995
812.007	29041
812.148	29018
812.29	28972
812.431	29151
812.573	29288
812.714	29322
812.855	29520
812.997	29642
813.138	29722
813.279	29638
813.421	29349
813.562	29531
813.703	29353
813.845	29189
813.986	28847
814.127	28771
814.268	28713
814.41	28660
814.551	28649
814.692	28782
814.833	28584
814.974	28607
815.115	28801
815.256	28622
815.397	28615
815.539	28577
815.68	28531
815.821	28519
815.962	28565
816.103	28455
816.244	28447
816.385	28303
816.526	28386
816.666	28112
816.807	27914
816.948	28055
817.089	28101
817.23	28017
817.371	28006
817.512	28036
817.653	28063
817.793	27888
817.934	28002
818.075	27956
818.216	28128
818.356	27865
818.497	27876
818.638	27819
818.778	27778
818.919	27698
819.06	27854
819.2	27816
819.341	27991
819.481	27895
819.622	28196
819.762	28344
819.903	28318
820.043	28249
820.184	28074
820.324	28051
820.465	28101
820.605	28192
820.746	28166
820.886	28097
821.026	28082
821.167	28093
821.307	28010
821.447	27937
821.588	27850
821.728	27945
821.868	27553
822.008	27431
822.149	27629
822.289	27534
822.429	27252
822.569	27173
822.709	27195
822.849	26994
822.99	27116
823.13	26868
823.27	27005
823.41	26872
823.55	26659
823.69	26708
823.83	26739
823.97	26727
824.11	26617
824.25	26587
824.389	26731
824.529	26720
824.669	26644
824.809	26746
824.949	26872
825.089	26754
825.228	26754
825.368	26629
825.508	26499
825.648	26613
825.787	26541
825.927	26769
826.067	26450
826.206	26446
826.346	26556
826.485	26488
826.625	26473
826.765	26746
826.904	26613
827.044	26351
827.183	26271
827.323	26206
827.462	26328
827.601	26240
827.741	26218
827.88	26195
828.02	26221
828.159	26100
828.298	26240
828.437	26244
828.577	26244
828.716	26438
828.855	26111
828.994	26035
829.134	25936
829.273	25951
829.412	25921
829.551	25769
829.69	25818
829.829	25860
829.968	26054
830.107	26069
830.246	25830
830.385	25868
830.524	25765
830.663	25734
830.802	25674
830.941	25495
831.08	25548
831.219	25597
831.357	25696
831.496	25708
831.635	25624
831.774	25479
831.913	25373
832.051	25335
832.19	25441
832.329	25343
832.467	25175
832.606	25209
832.744	25088
832.883	25118
833.022	25145
833.16	25217
833.299	25244
833.437	25202
833.576	25445
833.714	25392
833.852	25343
833.991	25304
834.129	25339
834.267	25209
834.406	25289
834.544	25297
834.682	25316
834.821	25133
834.959	25491
835.097	25175
835.235	25247
835.373	25339
835.511	25179
835.65	25038
835.788	25103
835.926	24992
836.064	25114
836.202	24958
836.34	25080
836.478	25175
836.615	25076
836.753	25137
836.891	25175
837.029	25046
837.167	25080
837.305	25088
837.443	24947
837.58	24958
837.718	25057
837.856	25050
837.993	24749
838.131	24863
838.269	24722
838.406	24802
838.544	24688
838.681	24544
838.819	24437
838.956	24441
839.094	24403
839.231	24388
839.369	24563
839.506	24745
839.643	24650
839.781	24418
839.918	24403
840.055	24350
840.193	24251
840.33	24342
840.467	24330
840.604	24300
840.742	24540
840.879	24182
841.016	24186
841.153	24205
841.29	24292
841.427	24171
841.564	24232
841.701	24350
841.838	24110
841.975	24110
842.112	24163
842.249	24178
842.385	24098
842.522	24395
842.659	24098
842.796	24034
842.933	23893
843.069	23882
843.206	24022
843.343	24167
843.479	24091
843.616	24041
843.752	23939
843.889	23897
844.025	24049
844.162	23764
844.298	23836
844.435	23847
844.571	23779
844.708	23927
844.844	23916
844.98	24057
845.117	23885
845.253	23687
845.389	23642
845.525	23737
845.661	23547
845.798	23547
845.934	23608
846.07	23520
846.206	23573
846.342	23615
846.478	23474
846.614	23425
846.75	23292
846.886	23318
847.022	23322
847.158	23193
847.294	23258
847.429	23307
847.565	23356
847.701	23516
847.837	22999
847.972	23014
848.108	23010
848.244	23006
848.379	22847
848.515	22866
848.65	22793
848.786	22869
848.921	22911
849.057	22889
849.192	22946
849.328	22873
849.463	22850
849.598	22835
849.734	22755
849.869	22637
850.004	22637
850.14	22596
850.275	22443
850.41	22561
850.545	22516
850.68	22516
850.815	22683
850.95	22603
851.085	22778
851.22	22790
851.355	22679
851.49	22599
851.625	22710
851.76	22577
851.895	22466
852.03	22462
852.165	22569
852.299	22694
852.434	22653
852.569	22706
852.703	22557
852.838	22645
852.973	22767
853.107	22778
853.242	22531
853.376	22497
853.511	22375
853.645	22394
853.78	22497
853.914	22455
854.048	22363
854.183	22356
854.317	22531
854.451	22603
854.585	22443
854.72	22409
854.854	22573
854.988	22303
855.122	22436
855.256	22337
855.39	22417
855.524	22656
855.658	22481
855.792	22398
855.926	22466
856.06	22478
856.194	22588
856.327	22436
856.461	22504
856.595	22356
856.729	22394
856.862	22557
856.996	22546
857.13	22455
857.263	22569
857.397	22459
857.53	22402
857.664	22413
857.797	22580
857.931	22535
858.064	22519
858.197	22599
858.331	22405
858.464	22287
858.597	22314
858.731	22432
858.864	22428
858.997	22440
859.13	22352
859.263	22428
859.396	22462
859.529	22322
859.662	22470
859.795	22497
859.928	22432
860.061	22500
860.194	22596
860.327	22478
860.46	22405
860.592	22565
860.725	22596
860.858	22569
860.99	22519
861.123	22360
861.256	22428
861.388	22459
861.521	23143
861.653	22398
861.786	22158
861.918	22287
862.05	22306
862.183	22466
862.315	22299
862.447	22371
862.58	22181
862.712	22143
862.844	22139
862.976	22310
863.108	22200
863.24	22653
863.372	22223
863.504	22143
863.636	22173
863.768	22246
863.9	22181
864.032	22070
864.164	22059
864.296	22048
864.428	22242
864.559	22192
864.691	22177
864.823	22082
864.954	22154
865.086	22044
865.217	21968
865.349	21937
865.48	22067
865.612	21892
865.743	22166
865.875	22051
866.006	21915
866.137	21979
866.269	22055
866.4	22032
866.531	21956
866.662	21797
866.793	21953
866.924	21865
867.055	22013
867.186	21964
867.317	22013
867.448	21861
867.579	22032
867.71	21922
867.841	21892
867.972	22055
868.103	21960
868.233	21972
868.364	21861
868.495	21991
868.625	22188
868.756	22238
868.886	22082
869.017	22188
869.147	22394
869.278	22257
869.408	22196
869.539	22139
869.669	22280
869.799	22249
869.929	22253
870.06	22306
870.19	22573
870.32	22637
870.45	22603
870.58	22546
870.71	22550
870.84	22733
870.97	22588
871.1	22683
871.23	22771
871.36	22721
871.489	22698
871.619	22843
871.749	22752
871.879	22809
872.008	22831
872.138	22999
872.267	22824
872.397	22706
872.526	22702
872.656	22599
872.785	22626
872.915	22763
873.044	22828
873.173	22911
873.303	22896
873.432	22892
873.561	22995
873.69	22835
873.819	22809
873.948	22987
874.077	22911
874.206	22816
874.335	22847
874.464	22987
874.593	23056
874.722	23056
874.851	23010
874.979	23018
875.108	23067
875.237	23140
875.365	22987
875.494	22957
875.623	23227
875.751	22957
875.88	23018
876.008	23147
876.136	23212
876.265	23524
876.393	23531
876.521	23482
876.65	23501
876.778	23524
876.906	23414
877.034	23311
877.162	23398
877.29	23311
877.418	23528
877.546	23493
877.674	23337
877.802	23337
877.93	23292
878.058	23391
878.185	23353
878.313	23391
878.441	23402
878.568	23265
878.696	23273
878.824	23474
878.951	23406
879.079	23531
879.206	23684
879.333	23505
879.461	23440
879.588	23562
879.715	23490
879.842	23638
879.97	23345
880.097	23227
880.224	23181
880.351	23212
880.478	23277
880.605	23151
880.732	23193
880.859	23341
880.986	23303
881.112	23185
881.239	23147
881.366	22885
881.493	22858
881.619	22774
881.746	22801
881.872	22797
881.999	22733
882.125	22729
882.252	22881
882.378	22694
882.505	22839
882.631	22763
882.757	22561
882.883	22508
883.01	22577
883.136	22413
883.262	22306
883.388	22207
883.514	22390
883.64	22287
883.766	22211
883.892	22234
884.018	22154
884.143	22417
884.269	22398
884.395	22048
884.52	22169
884.646	22139
884.772	21968
884.897	21895
885.023	22219
885.148	22166
885.274	22242
885.399	22181
885.524	22090
885.65	22051
885.775	22078
885.9	22162
886.025	22226
886.15	22101
886.275	22055
886.4	21857
886.525	22044
886.65	21949
886.775	21945
886.9	22135
887.025	22295
887.149	22040
887.274	21854
887.399	21816
887.523	21838
887.648	21705
887.773	21694
887.897	21895
888.021	21873
888.146	21774
888.27	21903
888.395	21892
888.519	21850
888.643	21808
888.767	21838
888.891	21705
889.015	21717
889.139	21656
889.263	21549
889.387	21736
889.511	21842
889.635	21789
889.759	21618
889.883	21618
890.006	21523
890.13	21728
890.254	21553
890.377	21507
890.501	21378
890.624	21264
890.748	21393
890.871	21180
890.995	21150
891.118	21195
891.241	21085
891.364	21154
891.488	21378
891.611	21195
891.734	21108
891.857	21230
891.98	21150
892.103	21275
892.226	21104
892.349	21066
892.471	21024
892.594	21062
892.717	21089
892.839	20963
892.962	21188
893.085	21058
893.207	21020
893.33	20823
893.452	20956
893.575	21077
893.697	21070
893.819	21195
893.941	21203
894.064	21211
894.186	20982
894.308	20937
894.43	21138
894.552	21096
894.674	21089
894.796	21039
894.918	20971
895.04	20960
895.161	21154
895.283	21043
895.405	20982
895.526	21070
895.648	21070
895.769	21119
895.891	21051
896.012	21104
896.134	21043
896.255	21131
896.376	20994
896.498	21013
896.619	21001
896.74	21047
896.861	21085
896.982	21291
897.103	21424
897.224	21344
897.345	21176
897.466	21264
897.587	21249
897.708	21260
897.828	21283
897.949	21218
898.07	21146
898.19	21138
898.311	21348
898.431	21058
898.552	21169
898.672	21351
898.792	21405
898.913	21226
899.033	21085
899.153	21051
899.273	20914
899.393	20921
899.513	21001
899.633	21093
899.753	21039
899.873	20925
899.993	20956
900.113	20880
900.232	20834
900.352	20838
900.472	20868
900.591	20621
900.711	20868
900.83	20670
900.95	20910
901.069	20849
901.189	20575
901.308	20294
901.427	20271
901.546	20275
901.665	20271
901.784	20351
901.904	20176
902.023	20024
902.141	19852
902.26	19875
902.379	19932
902.498	19807
902.617	19791
902.735	19715
902.854	19776
902.973	19765
903.091	19476
903.21	19556
903.328	19525
903.446	19377
903.565	19335
903.683	19266
903.801	19316
903.919	19240
904.038	19164
904.156	19072
904.274	19107
904.392	18970
904.51	18958
904.627	19000
904.745	19061
904.863	19023
904.981	18871
905.098	18817
905.216	18722
905.334	18715
905.451	18627
905.569	18722
905.686	18768
905.803	18650
905.921	18422
906.038	18559
906.155	18544
906.272	18376
906.389	18433
906.506	18224
906.623	18296
906.74	18140
906.857	18201
906.974	18049
907.091	18262
907.208	18437
907.324	18281
907.441	18136
907.557	18011
907.674	17939
907.79	17817
907.907	17821
908.023	17969
908.139	17973
908.256	17863
908.372	17859
908.488	17756
908.604	17726
908.72	17646
908.836	17676
908.952	17535
909.068	17611
909.184	17733
909.3	17604
909.415	17691
909.531	17585
909.647	17417
909.762	17353
909.878	17330
909.993	17372
910.108	17269
910.224	17258
910.339	17174
910.454	17273
910.57	17212
910.685	17075
910.8	17265
910.915	17250
911.03	17056
911.145	16991
911.259	16927
911.374	16999
911.489	16923
911.604	16866
911.718	16706
911.833	16691
911.947	16641
912.062	16462
912.176	16649
912.291	16752
912.405	16653
912.519	16885
912.633	16866
912.748	16645
912.862	16588
912.976	16459
913.09	16352
913.204	16398
913.318	16622
913.431	16592
913.545	16478
913.659	16584
913.772	16497
913.886	16348
914	16272
914.113	16337
914.226	16386
914.34	16348
914.453	16234
914.566	16192
914.68	16223
914.793	16196
914.906	15987
915.019	15865
915.132	15869
915.245	15800
915.358	15899
915.47	15800
915.583	15774
915.696	15915
915.809	15926
915.921	15808
916.034	15816
916.146	15717
916.259	15701
916.371	15949
916.483	15835
916.595	15637
916.708	15641
916.82	15686
916.932	15561
917.044	15625
917.156	15557
917.268	15515
917.38	15488
917.491	15424
917.603	15549
917.715	15538
917.826	15481
917.938	15363
918.049	15359
918.161	15439
918.272	15443
918.384	15481
918.495	15466
918.606	15222
918.717	15176
918.828	15256
918.939	15207
919.05	15116
919.161	15138
919.272	14937
919.383	15097
919.494	15207
919.604	15393
919.715	15138
919.826	15089
919.936	15123
920.047	15272
920.157	15112
920.267	15283
920.378	15142
920.488	15150
920.598	15310
920.708	15500
920.818	15355
920.928	15294
921.038	15378
921.148	15344
921.258	15218
921.368	15039
921.477	14960
921.587	14967
921.697	14735
921.806	14823
921.916	14720
922.025	14450
922.134	14469
922.244	14465
922.353	14492
922.462	14408
922.571	14358
922.68	14244
922.789	14183
922.898	14248
923.007	14199
923.116	14107
923.224	14138
923.333	14092
923.442	14054
923.55	13955
923.659	13925
923.767	14012
923.876	14001
923.984	13997
924.092	13883
924.201	13925
924.309	13837
924.417	13955
924.525	13826
924.633	13776
924.741	14731
924.849	13605
924.956	13696
925.064	13563
925.172	13468
925.279	13514
925.387	13540
925.494	13518
925.602	13719
925.709	13548
925.816	13384
925.924	13495
926.031	13518
926.138	13506
926.245	13430
926.352	13396
926.459	13491
926.566	13578
926.673	13392
926.779	13259
926.886	13259
926.993	13126
927.099	13171
927.206	13050
927.312	13069
927.419	13164
927.525	13088
927.631	13149
927.737	13015
927.843	12905
927.95	12806
928.056	12920
928.162	12905
928.267	12966
928.373	13483
928.479	12920
928.585	12684
928.69	12852
928.796	12798
928.901	12776
929.007	12658
929.112	12730
929.218	12726
929.323	12608
929.428	12513
929.533	12688
929.638	12604
929.743	12517
929.848	12521
929.953	12582
930.058	12433
930.163	12281
930.267	12315
930.372	12498
930.477	12285
930.581	12460
930.685	12304
930.79	12125
930.894	12239
930.998	12102
931.103	12270
931.207	11901
931.311	11897
931.415	11767
931.519	11554
931.623	11535
