Data from test_V78500241_1491.txt Node
Date: Fri Mar 25 15:52:07 CST 2022
User: usil
Spectrometer: V785-0024
Trigger mode: 0
Integration Time (sec): 4.000000E-1
Scans to average: 1
Nonlinearity correction enabled: false
Boxcar width: 0
Storing dark spectrum: false
XAxis mode: Wavelengths
Number of Pixels in Spectrum: 1024
>>>>>Begin Spectral Data<<<<<
801.071	27953
801.214	28070
801.356	27808
801.499	27751
801.641	27679
801.783	27682
801.926	27591
802.068	27568
802.211	27511
802.353	27401
802.496	27382
802.638	27252
802.78	27203
802.923	27154
803.065	27093
803.208	27173
803.35	27123
803.492	27504
803.635	27515
803.777	27389
803.919	27477
804.061	27895
804.204	27488
804.346	27439
804.488	27313
804.63	27481
804.773	27443
804.915	27462
805.057	27679
805.199	27473
805.341	27538
805.483	27641
805.626	27743
805.768	27606
805.91	27591
806.052	27641
806.194	27549
806.336	27698
806.478	27618
806.62	27622
806.762	27835
806.904	27926
807.046	28169
807.188	28025
807.33	27941
807.472	28025
807.614	28032
807.756	27911
807.898	27930
808.04	27873
808.182	27781
808.324	27945
808.465	27888
808.607	28154
808.749	28291
808.891	28436
809.033	28546
809.174	28440
809.316	28257
809.458	28249
809.6	28272
809.741	28474
809.883	28394
810.025	28508
810.166	28527
810.308	28569
810.45	28531
810.591	28352
810.733	28337
810.875	28249
811.016	28162
811.158	28017
811.299	28428
811.441	28424
811.582	28497
811.724	28230
811.865	28158
812.007	28299
812.148	28181
812.29	28246
812.431	28421
812.573	28725
812.714	28679
812.855	28778
812.997	28850
813.138	28938
813.279	28888
813.421	28797
813.562	28759
813.703	28523
813.845	28481
813.986	28181
814.127	28109
814.268	28082
814.41	28154
814.551	27835
814.692	28078
814.833	27823
814.974	27983
815.115	27998
815.256	27907
815.397	27751
815.539	27804
815.68	27778
815.821	27644
815.962	27686
816.103	27717
816.244	27523
816.385	27545
816.526	27447
816.666	27378
816.807	27310
816.948	27378
817.089	27431
817.23	27268
817.371	27268
817.512	27203
817.653	27363
817.793	27135
817.934	27173
818.075	27260
818.216	27230
818.356	27138
818.497	27188
818.638	26933
818.778	27017
818.919	27009
819.06	27154
819.2	27176
819.341	27256
819.481	27207
819.622	27348
819.762	27591
819.903	27485
820.043	27382
820.184	27412
820.324	27427
820.465	27412
820.605	27340
820.746	27355
820.886	27241
821.026	27287
821.167	27397
821.307	27416
821.447	27211
821.588	27135
821.728	26967
821.868	26944
822.008	26845
822.149	26853
822.289	26644
822.429	26473
822.569	26431
822.709	26366
822.849	26309
822.99	26202
823.13	26294
823.27	26077
823.41	26069
823.55	26016
823.69	26035
823.83	26054
823.97	26130
824.11	25917
824.25	25890
824.389	25788
824.529	25963
824.669	25795
824.809	26043
824.949	26119
825.089	25909
825.228	25879
825.368	25712
825.508	25883
825.648	25868
825.787	25753
825.927	25849
826.067	25677
826.206	25757
826.346	25849
826.485	25685
826.625	25677
826.765	25822
826.904	25742
827.044	25491
827.183	25571
827.323	25419
827.462	25575
827.601	25525
827.741	25556
827.88	25434
828.02	25350
828.159	25445
828.298	25457
828.437	25639
828.577	25453
828.716	25655
828.855	25381
828.994	25266
829.134	25209
829.273	25236
829.412	25129
829.551	25228
829.69	25179
829.829	25137
829.968	25206
830.107	25156
830.246	25103
830.385	25084
830.524	25118
830.663	24954
830.802	24920
830.941	24700
831.08	24650
831.219	24787
831.357	24886
831.496	25072
831.635	24825
831.774	24650
831.913	24757
832.051	24570
832.19	24608
832.329	24654
832.467	24479
832.606	24418
832.744	24456
832.883	24361
833.022	24437
833.16	24475
833.299	24490
833.437	24475
833.576	24612
833.714	24429
833.852	24582
833.991	24505
834.129	24753
834.267	24582
834.406	24525
834.544	24505
834.682	24498
834.821	24471
834.959	24665
835.097	24395
835.235	24570
835.373	24563
835.511	24475
835.65	24357
835.788	24410
835.926	24235
836.064	24129
836.202	24060
836.34	24350
836.478	24422
836.615	24327
836.753	24296
836.891	24365
837.029	24380
837.167	24277
837.305	24266
837.443	24186
837.58	24213
837.718	24273
837.856	24110
837.993	24163
838.131	24095
838.269	24110
838.406	23977
838.544	23840
838.681	23889
838.819	23866
838.956	23687
839.094	23589
839.231	23680
839.369	23847
839.506	23946
839.643	23931
839.781	23745
839.918	23585
840.055	23600
840.193	23703
840.33	23547
840.467	23608
840.604	23638
840.742	23927
840.879	23395
841.016	23497
841.153	23459
841.29	23691
841.427	23520
841.564	23547
841.701	23585
841.838	23455
841.975	23395
842.112	23493
842.249	23463
842.385	23337
842.522	23520
842.659	23349
842.796	23402
842.933	23261
843.069	23280
843.206	23261
843.343	23345
843.479	23318
843.616	23315
843.752	23117
843.889	23086
844.025	23216
844.162	23067
844.298	23162
844.435	22915
844.571	23033
844.708	23102
844.844	23265
844.98	23250
845.117	23223
845.253	23140
845.389	22885
845.525	22995
845.661	22881
845.798	22793
845.934	22805
846.07	22877
846.206	22866
846.342	22824
846.478	22820
846.614	22504
846.75	22542
846.886	22523
847.022	22607
847.158	22554
847.294	22626
847.429	22516
847.565	22466
847.701	22668
847.837	22333
847.972	22287
848.108	22379
848.244	22428
848.379	22272
848.515	22147
848.65	21983
848.786	21972
848.921	22101
849.057	22204
849.192	22105
849.328	22177
849.463	22188
849.598	22112
849.734	22150
849.869	22093
850.004	21964
850.14	21915
850.275	21987
850.41	21766
850.545	21857
850.68	21895
850.815	22032
850.95	21873
851.085	22010
851.22	21991
851.355	21892
851.49	21915
851.625	21785
851.76	21812
851.895	21793
852.03	21861
852.165	21846
852.299	22025
852.434	22036
852.569	21846
852.703	21823
852.838	21968
852.973	22051
853.107	22002
853.242	21682
853.376	21804
853.511	21614
853.645	21728
853.78	21842
853.914	21717
854.048	21682
854.183	21705
854.317	21717
854.451	21926
854.585	21751
854.72	21682
854.854	21895
854.988	21797
855.122	21701
855.256	21553
855.39	21679
855.524	21759
855.658	21789
855.792	21728
855.926	21686
856.06	21785
856.194	21652
856.327	21793
856.461	21667
856.595	21663
856.729	21804
856.862	21857
856.996	21819
857.13	21907
857.263	21865
857.397	21759
857.53	21736
857.664	21884
857.797	21720
857.931	21880
858.064	21816
858.197	21895
858.331	21671
858.464	21705
858.597	21519
858.731	21663
858.864	21663
858.997	21759
859.13	21789
859.263	21709
859.396	21911
859.529	21625
859.662	21652
859.795	21713
859.928	21698
860.061	21911
860.194	21850
860.327	21682
860.46	21751
860.592	21827
860.725	21797
860.858	21937
860.99	21800
861.123	21686
861.256	21755
861.388	21724
861.521	22474
861.653	21599
861.786	21431
861.918	21625
862.05	21660
862.183	21641
862.315	21618
862.447	21701
862.58	21739
862.712	21420
862.844	21401
862.976	21644
863.108	21515
863.24	21911
863.372	21329
863.504	21519
863.636	21439
863.768	21454
863.9	21462
864.032	21374
864.164	21313
864.296	21389
864.428	21557
864.559	21481
864.691	21580
864.823	21500
864.954	21500
865.086	21412
865.217	21412
865.349	21222
865.48	21386
865.612	21363
865.743	21439
865.875	21389
866.006	21450
866.137	21329
866.269	21294
866.4	21294
866.531	21241
866.662	21222
866.793	21298
866.924	21325
867.055	21211
867.186	21344
867.317	21275
867.448	21169
867.579	21226
867.71	21207
867.841	21112
867.972	21287
868.103	21291
868.233	21275
868.364	21363
868.495	21412
868.625	21553
868.756	21599
868.886	21466
869.017	21606
869.147	21606
869.278	21553
869.408	21515
869.539	21538
869.669	21526
869.799	21523
869.929	21690
870.06	21496
870.19	21755
870.32	21751
870.45	21831
870.58	21907
870.71	21850
870.84	22070
870.97	21854
871.1	22032
871.23	22059
871.36	22131
871.489	22006
871.619	22109
871.749	22059
871.879	22135
872.008	22261
872.138	22097
872.267	22044
872.397	21979
872.526	22002
872.656	21960
872.785	21907
872.915	22093
873.044	22238
873.173	22128
873.303	22158
873.432	22246
873.561	22181
873.69	22192
873.819	22124
873.948	22135
874.077	22276
874.206	22090
874.335	22207
874.464	22166
874.593	22344
874.722	22265
874.851	22394
874.979	22451
875.108	22253
875.237	22272
875.365	22242
875.494	22306
875.623	22398
875.751	22497
875.88	22379
876.008	22485
876.136	22459
876.265	22748
876.393	22858
876.521	22656
876.65	22873
876.778	22801
876.906	22694
877.034	22683
877.162	22641
877.29	22561
877.418	22691
877.546	22637
877.674	22691
877.802	22634
877.93	22580
878.058	22577
878.185	22577
878.313	22630
878.441	22675
878.568	22634
878.696	22637
878.824	22698
878.951	22774
879.079	22900
879.206	23044
879.333	23006
879.461	22885
879.588	22805
879.715	22946
879.842	23044
879.97	22729
880.097	22649
880.224	22481
880.351	22542
880.478	22432
880.605	22455
880.732	22580
880.859	22755
880.986	22470
881.112	22470
881.239	22394
881.366	22303
881.493	22158
881.619	22017
881.746	22101
881.872	22150
881.999	21956
882.125	22002
882.252	22116
882.378	21964
882.505	22086
882.631	21873
882.757	21857
882.883	21907
883.01	21819
883.136	21660
883.262	21679
883.388	21538
883.514	21720
883.64	21789
883.766	21686
883.892	21622
884.018	21652
884.143	21698
884.269	21625
884.395	21401
884.52	21401
884.646	21382
884.772	21439
884.897	21348
885.023	21447
885.148	21431
885.274	21686
885.399	21428
885.524	21378
885.65	21507
885.775	21386
885.9	21317
886.025	21519
886.15	21576
886.275	21389
886.4	21336
886.525	21431
886.65	21332
886.775	21340
886.9	21488
887.025	21595
887.149	21283
887.274	21218
887.399	21119
887.523	21184
887.648	21047
887.773	21119
887.897	21249
888.021	21150
888.146	21116
888.27	21306
888.395	21283
888.519	21214
888.643	21100
888.767	21287
888.891	21020
889.015	20975
889.139	21062
889.263	20842
889.387	21146
889.511	21180
889.635	21047
889.759	21047
889.883	21009
890.006	21020
890.13	21043
890.254	20902
890.377	20811
890.501	20883
890.624	20705
890.748	20724
890.871	20708
890.995	20457
891.118	20442
891.241	20533
891.364	20415
891.488	20731
891.611	20522
891.734	20632
891.857	20629
891.98	20518
892.103	20537
892.226	20514
892.349	20412
892.471	20252
892.594	20450
892.717	20503
892.839	20537
892.962	20412
893.085	20465
893.207	20518
893.33	20431
893.452	20355
893.575	20537
893.697	20476
893.819	20518
893.941	20537
894.064	20434
894.186	20366
894.308	20320
894.43	20446
894.552	20480
894.674	20556
894.796	20412
894.918	20252
895.04	20415
895.161	20575
895.283	20370
895.405	20415
895.526	20400
895.648	20385
895.769	20339
895.891	20492
896.012	20537
896.134	20431
896.255	20476
896.376	20374
896.498	20423
896.619	20503
896.74	20450
896.861	20476
896.982	20712
897.103	20838
897.224	20762
897.345	20636
897.466	20708
897.587	20701
897.708	20720
897.828	20686
897.949	20571
898.07	20465
898.19	20590
898.311	20693
898.431	20644
898.552	20640
898.672	20724
898.792	20826
898.913	20522
899.033	20571
899.153	20389
899.273	20225
899.393	20358
899.513	20469
899.633	20343
899.753	20400
899.873	20347
899.993	20290
900.113	20278
900.232	20393
900.352	20320
900.472	20229
900.591	20020
900.711	20206
900.83	20161
900.95	20202
901.069	20336
901.189	20100
901.308	19883
901.427	19746
901.546	19685
901.665	19772
901.784	19674
901.904	19616
902.023	19552
902.141	19251
902.26	19202
902.379	19396
902.498	19411
902.617	19221
902.735	19324
902.854	19190
902.973	19110
903.091	19012
903.21	18920
903.328	18916
903.446	18749
903.565	18658
903.683	18768
903.801	18483
903.919	18654
904.038	18582
904.156	18540
904.274	18547
904.392	18353
904.51	18483
904.627	18506
904.745	18570
904.863	18513
904.981	18323
905.098	18182
905.216	18125
905.334	18148
905.451	18216
905.569	18098
905.686	18171
905.803	18053
905.921	17893
906.038	17980
906.155	17965
906.272	17821
906.389	17745
906.506	17634
906.623	17745
906.74	17707
906.857	17459
906.974	17608
907.091	17783
907.208	17885
907.324	17726
907.441	17619
907.557	17433
907.674	17398
907.79	17364
907.907	17379
908.023	17417
908.139	17509
908.256	17322
908.372	17277
908.488	17235
908.604	17147
908.72	17109
908.836	17090
908.952	17159
909.068	17147
909.184	17265
909.3	17109
909.415	17128
909.531	17117
909.647	16900
909.762	16755
909.878	16752
909.993	16828
910.108	16729
910.224	16778
910.339	16820
910.454	16702
910.57	16603
910.685	16497
910.8	16873
910.915	16752
911.03	16618
911.145	16451
911.259	16375
911.374	16348
911.489	16382
911.604	16265
911.718	16112
911.833	16188
911.947	16090
912.062	15998
912.176	16093
912.291	16090
912.405	16135
912.519	16417
912.633	16325
912.748	16059
912.862	16162
912.976	16021
913.09	15850
913.204	15854
913.318	15998
913.431	16032
913.545	15987
913.659	16139
913.772	15838
913.886	15838
914	15770
914.113	15876
914.226	15899
914.34	15762
914.453	15682
914.566	15808
914.68	15671
914.793	15667
914.906	15473
915.019	15359
915.132	15283
915.245	15363
915.358	15355
915.47	15310
915.583	15397
915.696	15370
915.809	15428
915.921	15591
916.034	15355
916.146	15310
916.259	15329
916.371	15420
916.483	15230
916.595	15180
916.708	15176
916.82	15142
916.932	15135
917.044	15180
917.156	15176
917.268	14982
917.38	15085
917.491	15013
917.603	15089
917.715	15028
917.826	15157
917.938	14971
918.049	14868
918.161	15005
918.272	15066
918.384	15123
918.495	15043
918.606	14880
918.717	14682
918.828	14883
918.939	14762
919.05	14735
919.161	14788
919.272	14533
919.383	14636
919.494	14910
919.604	14975
919.715	14834
919.826	14651
919.936	14743
920.047	14788
920.157	14781
920.267	14975
920.378	14724
920.488	14670
920.598	15047
920.708	15108
920.818	14849
920.928	14830
921.038	15123
921.148	14986
921.258	14667
921.368	14629
921.477	14461
921.587	14545
921.697	14320
921.806	14537
921.916	14343
922.025	14187
922.134	14195
922.244	14088
922.353	14195
922.462	14058
922.571	13902
922.68	13807
922.789	13753
922.898	13765
923.007	13746
923.116	13826
923.224	13826
923.333	13674
923.442	13601
923.55	13609
923.659	13571
923.767	13582
923.876	13514
923.984	13636
924.092	13525
924.201	13590
924.309	13597
924.417	13472
924.525	13362
924.633	13396
924.741	14385
924.849	13225
924.956	13453
925.064	13179
925.172	13149
925.279	13107
925.387	13251
925.494	13069
925.602	13308
925.709	13171
925.816	13088
925.924	13137
926.031	13217
926.138	13069
926.245	13152
926.352	13091
926.459	13137
926.566	13190
926.673	12970
926.779	13004
926.886	12882
926.993	12703
927.099	12817
927.206	12753
927.312	12673
927.419	12859
927.525	12665
927.631	12665
927.737	12608
927.843	12528
927.95	12479
928.056	12521
928.162	12513
928.267	12642
928.373	13194
928.479	12589
928.585	12395
928.69	12536
928.796	12555
928.901	12403
929.007	12262
929.112	12403
929.218	12452
929.323	12353
929.428	12254
929.533	12380
929.638	12239
929.743	12243
929.848	12175
929.953	12277
930.058	12136
930.163	11999
930.267	11977
930.372	12091
930.477	11912
930.581	12155
930.685	12064
930.79	11783
930.894	11901
930.998	11832
931.103	11939
931.207	11558
931.311	11467
931.415	11459
931.519	11269
931.623	11197
