Data from test_V78500241_976.txt Node
Date: Fri Mar 25 15:48:33 CST 2022
User: usil
Spectrometer: V785-0024
Trigger mode: 0
Integration Time (sec): 4.000000E-1
Scans to average: 1
Nonlinearity correction enabled: false
Boxcar width: 0
Storing dark spectrum: false
XAxis mode: Wavelengths
Number of Pixels in Spectrum: 1024
>>>>>Begin Spectral Data<<<<<
801.071	28569
801.214	28542
801.356	28169
801.499	28253
801.641	28166
801.783	27968
801.926	28242
802.068	28055
802.211	27994
802.353	27975
802.496	27819
802.638	27682
802.78	27766
802.923	27739
803.065	27648
803.208	27660
803.35	27778
803.492	27778
803.635	28067
803.777	27819
803.919	27846
804.061	28211
804.204	28013
804.346	27823
804.488	27873
804.63	27930
804.773	27895
804.915	27994
805.057	28169
805.199	27930
805.341	28040
805.483	28207
805.626	28173
805.768	28090
805.91	28093
806.052	28006
806.194	27884
806.336	28478
806.478	28207
806.62	28230
806.762	28272
806.904	28409
807.046	28611
807.188	28542
807.33	28637
807.472	28713
807.614	28573
807.756	28542
807.898	28421
808.04	28417
808.182	28306
808.324	28310
808.465	28459
808.607	28702
808.749	28888
808.891	28984
809.033	28976
809.174	28957
809.316	28748
809.458	28710
809.6	28786
809.741	28968
809.883	28900
810.025	29174
810.166	29086
810.308	29166
810.45	28999
810.591	29010
810.733	29033
810.875	28873
811.016	28809
811.158	28793
811.299	28915
811.441	28972
811.582	29029
811.724	28900
811.865	28801
812.007	28995
812.148	28927
812.29	28896
812.431	29060
812.573	29303
812.714	29356
812.855	29360
812.997	29372
813.138	29512
813.279	29490
813.421	29421
813.562	29326
813.703	29197
813.845	29052
813.986	28816
814.127	28820
814.268	28531
814.41	28573
814.551	28573
814.692	28637
814.833	28508
814.974	28512
815.115	28584
815.256	28398
815.397	28462
815.539	28504
815.68	28341
815.821	28314
815.962	28356
816.103	28219
816.244	28329
816.385	28276
816.526	27991
816.666	28051
816.807	27960
816.948	28017
817.089	28029
817.23	27861
817.371	27831
817.512	27918
817.653	27922
817.793	27827
817.934	27846
818.075	27922
818.216	27835
818.356	27983
818.497	27709
818.638	27694
818.778	27648
818.919	27720
819.06	27686
819.2	27869
819.341	27914
819.481	27899
819.622	28078
819.762	28120
819.903	28234
820.043	28196
820.184	28044
820.324	27922
820.465	27972
820.605	27975
820.746	27945
820.886	27846
821.026	27804
821.167	27850
821.307	28112
821.447	27994
821.588	27892
821.728	27717
821.868	27511
822.008	27447
822.149	27332
822.289	27294
822.429	27180
822.569	26998
822.709	27001
822.849	26914
822.99	27017
823.13	26823
823.27	26785
823.41	26762
823.55	26594
823.69	26674
823.83	26746
823.97	26670
824.11	26564
824.25	26495
824.389	26552
824.529	26602
824.669	26549
824.809	26629
824.949	26636
825.089	26587
825.228	26594
825.368	26366
825.508	26465
825.648	26393
825.787	26339
825.927	26484
826.067	26434
826.206	26313
826.346	26480
826.485	26404
826.625	26404
826.765	26503
826.904	26389
827.044	26065
827.183	26168
827.323	26256
827.462	26164
827.601	26065
827.741	26130
827.88	26126
828.02	25951
828.159	25982
828.298	26164
828.437	26221
828.577	26054
828.716	26138
828.855	26088
828.994	25856
829.134	25818
829.273	25913
829.412	25719
829.551	25715
829.69	25830
829.829	25947
829.968	25890
830.107	25723
830.246	25822
830.385	25769
830.524	25689
830.663	25506
830.802	25552
830.941	25331
831.08	25339
831.219	25358
831.357	25529
831.496	25753
831.635	25495
831.774	25411
831.913	25175
832.051	25240
832.19	25110
832.329	25198
832.467	25198
832.606	24962
832.744	25031
832.883	25099
833.022	25114
833.16	25118
833.299	25221
833.437	25126
833.576	25164
833.714	25202
833.852	25129
833.991	25107
834.129	25251
834.267	25263
834.406	25057
834.544	25129
834.682	25198
834.821	25129
834.959	25206
835.097	25050
835.235	25396
835.373	25206
835.511	25057
835.65	25008
835.788	25069
835.926	24764
836.064	24821
836.202	24878
836.34	25015
836.478	25042
836.615	24894
836.753	25046
836.891	24939
837.029	25050
837.167	25000
837.305	24886
837.443	24840
837.58	24760
837.718	24897
837.856	24882
837.993	24757
838.131	24642
838.269	24646
838.406	24688
838.544	24540
838.681	24422
838.819	24403
838.956	24334
839.094	24235
839.231	24319
839.369	24342
839.506	24525
839.643	24445
839.781	24201
839.918	24243
840.055	24266
840.193	24251
840.33	24292
840.467	24311
840.604	24224
840.742	24555
840.879	24026
841.016	24140
841.153	24102
841.29	24258
841.427	24224
841.564	24152
841.701	24197
841.838	24190
841.975	24102
842.112	24186
842.249	23912
842.385	23996
842.522	24190
842.659	23851
842.796	23961
842.933	23988
843.069	23863
843.206	23863
843.343	24072
843.479	23969
843.616	23882
843.752	23646
843.889	23764
844.025	23809
844.162	23554
844.298	23748
844.435	23649
844.571	23653
844.708	23775
844.844	23885
844.98	23984
845.117	23840
845.253	23707
845.389	23726
845.525	23459
845.661	23501
845.798	23387
845.934	23520
846.07	23406
846.206	23455
846.342	23490
846.478	23433
846.614	23143
846.75	23102
846.886	23178
847.022	23231
847.158	23037
847.294	23231
847.429	23048
847.565	23208
847.701	23353
847.837	22843
847.972	22862
848.108	22946
848.244	22938
848.379	22702
848.515	22736
848.65	22767
848.786	22683
848.921	22824
849.057	22790
849.192	22763
849.328	22679
849.463	22630
849.598	22672
849.734	22588
849.869	22626
850.004	22493
850.14	22675
850.275	22588
850.41	22341
850.545	22440
850.68	22618
850.815	22451
850.95	22538
851.085	22820
851.22	22664
851.355	22459
851.49	22546
851.625	22565
851.76	22466
851.895	22436
852.03	22421
852.165	22546
852.299	22596
852.434	22641
852.569	22504
852.703	22561
852.838	22512
852.973	22577
853.107	22691
853.242	22432
853.376	22367
853.511	22177
853.645	22242
853.78	22375
853.914	22360
854.048	22409
854.183	22344
854.317	22386
854.451	22508
854.585	22272
854.72	22249
854.854	22379
854.988	22238
855.122	22238
855.256	22169
855.39	22268
855.524	22421
855.658	22421
855.792	22379
855.926	22405
856.06	22371
856.194	22497
856.327	22299
856.461	22291
856.595	22238
856.729	22344
856.862	22382
856.996	22382
857.13	22485
857.263	22462
857.397	22382
857.53	22344
857.664	22344
857.797	22356
857.931	22402
858.064	22485
858.197	22432
858.331	22337
858.464	22276
858.597	22200
858.731	22276
858.864	22303
858.997	22310
859.13	22394
859.263	22261
859.396	22344
859.529	22291
859.662	22261
859.795	22265
859.928	22306
860.061	22531
860.194	22550
860.327	22382
860.46	22443
860.592	22470
860.725	22390
860.858	22371
860.99	22226
861.123	22284
861.256	22238
861.388	22318
861.521	23079
861.653	22116
861.786	22070
861.918	22150
862.05	22348
862.183	22287
862.315	22204
862.447	22265
862.58	22181
862.712	22021
862.844	21960
862.976	22036
863.108	22158
863.24	22367
863.372	22055
863.504	22109
863.636	22021
863.768	22143
863.9	22090
864.032	21964
864.164	21956
864.296	22109
864.428	22177
864.559	22143
864.691	21994
864.823	22181
864.954	21979
865.086	21907
865.217	21918
865.349	21865
865.48	21911
865.612	21953
865.743	22078
865.875	21987
866.006	21869
866.137	21964
866.269	21994
866.4	21968
866.531	21949
866.662	21785
866.793	21876
866.924	21747
867.055	21869
867.186	21736
867.317	21804
867.448	21819
867.579	21838
867.71	21736
867.841	21774
867.972	21770
868.103	21892
868.233	21922
868.364	21854
868.495	21720
868.625	22181
868.756	22124
868.886	21987
869.017	22090
869.147	22109
869.278	22112
869.408	22246
869.539	22139
869.669	22070
869.799	22238
869.929	22246
870.06	22196
870.19	22379
870.32	22261
870.45	22337
870.58	22432
870.71	22535
870.84	22599
870.97	22459
871.1	22504
871.23	22679
871.36	22691
871.489	22599
871.619	22683
871.749	22603
871.879	22672
872.008	22763
872.138	22713
872.267	22645
872.397	22565
872.526	22500
872.656	22542
872.785	22508
872.915	22664
873.044	22812
873.173	22683
873.303	22733
873.432	22698
873.561	22847
873.69	22729
873.819	22546
873.948	22809
874.077	22736
874.206	22668
874.335	22717
874.464	22896
874.593	22911
874.722	22942
874.851	23044
874.979	22904
875.108	22824
875.237	22805
875.365	22736
875.494	22843
875.623	22911
875.751	22881
875.88	22793
876.008	23060
876.136	23246
876.265	23280
876.393	23433
876.521	23425
876.65	23387
876.778	23265
876.906	23208
877.034	23265
877.162	23147
877.29	23166
877.418	23166
877.546	23231
877.674	23322
877.802	23193
877.93	23067
878.058	23178
878.185	23227
878.313	23220
878.441	23166
878.568	23029
878.696	23265
878.824	23220
878.951	23360
879.079	23421
879.206	23596
879.333	23433
879.461	23231
879.588	23326
879.715	23379
879.842	23402
879.97	23356
880.097	23037
880.224	23048
880.351	23025
880.478	23071
880.605	22953
880.732	22987
880.859	23185
880.986	23044
881.112	22984
881.239	22942
881.366	22847
881.493	22771
881.619	22736
881.746	22626
881.872	22649
881.999	22618
882.125	22618
882.252	22580
882.378	22508
882.505	22797
882.631	22569
882.757	22268
882.883	22394
883.01	22352
883.136	22143
883.262	22162
883.388	22074
883.514	22352
883.64	22166
883.766	22318
883.892	22105
884.018	22093
884.143	22390
884.269	22306
884.395	22154
884.52	21979
884.646	21918
884.772	21994
884.897	21747
885.023	21949
885.148	21991
885.274	22147
885.399	22002
885.524	21964
885.65	21987
885.775	21953
885.9	21975
886.025	21953
886.15	22021
886.275	21998
886.4	21720
886.525	21907
886.65	21842
886.775	21770
886.9	22021
887.025	22082
887.149	22010
887.274	21827
887.399	21728
887.523	21717
887.648	21618
887.773	21618
887.897	21793
888.021	21808
888.146	21599
888.27	21720
888.395	21812
888.519	21671
888.643	21781
888.767	21739
888.891	21671
889.015	21450
889.139	21583
889.263	21481
889.387	21496
889.511	21785
889.635	21629
889.759	21477
889.883	21454
890.006	21500
890.13	21500
890.254	21416
890.377	21416
890.501	21260
890.624	21173
890.748	21268
890.871	21104
890.995	20994
891.118	20925
891.241	20994
891.364	21039
891.488	21154
891.611	21024
891.734	21077
891.857	21009
891.98	20960
892.103	21096
892.226	21077
892.349	21085
892.471	20796
892.594	21039
892.717	20944
892.839	20902
892.962	20937
893.085	20906
893.207	20941
893.33	20887
893.452	20872
893.575	20960
893.697	20868
893.819	21142
893.941	21112
894.064	21138
894.186	20899
894.308	20861
894.43	20967
894.552	21077
894.674	21093
894.796	20807
894.918	20895
895.04	20804
895.161	21005
895.283	21077
895.405	20861
895.526	20944
895.648	20933
895.769	20918
895.891	20872
896.012	20929
896.134	20975
896.255	21028
896.376	20998
896.498	20941
896.619	20925
896.74	20998
896.861	21032
896.982	21252
897.103	21374
897.224	21279
897.345	21074
897.466	21058
897.587	21043
897.708	21207
897.828	21131
897.949	21058
898.07	20906
898.19	21051
898.311	21138
898.431	21173
898.552	21070
898.672	21218
898.792	21176
898.913	21058
899.033	20998
899.153	20876
899.273	20777
899.393	20868
899.513	20739
899.633	20811
899.753	20769
899.873	20777
899.993	20899
900.113	20758
900.232	20804
900.352	20765
900.472	20697
900.591	20644
900.711	20648
900.83	20575
900.95	20697
901.069	20549
901.189	20530
901.308	20252
901.427	20157
901.546	20153
901.665	20119
901.784	20122
901.904	19974
902.023	19951
902.141	19776
902.26	19727
902.379	19822
902.498	19715
902.617	19674
902.735	19685
902.854	19658
902.973	19685
903.091	19457
903.21	19293
903.328	19403
903.446	19335
903.565	19209
903.683	19114
903.801	19160
903.919	19080
904.038	19103
904.156	18871
904.274	18939
904.392	18901
904.51	18962
904.627	18954
904.745	18962
904.863	18935
904.981	18677
905.098	18540
905.216	18692
905.334	18585
905.451	18604
905.569	18517
905.686	18635
905.803	18570
905.921	18414
906.038	18441
906.155	18452
906.272	18243
906.389	18182
906.506	18053
906.623	18205
906.74	18140
906.857	18045
906.974	18015
907.091	18194
907.208	18296
907.324	18148
907.441	18003
907.557	17828
907.674	17821
907.79	17805
907.907	17771
908.023	17836
908.139	17904
908.256	17748
908.372	17661
908.488	17680
908.604	17539
908.72	17630
908.836	17592
908.952	17551
909.068	17615
909.184	17699
909.3	17455
909.415	17471
909.531	17562
909.647	17258
909.762	17269
909.878	17174
909.993	17239
910.108	17341
910.224	17159
910.339	17284
910.454	17048
910.57	17041
910.685	16869
910.8	17239
910.915	17151
911.03	17037
911.145	16953
911.259	16748
911.374	16790
911.489	16725
911.604	16641
911.718	16558
911.833	16599
911.947	16527
912.062	16405
912.176	16630
912.291	16637
912.405	16538
912.519	16755
912.633	16809
912.748	16565
912.862	16508
912.976	16455
913.09	16276
913.204	16375
913.318	16356
913.431	16485
913.545	16314
913.659	16428
913.772	16348
913.886	16253
914	16192
914.113	16162
914.226	16246
914.34	16074
914.453	16051
914.566	16287
914.68	16013
914.793	15987
914.906	15831
915.019	15694
915.132	15751
915.245	15808
915.358	15789
915.47	15667
915.583	15648
915.696	15705
915.809	15911
915.921	15907
916.034	15759
916.146	15663
916.259	15584
916.371	15709
916.483	15625
916.595	15564
916.708	15542
916.82	15481
916.932	15584
917.044	15561
917.156	15431
917.268	15302
917.38	15386
917.491	15412
917.603	15355
917.715	15488
917.826	15431
917.938	15428
918.049	15214
918.161	15252
918.272	15492
918.384	15389
918.495	15321
918.606	15074
918.717	15043
918.828	15146
918.939	15051
919.05	15024
919.161	15070
919.272	14823
919.383	14979
919.494	15047
919.604	15249
919.715	15070
919.826	14918
919.936	14967
920.047	15169
920.157	15028
920.267	15169
920.378	15093
920.488	14986
920.598	15165
920.708	15355
920.818	15245
920.928	15146
921.038	15344
921.148	15332
921.258	14956
921.368	14921
921.477	14876
921.587	14788
921.697	14765
921.806	14697
921.916	14617
922.025	14507
922.134	14400
922.244	14339
922.353	14457
922.462	14320
922.571	14225
922.68	14172
922.789	14096
922.898	14111
923.007	13986
923.116	14092
923.224	14062
923.333	13989
923.442	13967
923.55	13906
923.659	13906
923.767	14020
923.876	13868
923.984	13849
924.092	13772
924.201	13818
924.309	13833
924.417	13818
924.525	13693
924.633	13765
924.741	14705
924.849	13491
924.956	13567
925.064	13388
925.172	13392
925.279	13445
925.387	13415
925.494	13441
925.602	13613
925.709	13552
925.816	13293
925.924	13358
926.031	13438
926.138	13407
926.245	13384
926.352	13160
926.459	13411
926.566	13434
926.673	13362
926.779	13217
926.886	13133
926.993	13122
927.099	13053
927.206	12886
927.312	12993
927.419	13019
927.525	12962
927.631	13000
927.737	12856
927.843	12745
927.95	12867
928.056	12833
928.162	12787
928.267	12856
928.373	13343
928.479	12806
928.585	12658
928.69	12734
928.796	12875
928.901	12631
929.007	12536
929.112	12665
929.218	12620
929.323	12483
929.428	12570
929.533	12692
929.638	12445
929.743	12540
929.848	12601
929.953	12441
930.058	12380
930.163	12167
930.267	12323
930.372	12403
930.477	12232
930.581	12342
930.685	12155
930.79	12098
930.894	12117
930.998	12091
931.103	12224
931.207	11794
931.311	11748
931.415	11672
931.519	11463
931.623	11364
