Data from test_V78500241_2841.txt Node
Date: Fri Mar 25 16:01:28 CST 2022
User: usil
Spectrometer: V785-0024
Trigger mode: 0
Integration Time (sec): 4.000000E-1
Scans to average: 1
Nonlinearity correction enabled: false
Boxcar width: 0
Storing dark spectrum: false
XAxis mode: Wavelengths
Number of Pixels in Spectrum: 1024
>>>>>Begin Spectral Data<<<<<
801.071	29364
801.214	29090
801.356	28968
801.499	28854
801.641	28862
801.783	28752
801.926	28717
802.068	28843
802.211	28717
802.353	28675
802.496	28542
802.638	28577
802.78	28474
802.923	28421
803.065	28360
803.208	28360
803.35	28500
803.492	28710
803.635	28706
803.777	28573
803.919	28740
804.061	29037
804.204	28850
804.346	28748
804.488	28713
804.63	28664
804.773	28717
804.915	28793
805.057	28896
805.199	28816
805.341	28953
805.483	28850
805.626	28843
805.768	28904
805.91	28934
806.052	28824
806.194	28835
806.336	29010
806.478	28995
806.62	28942
806.762	29071
806.904	29284
807.046	29436
807.188	29349
807.33	29429
807.472	29410
807.614	29368
807.756	29433
807.898	29208
808.04	29128
808.182	29242
808.324	29254
808.465	29315
808.607	29535
808.749	29676
808.891	29630
809.033	29832
809.174	29832
809.316	29813
809.458	29638
809.6	29520
809.741	29649
809.883	29878
810.025	29764
810.166	29984
810.308	29920
810.45	29980
810.591	29843
810.733	29714
810.875	29779
811.016	29535
811.158	29512
811.299	29855
811.441	29843
811.582	29745
811.724	29699
811.865	29687
812.007	29638
812.148	29611
812.29	29760
812.431	30057
812.573	30011
812.714	30110
812.855	30232
812.997	30235
813.138	30540
813.279	30429
813.421	30270
813.562	30327
813.703	30144
813.845	29824
813.986	29630
814.127	29562
814.268	29653
814.41	29410
814.551	29493
814.692	29520
814.833	29414
814.974	29379
815.115	29486
815.256	29277
815.397	29258
815.539	29246
815.68	29296
815.821	29117
815.962	29223
816.103	29235
816.244	29128
816.385	29048
816.526	28987
816.666	28797
816.807	28797
816.948	28908
817.089	28831
817.23	28805
817.371	28771
817.512	28748
817.653	28725
817.793	28729
817.934	28706
818.075	28771
818.216	28790
818.356	28622
818.497	28504
818.638	28519
818.778	28538
818.919	28538
819.06	28428
819.2	28679
819.341	28820
819.481	28706
819.622	29052
819.762	29075
819.903	29048
820.043	29010
820.184	28915
820.324	28934
820.465	28961
820.605	28888
820.746	28801
820.886	28668
821.026	28828
821.167	28850
821.307	28911
821.447	28763
821.588	28641
821.728	28500
821.868	28356
822.008	28265
822.149	28181
822.289	28337
822.429	27960
822.569	27994
822.709	27827
822.849	27679
822.99	27762
823.13	27759
823.27	27667
823.41	27564
823.55	27466
823.69	27561
823.83	27473
823.97	27431
824.11	27378
824.25	27355
824.389	27397
824.529	27473
824.669	27367
824.809	27507
824.949	27389
825.089	27447
825.228	27454
825.368	27256
825.508	27165
825.648	27336
825.787	27310
825.927	27264
826.067	27340
826.206	27294
826.346	27329
826.485	27306
826.625	27256
826.765	27310
826.904	27291
827.044	27169
827.183	27093
827.323	26861
827.462	27043
827.601	27093
827.741	27024
827.88	27047
828.02	26979
828.159	26902
828.298	26891
828.437	27055
828.577	26960
828.716	26975
828.855	26788
828.994	26678
829.134	26743
829.273	26632
829.412	26735
829.551	26606
829.69	26731
829.829	26602
829.968	26754
830.107	26697
830.246	26686
830.385	26594
830.524	26663
830.663	26537
830.802	26355
830.941	26294
831.08	26244
831.219	26336
831.357	26339
831.496	26423
831.635	26278
831.774	26164
831.913	26138
832.051	26092
832.19	26130
832.329	26069
832.467	25913
832.606	25875
832.744	25845
832.883	25989
833.022	25887
833.16	25963
833.299	25909
833.437	26111
833.576	25947
833.714	26043
833.852	26054
833.991	25989
834.129	26046
834.267	26062
834.406	26058
834.544	26062
834.682	26024
834.821	26012
834.959	26122
835.097	26001
835.235	26027
835.373	26100
835.511	25974
835.65	25856
835.788	25833
835.926	25708
836.064	25601
836.202	25670
836.34	25883
836.478	25940
836.615	25864
836.753	25852
836.891	25871
837.029	25830
837.167	25811
837.305	25750
837.443	25613
837.58	25658
837.718	25902
837.856	25666
837.993	25666
838.131	25696
838.269	25556
838.406	25605
838.544	25453
838.681	25297
838.819	25255
838.956	25129
839.094	25076
839.231	25168
839.369	25240
839.506	25544
839.643	25377
839.781	25175
839.918	25088
840.055	25129
840.193	25065
840.33	24897
840.467	24966
840.604	25023
840.742	25266
840.879	24920
841.016	24783
841.153	24909
841.29	25076
841.427	24890
841.564	25069
841.701	24890
841.838	24939
841.975	24932
842.112	24856
842.249	24932
842.385	24719
842.522	25095
842.659	24890
842.796	24711
842.933	24760
843.069	24741
843.206	24734
843.343	24730
843.479	24772
843.616	24760
843.752	24574
843.889	24700
844.025	24654
844.162	24521
844.298	24566
844.435	24460
844.571	24585
844.708	24479
844.844	24639
844.98	24715
845.117	24669
845.253	24525
845.389	24399
845.525	24498
845.661	24445
845.798	24254
845.934	24277
846.07	24289
846.206	24380
846.342	24418
846.478	24277
846.614	23950
846.75	23885
846.886	24049
847.022	24095
847.158	23935
847.294	24007
847.429	23992
847.565	23901
847.701	24015
847.837	23589
847.972	23646
848.108	23878
848.244	23843
848.379	23486
848.515	23531
848.65	23505
848.786	23528
848.921	23558
849.057	23642
849.192	23646
849.328	23573
849.463	23516
849.598	23539
849.734	23433
849.869	23239
850.004	23258
850.14	23334
850.275	23417
850.41	23246
850.545	23315
850.68	23273
850.815	23372
850.95	23242
851.085	23459
851.22	23379
851.355	23455
851.49	23341
851.625	23242
851.76	23307
851.895	23292
852.03	23265
852.165	23242
852.299	23212
852.434	23501
852.569	23417
852.703	23383
852.838	23231
852.973	23376
853.107	23467
853.242	23292
853.376	23162
853.511	23052
853.645	23204
853.78	23216
853.914	23204
854.048	23086
854.183	23140
854.317	23113
854.451	23288
854.585	23185
854.72	23162
854.854	23242
854.988	23121
855.122	23166
855.256	23044
855.39	23155
855.524	23334
855.658	23117
855.792	23239
855.926	23235
856.06	23109
856.194	23162
856.327	23071
856.461	23140
856.595	23022
856.729	23155
856.862	23109
856.996	23151
857.13	23220
857.263	23269
857.397	23239
857.53	23151
857.664	23200
857.797	23181
857.931	23220
858.064	23239
858.197	23242
858.331	23193
858.464	23044
858.597	23155
858.731	23132
858.864	23041
858.997	23102
859.13	23025
859.263	23170
859.396	23193
859.529	23060
859.662	23117
859.795	23117
859.928	23223
860.061	23334
860.194	23337
860.327	23311
860.46	23269
860.592	23200
860.725	23334
860.858	23330
860.99	23185
861.123	23136
861.256	23296
861.388	23147
861.521	23859
861.653	22972
861.786	22980
861.918	22946
862.05	22911
862.183	23052
862.315	23109
862.447	23132
862.58	23105
862.712	22862
862.844	22854
862.976	23048
863.108	22923
863.24	23147
863.372	22786
863.504	22873
863.636	22869
863.768	22801
863.9	22896
864.032	22801
864.164	22790
864.296	23037
864.428	22896
864.559	22927
864.691	22915
864.823	22698
864.954	22850
865.086	22748
865.217	22683
865.349	22596
865.48	22736
865.612	22816
865.743	22668
865.875	22805
866.006	22675
866.137	22740
866.269	22733
866.4	22687
866.531	22721
866.662	22687
866.793	22687
866.924	22668
867.055	22691
867.186	22554
867.317	22592
867.448	22626
867.579	22656
867.71	22481
867.841	22569
867.972	22584
868.103	22611
868.233	22687
868.364	22618
868.495	22782
868.625	22850
868.756	22938
868.886	22744
869.017	22938
869.147	23041
869.278	22915
869.408	22976
869.539	22831
869.669	22824
869.799	22889
869.929	22991
870.06	23018
870.19	23094
870.32	23151
870.45	23318
870.58	23204
870.71	23330
870.84	23376
870.97	23345
871.1	23303
871.23	23391
871.36	23520
871.489	23467
871.619	23497
871.749	23547
871.879	23520
872.008	23554
872.138	23425
872.267	23433
872.397	23189
872.526	23337
872.656	23296
872.785	23235
872.915	23592
873.044	23566
873.173	23459
873.303	23535
873.432	23665
873.561	23520
873.69	23619
873.819	23547
873.948	23604
874.077	23531
874.206	23467
874.335	23471
874.464	23547
874.593	23691
874.722	23661
874.851	23684
874.979	23771
875.108	23855
875.237	23741
875.365	23379
875.494	23733
875.623	23695
875.751	23714
875.88	23729
876.008	23657
876.136	23859
876.265	24121
876.393	24140
876.521	24102
876.65	24148
876.778	24148
876.906	24003
877.034	23946
877.162	24087
877.29	23961
877.418	24057
877.546	24091
877.674	24018
877.802	24133
877.93	23977
878.058	24121
878.185	23965
878.313	23969
878.441	23931
878.568	23847
878.696	24007
878.824	24026
878.951	24011
879.079	24342
879.206	24410
879.333	24319
879.461	23992
879.588	24136
879.715	24247
879.842	24334
879.97	24258
880.097	23980
880.224	23866
880.351	23958
880.478	23809
880.605	23783
880.732	23893
880.859	24102
880.986	23824
881.112	23931
881.239	23813
881.366	23455
881.493	23478
881.619	23395
881.746	23585
881.872	23436
881.999	23349
882.125	23326
882.252	23417
882.378	23330
882.505	23387
882.631	23181
882.757	23151
882.883	23200
883.01	23025
883.136	22923
883.262	22999
883.388	22854
883.514	23079
883.64	23105
883.766	23003
883.892	22866
884.018	22812
884.143	22972
884.269	23033
884.395	22824
884.52	22668
884.646	22691
884.772	22706
884.897	22618
885.023	22615
885.148	22797
885.274	22778
885.399	22805
885.524	22630
885.65	22854
885.775	22752
885.9	22615
886.025	22729
886.15	22649
886.275	22615
886.4	22615
886.525	22653
886.65	22519
886.775	22573
886.9	22698
887.025	22816
887.149	22626
887.274	22577
887.399	22462
887.523	22436
887.648	22447
887.773	22219
887.897	22478
888.021	22478
888.146	22424
888.27	22508
888.395	22569
888.519	22603
888.643	22554
888.767	22554
888.891	22356
889.015	22082
889.139	22322
889.263	22211
889.387	22272
889.511	22432
889.635	22287
889.759	22280
889.883	22219
890.006	22322
890.13	22219
890.254	22124
890.377	22097
890.501	22013
890.624	21888
890.748	21968
890.871	21869
890.995	21823
891.118	21785
891.241	21816
891.364	21838
891.488	21918
891.611	21686
891.734	21743
891.857	21850
891.98	21751
892.103	21747
892.226	21736
892.349	21770
892.471	21591
892.594	21686
892.717	21720
892.839	21694
892.962	21633
893.085	21622
893.207	21553
893.33	21606
893.452	21629
893.575	21736
893.697	21576
893.819	21747
893.941	21816
894.064	21785
894.186	21637
894.308	21599
894.43	21743
894.552	21831
894.674	21694
894.796	21393
894.918	21625
895.04	21542
895.161	21770
895.283	21633
895.405	21519
895.526	21526
895.648	21603
895.769	21698
895.891	21686
896.012	21618
896.134	21671
896.255	21614
896.376	21549
896.498	21572
896.619	21675
896.74	21545
896.861	21606
896.982	21941
897.103	22078
897.224	21854
897.345	21835
897.466	21827
897.587	21842
897.708	21934
897.828	21823
897.949	21766
898.07	21587
898.19	21705
898.311	21759
898.431	21800
898.552	21812
898.672	21880
898.792	21918
898.913	21800
899.033	21656
899.153	21523
899.273	21538
899.393	21488
899.513	21587
899.633	21439
899.753	21504
899.873	21511
899.993	21542
900.113	21424
900.232	21450
900.352	21348
900.472	21401
900.591	21173
900.711	21279
900.83	21138
900.95	21291
901.069	21336
901.189	21157
901.308	20960
901.427	20819
901.546	20918
901.665	20792
901.784	20918
901.904	20724
902.023	20670
902.141	20503
902.26	20431
902.379	20404
902.498	20339
902.617	20298
902.735	20317
902.854	20244
902.973	20309
903.091	20126
903.21	20088
903.328	20058
903.446	19978
903.565	19830
903.683	19696
903.801	19670
903.919	19685
904.038	19715
904.156	19563
904.274	19613
904.392	19624
904.51	19559
904.627	19464
904.745	19559
904.863	19506
904.981	19324
905.098	19259
905.216	19228
905.334	19217
905.451	19171
905.569	19259
905.686	19190
905.803	19057
905.921	19080
906.038	19099
906.155	18939
906.272	18848
906.389	18966
906.506	18677
906.623	18692
906.74	18707
906.857	18578
906.974	18555
907.091	18722
907.208	18901
907.324	18760
907.441	18639
907.557	18391
907.674	18350
907.79	18380
907.907	18399
908.023	18471
908.139	18437
908.256	18350
908.372	18323
908.488	18346
908.604	18243
908.72	18220
908.836	18155
908.952	18102
909.068	18133
909.184	18296
909.3	18030
909.415	18129
909.531	18117
909.647	17980
909.762	17893
909.878	17847
909.993	17843
910.108	17950
910.224	17752
910.339	17790
910.454	17665
910.57	17615
910.685	17543
910.8	17870
910.915	17843
911.03	17532
911.145	17474
911.259	17356
911.374	17482
911.489	17383
911.604	17288
911.718	17113
911.833	17159
911.947	17048
912.062	16968
912.176	17174
912.291	17162
912.405	17075
912.519	17254
912.633	17178
912.748	17109
912.862	17037
912.976	16968
913.09	16934
913.204	16866
913.318	16961
913.431	17010
913.545	17079
913.659	17075
913.772	16877
913.886	16694
914	16710
914.113	16923
914.226	16900
914.34	16953
914.453	16497
914.566	16725
914.68	16588
914.793	16546
914.906	16329
915.019	16272
915.132	16215
915.245	16299
915.358	16344
915.47	16268
915.583	16219
915.696	16322
915.809	16386
915.921	16382
916.034	16204
916.146	16230
916.259	16211
916.371	16268
916.483	16177
916.595	16097
916.708	16173
916.82	16101
916.932	15953
917.044	15987
917.156	15983
917.268	15941
917.38	16032
917.491	15941
917.603	15903
917.715	16032
917.826	16051
917.938	15789
918.049	15774
918.161	15781
918.272	15907
918.384	15850
918.495	15869
918.606	15622
918.717	15671
918.828	15728
918.939	15675
919.05	15549
919.161	15572
919.272	15488
919.383	15408
919.494	15614
919.604	15747
919.715	15652
919.826	15591
919.936	15496
920.047	15648
920.157	15618
920.267	15671
920.378	15557
920.488	15549
920.598	15770
920.708	15953
920.818	15660
920.928	15705
921.038	15869
921.148	15713
921.258	15477
921.368	15401
921.477	15351
921.587	15165
921.697	15138
921.806	15302
921.916	15180
922.025	14998
922.134	14979
922.244	14887
922.353	14914
922.462	14842
922.571	14682
922.68	14613
922.789	14621
922.898	14629
923.007	14549
923.116	14556
923.224	14587
923.333	14564
923.442	14431
923.55	14434
923.659	14427
923.767	14377
923.876	14336
923.984	14396
924.092	14237
924.201	14237
924.309	14267
924.417	14389
924.525	14275
924.633	14282
924.741	15024
924.849	14077
924.956	14092
925.064	13940
925.172	13879
925.279	13944
925.387	13932
925.494	13913
925.602	13997
925.709	13925
925.816	13746
925.924	13860
926.031	13928
926.138	13875
926.245	13837
926.352	13620
926.459	13849
926.566	13894
926.673	13894
926.779	13571
926.886	13499
926.993	13487
927.099	13502
927.206	13369
927.312	13365
927.419	13457
927.525	13400
927.631	13407
927.737	13343
927.843	13160
927.95	13179
928.056	13278
928.162	13274
928.267	13274
928.373	13906
928.479	13304
928.585	13149
928.69	13168
928.796	13297
928.901	13122
929.007	12985
929.112	13095
929.218	13095
929.323	13034
929.428	12962
929.533	13038
929.638	12871
929.743	12863
929.848	12920
929.953	12916
930.058	12852
930.163	12620
930.267	12620
930.372	12741
930.477	12509
930.581	12798
930.685	12589
930.79	12551
930.894	12479
930.998	12342
931.103	12646
931.207	12239
931.311	12144
931.415	12148
931.519	11893
931.623	11824
