Data from test_V78500241_2955.txt Node
Date: Fri Mar 25 16:02:16 CST 2022
User: usil
Spectrometer: V785-0024
Trigger mode: 0
Integration Time (sec): 4.000000E-1
Scans to average: 1
Nonlinearity correction enabled: false
Boxcar width: 0
Storing dark spectrum: false
XAxis mode: Wavelengths
Number of Pixels in Spectrum: 1024
>>>>>Begin Spectral Data<<<<<
801.071	28710
801.214	28748
801.356	28535
801.499	28485
801.641	28466
801.783	28409
801.926	28405
802.068	28382
802.211	28337
802.353	28192
802.496	28211
802.638	28048
802.78	28040
802.923	28013
803.065	28070
803.208	27907
803.35	28188
803.492	28154
803.635	28230
803.777	28226
803.919	28360
804.061	28641
804.204	28394
804.346	28314
804.488	28211
804.63	28405
804.773	28280
804.915	28379
805.057	28470
805.199	28249
805.341	28398
805.483	28656
805.626	28546
805.768	28287
805.91	28409
806.052	28569
806.194	28516
806.336	28641
806.478	28462
806.62	28474
806.762	28645
806.904	28664
807.046	28930
807.188	28748
807.33	28953
807.472	29064
807.614	28980
807.756	28900
807.898	28675
808.04	28577
808.182	28793
808.324	28755
808.465	28953
808.607	29025
808.749	29216
808.891	29242
809.033	29349
809.174	29258
809.316	29204
809.458	29231
809.6	29204
809.741	29318
809.883	29425
810.025	29372
810.166	29512
810.308	29387
810.45	29558
810.591	29421
810.733	29197
810.875	29231
811.016	29181
811.158	28938
811.299	29159
811.441	29258
811.582	29368
811.724	29216
811.865	29181
812.007	29147
812.148	29140
812.29	29246
812.431	29360
812.573	29501
812.714	29589
812.855	29634
812.997	29619
813.138	29790
813.279	29847
813.421	29714
813.562	29718
813.703	29539
813.845	29452
813.986	29193
814.127	28976
814.268	28908
814.41	28934
814.551	28820
814.692	28972
814.833	28850
814.974	28877
815.115	28972
815.256	28831
815.397	28835
815.539	28721
815.68	28710
815.821	28630
815.962	28683
816.103	28637
816.244	28596
816.385	28611
816.526	28531
816.666	28310
816.807	28196
816.948	28421
817.089	28329
817.23	28299
817.371	28211
817.512	28147
817.653	27983
817.793	28215
817.934	28154
818.075	28177
818.216	28207
818.356	28150
818.497	28139
818.638	27994
818.778	27968
818.919	28143
819.06	27949
819.2	28097
819.341	28215
819.481	28207
819.622	28360
819.762	28535
819.903	28394
820.043	28470
820.184	28249
820.324	28322
820.465	28424
820.605	28322
820.746	28409
820.886	28223
821.026	28398
821.167	28280
821.307	28322
821.447	28329
821.588	28173
821.728	27991
821.868	27857
822.008	27781
822.149	27804
822.289	27743
822.429	27466
822.569	27439
822.709	27325
822.849	27272
822.99	27260
823.13	27157
823.27	27146
823.41	26899
823.55	27066
823.69	27085
823.83	27013
823.97	27028
824.11	26868
824.25	26861
824.389	26712
824.529	27116
824.669	26887
824.809	26933
824.949	27020
825.089	26956
825.228	26937
825.368	26682
825.508	26640
825.648	26804
825.787	26724
825.927	26777
826.067	26640
826.206	26693
826.346	26746
826.485	26868
826.625	26842
826.765	26880
826.904	26648
827.044	26514
827.183	26678
827.323	26499
827.462	26377
827.601	26355
827.741	26457
827.88	26473
828.02	26389
828.159	26389
828.298	26473
828.437	26571
828.577	26442
828.716	26629
828.855	26336
828.994	26199
829.134	26221
829.273	26256
829.412	26111
829.551	26088
829.69	26256
829.829	26309
829.968	26172
830.107	26180
830.246	26172
830.385	25947
830.524	26016
830.663	25963
830.802	25803
830.941	25826
831.08	25624
831.219	25746
831.357	25776
831.496	26058
831.635	25750
831.774	25643
831.913	25651
832.051	25575
832.19	25571
832.329	25556
832.467	25449
832.606	25346
832.744	25369
832.883	25514
833.022	25426
833.16	25422
833.299	25556
833.437	25476
833.576	25510
833.714	25518
833.852	25548
833.991	25518
834.129	25723
834.267	25655
834.406	25483
834.544	25518
834.682	25392
834.821	25426
834.959	25757
835.097	25499
835.235	25582
835.373	25460
835.511	25571
835.65	25373
835.788	25350
835.926	25175
836.064	25099
836.202	25225
836.34	25369
836.478	25316
836.615	25209
836.753	25362
836.891	25419
837.029	25369
837.167	25270
837.305	25266
837.443	25126
837.58	25122
837.718	25244
837.856	25187
837.993	25084
838.131	25141
838.269	25069
838.406	24989
838.544	24958
838.681	24764
838.819	24692
838.956	24703
839.094	24498
839.231	24665
839.369	24825
839.506	25107
839.643	24768
839.781	24669
839.918	24467
840.055	24696
840.193	24467
840.33	24544
840.467	24513
840.604	24505
840.742	24768
840.879	24399
841.016	24376
841.153	24414
841.29	24578
841.427	24437
841.564	24646
841.701	24555
841.838	24350
841.975	24486
842.112	24388
842.249	24235
842.385	24125
842.522	24646
842.659	24350
842.796	24323
842.933	24277
843.069	24201
843.206	24376
843.343	24117
843.479	24270
843.616	24232
843.752	24076
843.889	24106
844.025	24182
844.162	24007
844.298	24053
844.435	24091
844.571	24003
844.708	23980
844.844	24133
844.98	24194
845.117	24121
845.253	23977
845.389	23904
845.525	23935
845.661	23840
845.798	23851
845.934	23817
846.07	23707
846.206	23695
846.342	23878
846.478	23695
846.614	23661
846.75	23315
846.886	23554
847.022	23520
847.158	23524
847.294	23577
847.429	23516
847.565	23425
847.701	23733
847.837	23166
847.972	23185
848.108	23292
848.244	23284
848.379	23159
848.515	23117
848.65	22976
848.786	23128
848.921	23143
849.057	23102
849.192	23185
849.328	23098
849.463	23147
849.598	23006
849.734	22999
849.869	22953
850.004	22843
850.14	22866
850.275	22809
850.41	22721
850.545	22767
850.68	22793
850.815	22831
850.95	22984
851.085	22938
851.22	23006
851.355	22885
851.49	22824
851.625	22850
851.76	22816
851.895	22778
852.03	22736
852.165	22885
852.299	22938
852.434	22892
852.569	22816
852.703	22908
852.838	22816
852.973	22915
853.107	22927
853.242	22847
853.376	22763
853.511	22618
853.645	22504
853.78	22721
853.914	22683
854.048	22561
854.183	22706
854.317	22687
854.451	22862
854.585	22645
854.72	22717
854.854	22801
854.988	22710
855.122	22725
855.256	22554
855.39	22580
855.524	22702
855.658	22649
855.792	22721
855.926	22759
856.06	22702
856.194	22729
856.327	22611
856.461	22611
856.595	22523
856.729	22679
856.862	22873
856.996	22668
857.13	22660
857.263	22801
857.397	22809
857.53	22596
857.664	22679
857.797	22710
857.931	22664
858.064	22580
858.197	22774
858.331	22748
858.464	22531
858.597	22508
858.731	22694
858.864	22736
858.997	22607
859.13	22660
859.263	22615
859.396	22835
859.529	22599
859.662	22557
859.795	22538
859.928	22786
860.061	22816
860.194	22915
860.327	22786
860.46	22672
860.592	22729
860.725	22809
860.858	22812
860.99	22675
861.123	22721
861.256	22580
861.388	22767
861.521	23406
861.653	22462
861.786	22493
861.918	22478
862.05	22421
862.183	22546
862.315	22561
862.447	22717
862.58	22565
862.712	22242
862.844	22257
862.976	22447
863.108	22436
863.24	22835
863.372	22303
863.504	22363
863.636	22402
863.768	22356
863.9	22394
864.032	22402
864.164	22348
864.296	22341
864.428	22474
864.559	22440
864.691	22538
864.823	22390
864.954	22299
865.086	22421
865.217	22265
865.349	22265
865.48	22173
865.612	22363
865.743	22363
865.875	22402
866.006	22139
866.137	22150
866.269	22116
866.4	22306
866.531	22097
866.662	22188
866.793	22162
866.924	22181
867.055	22272
867.186	22242
867.317	22162
867.448	22109
867.579	22181
867.71	22082
867.841	22086
867.972	22135
868.103	22230
868.233	22135
868.364	22116
868.495	22238
868.625	22284
868.756	22462
868.886	22341
869.017	22314
869.147	22565
869.278	22580
869.408	22390
869.539	22386
869.669	22413
869.799	22462
869.929	22542
870.06	22577
870.19	22713
870.32	22736
870.45	22778
870.58	22793
870.71	22991
870.84	22866
870.97	22778
871.1	22786
871.23	22984
871.36	23048
871.489	22877
871.619	22991
871.749	23048
871.879	23048
872.008	23132
872.138	23029
872.267	23037
872.397	22873
872.526	22839
872.656	22858
872.785	22801
872.915	23170
873.044	23109
873.173	23048
873.303	23147
873.432	23090
873.561	23079
873.69	23132
873.819	23014
873.948	23140
874.077	23064
874.206	23140
874.335	23105
874.464	23151
874.593	23223
874.722	23246
874.851	23197
874.979	23220
875.108	23284
875.237	23189
875.365	23170
875.494	23208
875.623	23204
875.751	23147
875.88	23147
876.008	23398
876.136	23345
876.265	23623
876.393	23863
876.521	23653
876.65	23581
876.778	23646
876.906	23547
877.034	23600
877.162	23615
877.29	23535
877.418	23551
877.546	23570
877.674	23505
877.802	23649
877.93	23558
878.058	23570
878.185	23497
878.313	23516
878.441	23581
878.568	23364
878.696	23566
878.824	23577
878.951	23627
879.079	23680
879.206	23764
879.333	23771
879.461	23604
879.588	23729
879.715	23783
879.842	23813
879.97	23562
880.097	23410
880.224	23356
880.351	23414
880.478	23395
880.605	23360
880.732	23410
880.859	23570
880.986	23372
881.112	23433
881.239	23349
881.366	23102
881.493	23029
881.619	23064
881.746	23060
881.872	22946
881.999	23014
882.125	22889
882.252	23006
882.378	22942
882.505	22908
882.631	22782
882.757	22713
882.883	22801
883.01	22736
883.136	22626
883.262	22474
883.388	22516
883.514	22622
883.64	22618
883.766	22447
883.892	22333
884.018	22394
884.143	22554
884.269	22664
884.395	22329
884.52	22265
884.646	22379
884.772	22169
884.897	22070
885.023	22322
885.148	22341
885.274	22367
885.399	22352
885.524	22276
885.65	22223
885.775	22272
885.9	22219
886.025	22402
886.15	22291
886.275	22158
886.4	22169
886.525	22215
886.65	22207
886.775	22154
886.9	22413
887.025	22504
887.149	22257
887.274	22082
887.399	22006
887.523	21975
887.648	22006
887.773	21975
887.897	22093
888.021	21991
888.146	22036
888.27	22051
888.395	22059
888.519	22128
888.643	21899
888.767	22078
888.891	21854
889.015	21831
889.139	21903
889.263	21797
889.387	21979
889.511	22048
889.635	21975
889.759	21930
889.883	21747
890.006	21785
890.13	21941
890.254	21865
890.377	21755
890.501	21561
890.624	21534
890.748	21663
890.871	21542
890.995	21332
891.118	21302
891.241	21439
891.364	21252
891.488	21469
891.611	21405
891.734	21408
891.857	21469
891.98	21420
892.103	21370
892.226	21256
892.349	21230
892.471	21184
892.594	21199
892.717	21252
892.839	21207
892.962	21294
893.085	21287
893.207	21298
893.33	21142
893.452	21211
893.575	21260
893.697	21184
893.819	21389
893.941	21504
894.064	21389
894.186	21195
894.308	21138
894.43	21321
894.552	21336
894.674	21237
894.796	21085
894.918	21131
895.04	21287
895.161	21332
895.283	21230
895.405	21066
895.526	21222
895.648	21138
895.769	21332
895.891	21222
896.012	21359
896.134	21252
896.255	21268
896.376	21085
896.498	21188
896.619	21199
896.74	21100
896.861	21272
896.982	21538
897.103	21572
897.224	21393
897.345	21367
897.466	21313
897.587	21431
897.708	21504
897.828	21507
897.949	21397
898.07	21310
898.19	21450
898.311	21542
898.431	21382
898.552	21355
898.672	21519
898.792	21329
898.913	21473
899.033	21233
899.153	21157
899.273	21116
899.393	21173
899.513	21180
899.633	21104
899.753	21188
899.873	21142
899.993	21047
900.113	21173
900.232	21173
900.352	20921
900.472	20933
900.591	20891
900.711	20929
900.83	20864
900.95	20933
901.069	20975
901.189	20804
901.308	20530
901.427	20511
901.546	20412
901.665	20598
901.784	20518
901.904	20385
902.023	20244
902.141	20119
902.26	19997
902.379	20115
902.498	20088
902.617	19982
902.735	19963
902.854	19921
902.973	19982
903.091	19674
903.21	19666
903.328	19651
903.446	19582
903.565	19510
903.683	19430
903.801	19320
903.919	19499
904.038	19369
904.156	19148
904.274	19350
904.392	19114
904.51	19213
904.627	19232
904.745	19225
904.863	19293
904.981	18970
905.098	18848
905.216	18833
905.334	18909
905.451	18913
905.569	18894
905.686	18985
905.803	18837
905.921	18658
906.038	18703
906.155	18677
906.272	18547
906.389	18540
906.506	18388
906.623	18372
906.74	18388
906.857	18232
906.974	18315
907.091	18399
907.208	18486
907.324	18452
907.441	18296
907.557	18087
907.674	18136
907.79	18095
907.907	18057
908.023	18106
908.139	18144
908.256	17946
908.372	17912
908.488	17916
908.604	17954
908.72	17783
908.836	17794
908.952	17722
909.068	17840
909.184	17817
909.3	17710
909.415	17813
909.531	17707
909.647	17596
909.762	17516
909.878	17596
909.993	17520
910.108	17528
910.224	17478
910.339	17444
910.454	17284
910.57	17368
910.685	17315
910.8	17455
910.915	17410
911.03	17337
911.145	17128
911.259	17033
911.374	17052
911.489	16942
911.604	16972
911.718	16801
911.833	16774
911.947	16694
912.062	16637
912.176	16717
912.291	16858
912.405	16885
912.519	17022
912.633	17033
912.748	16854
912.862	16744
912.976	16675
913.09	16615
913.204	16402
913.318	16596
913.431	16740
913.545	16649
913.659	16740
913.772	16519
913.886	16398
914	16363
914.113	16451
914.226	16512
914.34	16462
914.453	16341
914.566	16470
914.68	16329
914.793	16238
914.906	16086
915.019	15937
915.132	15915
915.245	16006
915.358	16036
915.47	15907
915.583	16040
915.696	15953
915.809	16082
915.921	16006
916.034	15987
916.146	15835
916.259	15751
916.371	15903
916.483	15983
916.595	15907
916.708	15800
916.82	15804
916.932	15816
917.044	15717
917.156	15690
917.268	15591
917.38	15553
917.491	15496
917.603	15641
917.715	15690
917.826	15698
917.938	15511
918.049	15428
918.161	15519
918.272	15774
918.384	15599
918.495	15511
918.606	15408
918.717	15283
918.828	15370
918.939	15332
919.05	15226
919.161	15355
919.272	15112
919.383	15138
919.494	15431
919.604	15485
919.715	15367
919.826	15142
919.936	15252
920.047	15408
920.157	15321
920.267	15454
920.378	15355
920.488	15252
920.598	15530
920.708	15591
920.818	15397
920.928	15424
921.038	15443
921.148	15530
921.258	15169
921.368	15089
921.477	15089
921.587	15062
921.697	14891
921.806	15066
921.916	14944
922.025	14651
922.134	14598
922.244	14663
922.353	14731
922.462	14495
922.571	14442
922.68	14374
922.789	14233
922.898	14343
923.007	14309
923.116	14290
923.224	14252
923.333	14225
923.442	14142
923.55	14062
923.659	14172
923.767	14115
923.876	14069
923.984	14096
924.092	13898
924.201	14077
924.309	14008
924.417	14050
924.525	13921
924.633	13963
924.741	14686
924.849	13738
924.956	13791
925.064	13655
925.172	13712
925.279	13655
925.387	13731
925.494	13696
925.602	13746
925.709	13784
925.816	13529
925.924	13499
926.031	13613
926.138	13620
926.245	13548
926.352	13487
926.459	13594
926.566	13655
926.673	13453
926.779	13339
926.886	13278
926.993	13274
927.099	13236
927.206	13095
927.312	13198
927.419	13293
927.525	13129
927.631	13156
927.737	13103
927.843	13046
927.95	12920
928.056	13019
928.162	13042
928.267	13023
928.373	13662
928.479	13091
928.585	12844
928.69	12905
928.796	13034
928.901	12935
929.007	12745
929.112	12867
929.218	12798
929.323	12764
929.428	12665
929.533	12821
929.638	12608
929.743	12650
929.848	12627
929.953	12654
930.058	12593
930.163	12422
930.267	12338
930.372	12467
930.477	12380
930.581	12464
930.685	12483
930.79	12175
930.894	12311
930.998	12213
931.103	12304
931.207	12015
931.311	11901
931.415	11802
931.519	11672
931.623	11554
