Data from test_V78500241_2711.txt Node
Date: Fri Mar 25 16:00:34 CST 2022
User: usil
Spectrometer: V785-0024
Trigger mode: 0
Integration Time (sec): 4.000000E-1
Scans to average: 1
Nonlinearity correction enabled: false
Boxcar width: 0
Storing dark spectrum: false
XAxis mode: Wavelengths
Number of Pixels in Spectrum: 1024
>>>>>Begin Spectral Data<<<<<
801.071	28698
801.214	28615
801.356	28249
801.499	28219
801.641	28097
801.783	28147
801.926	28196
802.068	28181
802.211	28169
802.353	28086
802.496	27774
802.638	27797
802.78	27816
802.923	27682
803.065	27804
803.208	27686
803.35	27861
803.492	28150
803.635	28010
803.777	27953
803.919	28074
804.061	28356
804.204	28265
804.346	27857
804.488	27941
804.63	28025
804.773	27888
804.915	28059
805.057	28162
805.199	27983
805.341	28242
805.483	28295
805.626	28082
805.768	28139
805.91	28196
806.052	28261
806.194	28063
806.336	28291
806.478	28177
806.62	28276
806.762	28375
806.904	28580
807.046	28759
807.188	28649
807.33	28706
807.472	28656
807.614	28512
807.756	28516
807.898	28561
808.04	28474
808.182	28462
808.324	28523
808.465	28672
808.607	28801
808.749	28923
808.891	28946
809.033	29124
809.174	28946
809.316	28953
809.458	28885
809.6	28915
809.741	28904
809.883	28999
810.025	29250
810.166	29231
810.308	29216
810.45	29200
810.591	29124
810.733	28965
810.875	28877
811.016	28938
811.158	28812
811.299	29079
811.441	29033
811.582	29151
811.724	28778
811.865	28828
812.007	28877
812.148	29006
812.29	28972
812.431	28995
812.573	29170
812.714	29410
812.855	29440
812.997	29524
813.138	29718
813.279	29486
813.421	29471
813.562	29387
813.703	29277
813.845	29208
813.986	28839
814.127	28869
814.268	28588
814.41	28649
814.551	28382
814.692	28706
814.833	28500
814.974	28466
815.115	28573
815.256	28390
815.397	28493
815.539	28485
815.68	28363
815.821	28489
815.962	28382
816.103	28424
816.244	28322
816.385	28090
816.526	28169
816.666	28135
816.807	27876
816.948	28082
817.089	27918
817.23	28025
817.371	27846
817.512	27956
817.653	27895
817.793	28010
817.934	27884
818.075	27922
818.216	27953
818.356	27994
818.497	27728
818.638	27572
818.778	27736
818.919	27637
819.06	27781
819.2	27686
819.341	27949
819.481	27914
819.622	28044
819.762	28204
819.903	28246
820.043	28097
820.184	28147
820.324	28131
820.465	28207
820.605	28021
820.746	28044
820.886	27759
821.026	28055
821.167	28013
821.307	28200
821.447	27911
821.588	27869
821.728	27751
821.868	27610
822.008	27306
822.149	27427
822.289	27382
822.429	27211
822.569	27051
822.709	26971
822.849	26948
822.99	26982
823.13	26948
823.27	26807
823.41	26712
823.55	26655
823.69	26705
823.83	26754
823.97	26731
824.11	26453
824.25	26446
824.389	26495
824.529	26552
824.669	26629
824.809	26765
824.949	26609
825.089	26632
825.228	26648
825.368	26564
825.508	26427
825.648	26495
825.787	26473
825.927	26549
826.067	26446
826.206	26305
826.346	26457
826.485	26412
826.625	26545
826.765	26457
826.904	26526
827.044	26282
827.183	26237
827.323	26221
827.462	26172
827.601	26130
827.741	26183
827.88	26259
828.02	26016
828.159	26206
828.298	26153
828.437	26286
828.577	26024
828.716	26199
828.855	26005
828.994	25864
829.134	25871
829.273	25936
829.412	25833
829.551	25871
829.69	25871
829.829	25833
829.968	25978
830.107	25944
830.246	25723
830.385	25776
830.524	25712
830.663	25586
830.802	25670
830.941	25388
831.08	25487
831.219	25510
831.357	25457
831.496	25643
831.635	25400
831.774	25407
831.913	25335
832.051	25202
832.19	25179
832.329	25217
832.467	25107
832.606	25091
832.744	24973
832.883	25209
833.022	25042
833.16	25168
833.299	25069
833.437	25168
833.576	25179
833.714	25259
833.852	25103
833.991	25217
834.129	25312
834.267	25240
834.406	25202
834.544	25270
834.682	25209
834.821	25114
834.959	25297
835.097	25061
835.235	25259
835.373	25183
835.511	25217
835.65	25088
835.788	25095
835.926	24867
836.064	24935
836.202	24768
836.34	24894
836.478	25198
836.615	25023
836.753	25065
836.891	25183
837.029	24951
837.167	24905
837.305	24894
837.443	24951
837.58	24894
837.718	24867
837.856	24833
837.993	24715
838.131	24787
838.269	24696
838.406	24764
838.544	24726
838.681	24532
838.819	24536
838.956	24262
839.094	24292
839.231	24388
839.369	24502
839.506	24806
839.643	24589
839.781	24342
839.918	24251
840.055	24342
840.193	24251
840.33	24216
840.467	24148
840.604	24163
840.742	24448
840.879	24057
841.016	24186
841.153	24133
841.29	24289
841.427	24216
841.564	24254
841.701	24209
841.838	24140
841.975	24064
842.112	24045
842.249	24034
842.385	23870
842.522	24247
842.659	23912
842.796	24034
842.933	23889
843.069	23855
843.206	23927
843.343	24003
843.479	23996
843.616	24022
843.752	23794
843.889	23657
844.025	23855
844.162	23729
844.298	23817
844.435	23676
844.571	23653
844.708	23786
844.844	23893
844.98	23916
845.117	23920
845.253	23619
845.389	23745
845.525	23570
845.661	23490
845.798	23558
845.934	23429
846.07	23436
846.206	23512
846.342	23627
846.478	23471
846.614	23269
846.75	23121
846.886	23200
847.022	23258
847.158	23311
847.294	23185
847.429	23181
847.565	23155
847.701	23436
847.837	22900
847.972	22809
848.108	23124
848.244	22915
848.379	22812
848.515	22816
848.65	22771
848.786	22748
848.921	22797
849.057	22908
849.192	22812
849.328	22782
849.463	22866
849.598	22694
849.734	22599
849.869	22733
850.004	22451
850.14	22542
850.275	22653
850.41	22504
850.545	22424
850.68	22443
850.815	22588
850.95	22603
851.085	22713
851.22	22664
851.355	22546
851.49	22516
851.625	22413
851.76	22500
851.895	22402
852.03	22409
852.165	22573
852.299	22668
852.434	22569
852.569	22611
852.703	22535
852.838	22664
852.973	22615
853.107	22557
853.242	22459
853.376	22443
853.511	22265
853.645	22356
853.78	22527
853.914	22428
854.048	22314
854.183	22409
854.317	22424
854.451	22557
854.585	22363
854.72	22485
854.854	22348
854.988	22402
855.122	22390
855.256	22196
855.39	22382
855.524	22424
855.658	22409
855.792	22428
855.926	22337
856.06	22455
856.194	22550
856.327	22382
856.461	22310
856.595	22341
856.729	22497
856.862	22417
856.996	22413
857.13	22443
857.263	22356
857.397	22481
857.53	22318
857.664	22386
857.797	22443
857.931	22493
858.064	22386
858.197	22462
858.331	22284
858.464	22329
858.597	22337
858.731	22337
858.864	22318
858.997	22276
859.13	22272
859.263	22436
859.396	22314
859.529	22261
859.662	22371
859.795	22253
859.928	22299
860.061	22519
860.194	22508
860.327	22417
860.46	22299
860.592	22402
860.725	22512
860.858	22470
860.99	22318
861.123	22215
861.256	22436
861.388	22455
861.521	23052
861.653	22261
861.786	22116
861.918	22226
862.05	22268
862.183	22299
862.315	22230
862.447	22398
862.58	22322
862.712	22063
862.844	22120
862.976	22211
863.108	22112
863.24	22466
863.372	21972
863.504	22105
863.636	22074
863.768	22204
863.9	22078
864.032	22029
864.164	22086
864.296	22116
864.428	22238
864.559	22116
864.691	22238
864.823	22017
864.954	22070
865.086	21941
865.217	21991
865.349	21930
865.48	21991
865.612	21915
865.743	22097
865.875	22055
866.006	21941
866.137	21930
866.269	21930
866.4	21895
866.531	21892
866.662	21922
866.793	21922
866.924	21857
867.055	22109
867.186	21895
867.317	21770
867.448	21808
867.579	21823
867.71	21869
867.841	21838
867.972	21846
868.103	21838
868.233	21880
868.364	21876
868.495	21892
868.625	21964
868.756	22158
868.886	22101
869.017	22093
869.147	22306
869.278	22276
869.408	22120
869.539	22025
869.669	22185
869.799	22124
869.929	22131
870.06	22272
870.19	22561
870.32	22417
870.45	22443
870.58	22367
870.71	22687
870.84	22626
870.97	22440
871.1	22561
871.23	22622
871.36	22691
871.489	22557
871.619	22725
871.749	22721
871.879	22793
872.008	22809
872.138	22755
872.267	22687
872.397	22675
872.526	22573
872.656	22531
872.785	22500
872.915	22736
873.044	22820
873.173	22763
873.303	22771
873.432	22831
873.561	22930
873.69	22721
873.819	22733
873.948	22725
874.077	22782
874.206	22664
874.335	22801
874.464	22733
874.593	22976
874.722	23037
874.851	22953
874.979	22930
875.108	23018
875.237	22900
875.365	22877
875.494	22809
875.623	23090
875.751	22847
875.88	22953
876.008	23098
876.136	23269
876.265	23364
876.393	23433
876.521	23307
876.65	23619
876.778	23395
876.906	23326
877.034	23383
877.162	23334
877.29	23337
877.418	23280
877.546	23395
877.674	23239
877.802	23303
877.93	23326
878.058	23197
878.185	23284
878.313	23204
878.441	23273
878.568	23197
878.696	23189
878.824	23330
878.951	23391
879.079	23406
879.206	23741
879.333	23478
879.461	23360
879.588	23524
879.715	23486
879.842	23535
879.97	23296
880.097	23105
880.224	23071
880.351	23239
880.478	23105
880.605	23033
880.732	23124
880.859	23288
880.986	23151
881.112	23067
881.239	23117
881.366	22809
881.493	22748
881.619	22782
881.746	22717
881.872	22862
881.999	22561
882.125	22569
882.252	22755
882.378	22656
882.505	22790
882.631	22554
882.757	22398
882.883	22424
883.01	22474
883.136	22253
883.262	22238
883.388	22211
883.514	22451
883.64	22344
883.766	22253
883.892	22131
884.018	22166
884.143	22284
884.269	22413
884.395	21991
884.52	21930
884.646	22021
884.772	22048
884.897	21812
885.023	22032
885.148	22048
885.274	22131
885.399	22059
885.524	21895
885.65	21983
885.775	21854
885.9	22051
886.025	22120
886.15	22040
886.275	21972
886.4	21930
886.525	21949
886.65	21945
886.775	21983
886.9	22051
887.025	22314
887.149	21915
887.274	21774
887.399	21732
887.523	21694
887.648	21724
887.773	21656
887.897	21778
888.021	21793
888.146	21637
888.27	21789
888.395	21812
888.519	21922
888.643	21846
888.767	21823
888.891	21637
889.015	21568
889.139	21603
889.263	21530
889.387	21618
889.511	21739
889.635	21641
889.759	21591
889.883	21553
890.006	21515
890.13	21610
890.254	21462
890.377	21469
890.501	21252
890.624	21256
890.748	21184
890.871	21252
890.995	21184
891.118	21119
891.241	21013
891.364	21100
891.488	21180
891.611	21161
891.734	21116
891.857	21081
891.98	21176
892.103	21089
892.226	21207
892.349	20998
892.471	20796
892.594	21001
892.717	21058
892.839	20963
892.962	21001
893.085	21055
893.207	20944
893.33	20921
893.452	20941
893.575	21081
893.697	20891
893.819	21013
893.941	21199
894.064	21119
894.186	21100
894.308	20899
894.43	20994
894.552	21165
894.674	21077
894.796	20861
894.918	20960
895.04	20937
895.161	21123
895.283	21085
895.405	20914
895.526	21020
895.648	20944
895.769	20925
895.891	21074
896.012	21028
896.134	21062
896.255	20887
896.376	20933
896.498	20921
896.619	21009
896.74	20929
896.861	21009
896.982	21272
897.103	21447
897.224	21302
897.345	21230
897.466	21146
897.587	21207
897.708	21268
897.828	21279
897.949	21218
898.07	21055
898.19	21051
898.311	21233
898.431	21192
898.552	21233
898.672	21226
898.792	21142
898.913	21203
899.033	21043
899.153	21089
899.273	20804
899.393	21028
899.513	20963
899.633	20937
899.753	20842
899.873	20937
899.993	20861
900.113	20724
900.232	20914
900.352	20819
900.472	20777
900.591	20590
900.711	20617
900.83	20678
900.95	20792
901.069	20819
901.189	20537
901.308	20221
901.427	20294
901.546	20191
901.665	20278
901.784	20267
901.904	20058
902.023	19959
902.141	19883
902.26	19708
902.379	19898
902.498	19700
902.617	19670
902.735	19681
902.854	19719
902.973	19635
903.091	19472
903.21	19392
903.328	19449
903.446	19343
903.565	19179
903.683	19202
903.801	18958
903.919	19263
904.038	19129
904.156	19019
904.274	19118
904.392	19008
904.51	18981
904.627	18897
904.745	18894
904.863	18897
904.981	18791
905.098	18642
905.216	18661
905.334	18681
905.451	18601
905.569	18601
905.686	18688
905.803	18658
905.921	18513
906.038	18395
906.155	18429
906.272	18254
906.389	18407
906.506	18182
906.623	18235
906.74	18121
906.857	17954
906.974	17980
907.091	18346
907.208	18289
907.324	18197
907.441	18117
907.557	17942
907.674	17889
907.79	17859
907.907	17866
908.023	17946
908.139	17904
908.256	17737
908.372	17710
908.488	17760
908.604	17551
908.72	17585
908.836	17577
908.952	17638
909.068	17699
909.184	17600
909.3	17638
909.415	17520
909.531	17600
909.647	17296
909.762	17322
909.878	17258
909.993	17284
910.108	17223
910.224	17185
910.339	17277
910.454	17174
910.57	16984
910.685	16934
910.8	17337
910.915	17254
911.03	17052
911.145	16930
911.259	16869
911.374	16923
911.489	16771
911.604	16664
911.718	16599
911.833	16508
911.947	16603
912.062	16470
912.176	16618
912.291	16584
912.405	16577
912.519	16892
912.633	16805
912.748	16675
912.862	16546
912.976	16550
913.09	16284
913.204	16382
913.318	16390
913.431	16535
913.545	16538
913.659	16512
913.772	16291
913.886	16204
914	16185
914.113	16276
914.226	16413
914.34	16230
914.453	16105
914.566	16238
914.68	16105
914.793	16006
914.906	15854
915.019	15934
915.132	15797
915.245	15808
915.358	15774
915.47	15835
915.583	15778
915.696	15854
915.809	15899
915.921	15956
916.034	15698
916.146	15679
916.259	15694
916.371	15713
916.483	15770
916.595	15534
916.708	15690
916.82	15580
916.932	15663
917.044	15443
917.156	15564
917.268	15359
917.38	15435
917.491	15393
917.603	15454
917.715	15466
917.826	15545
917.938	15374
918.049	15192
918.161	15359
918.272	15477
918.384	15462
918.495	15408
918.606	15157
918.717	15108
918.828	15123
918.939	15294
919.05	14998
919.161	15085
919.272	14933
919.383	15062
919.494	15256
919.604	15298
919.715	15161
919.826	15013
919.936	15036
920.047	15272
920.157	15169
920.267	15329
920.378	15169
920.488	15157
920.598	15275
920.708	15359
920.818	15374
920.928	15218
921.038	15344
921.148	15420
921.258	15093
921.368	14963
921.477	14899
921.587	14906
921.697	14674
921.806	14811
921.916	14663
922.025	14610
922.134	14526
922.244	14313
922.353	14473
922.462	14431
922.571	14290
922.68	14073
922.789	14077
922.898	14164
923.007	14100
923.116	14138
923.224	14050
923.333	14119
923.442	13947
923.55	13868
923.659	13974
923.767	13925
923.876	13909
923.984	14031
924.092	13909
924.201	13822
924.309	13925
924.417	13890
924.525	13780
924.633	13772
924.741	14754
924.849	13529
924.956	13670
925.064	13502
925.172	13483
925.279	13460
925.387	13586
925.494	13552
925.602	13544
925.709	13480
925.816	13316
925.924	13472
926.031	13578
926.138	13422
926.245	13499
926.352	13350
926.459	13480
926.566	13544
926.673	13316
926.779	13206
926.886	13259
926.993	13110
927.099	13103
927.206	13019
927.312	13038
927.419	13107
927.525	13031
927.631	13050
927.737	12939
927.843	12875
927.95	12821
928.056	12878
928.162	12852
928.267	12878
928.373	13384
928.479	12920
928.585	12646
928.69	12738
928.796	12772
928.901	12726
929.007	12566
929.112	12692
929.218	12650
929.323	12509
929.428	12517
929.533	12760
929.638	12471
929.743	12467
929.848	12597
929.953	12445
930.058	12395
930.163	12319
930.267	12258
930.372	12384
930.477	12194
930.581	12445
930.685	12285
930.79	12117
930.894	12121
930.998	12022
931.103	12243
931.207	11859
931.311	11824
931.415	11802
931.519	11532
931.623	11455
