Data from test_V78500241_1652.txt Node
Date: Fri Mar 25 15:53:14 CST 2022
User: usil
Spectrometer: V785-0024
Trigger mode: 0
Integration Time (sec): 4.000000E-1
Scans to average: 1
Nonlinearity correction enabled: false
Boxcar width: 0
Storing dark spectrum: false
XAxis mode: Wavelengths
Number of Pixels in Spectrum: 1024
>>>>>Begin Spectral Data<<<<<
801.071	27690
801.214	27633
801.356	27492
801.499	27370
801.641	27378
801.783	27313
801.926	27363
802.068	27344
802.211	27195
802.353	27192
802.496	27036
802.638	26845
802.78	26975
802.923	26838
803.065	26838
803.208	26838
803.35	27051
803.492	27055
803.635	27317
803.777	26998
803.919	27123
804.061	27473
804.204	27192
804.346	27024
804.488	26952
804.63	27127
804.773	27119
804.915	27013
805.057	27173
805.199	27207
805.341	27199
805.483	27256
805.626	27272
805.768	27211
805.91	27458
806.052	27302
806.194	27252
806.336	27530
806.478	27211
806.62	27275
806.762	27233
806.904	27511
807.046	27682
807.188	27488
807.33	27797
807.472	27701
807.614	27561
807.756	27789
807.898	27595
808.04	27644
808.182	27515
808.324	27545
808.465	27435
808.607	27671
808.749	27922
808.891	27949
809.033	28147
809.174	27998
809.316	27857
809.458	27766
809.6	27800
809.741	27861
809.883	28131
810.025	28249
810.166	28154
810.308	28215
810.45	28207
810.591	28086
810.733	27861
810.875	27869
811.016	27816
811.158	27762
811.299	28063
811.441	28192
811.582	27972
811.724	27835
811.865	27884
812.007	27842
812.148	27987
812.29	28013
812.431	28185
812.573	28196
812.714	28249
812.855	28405
812.997	28554
813.138	28615
813.279	28523
813.421	28344
813.562	28352
813.703	28196
813.845	28055
813.986	27812
814.127	27622
814.268	27545
814.41	27618
814.551	27557
814.692	27530
814.833	27538
814.974	27500
815.115	27583
815.256	27370
815.397	27447
815.539	27401
815.68	27329
815.821	27207
815.962	27447
816.103	27264
816.244	27275
816.385	27249
816.526	27283
816.666	26921
816.807	26781
816.948	26967
817.089	26990
817.23	26998
817.371	26864
817.512	26929
817.653	26754
817.793	26918
817.934	26948
818.075	26998
818.216	26857
818.356	26902
818.497	26670
818.638	26473
818.778	26545
818.919	26533
819.06	26754
819.2	26590
819.341	26811
819.481	26712
819.622	26986
819.762	27222
819.903	27131
820.043	27077
820.184	26921
820.324	27024
820.465	26956
820.605	27001
820.746	27009
820.886	26777
821.026	27028
821.167	26902
821.307	27020
821.447	26880
821.588	26724
821.728	26762
821.868	26438
822.008	26286
822.149	26358
822.289	26328
822.429	26252
822.569	26031
822.709	25925
822.849	25807
822.99	25814
823.13	25898
823.27	25811
823.41	25681
823.55	25483
823.69	25750
823.83	25582
823.97	25609
824.11	25445
824.25	25464
824.389	25506
824.529	25556
824.669	25430
824.809	25643
824.949	25540
825.089	25533
825.228	25677
825.368	25236
825.508	25339
825.648	25247
825.787	25407
825.927	25464
826.067	25388
826.206	25316
826.346	25392
826.485	25297
826.625	25304
826.765	25495
826.904	25460
827.044	25114
827.183	25221
827.323	25114
827.462	25148
827.601	24973
827.741	25053
827.88	25012
828.02	24989
828.159	24996
828.298	25118
828.437	25179
828.577	24977
828.716	25145
828.855	24897
828.994	24802
829.134	24757
829.273	24734
829.412	24677
829.551	24707
829.69	24779
829.829	24844
829.968	24878
830.107	24859
830.246	24711
830.385	24623
830.524	24559
830.663	24521
830.802	24456
830.941	24433
831.08	24327
831.219	24357
831.357	24418
831.496	24528
831.635	24350
831.774	24163
831.913	24194
832.051	24186
832.19	24091
832.329	24144
832.467	24110
832.606	24060
832.744	23954
832.883	24053
833.022	23965
833.16	24060
833.299	23942
833.437	24117
833.576	24087
833.714	24064
833.852	24049
833.991	24247
834.129	24140
834.267	24091
834.406	24041
834.544	24030
834.682	24155
834.821	24098
834.959	24125
835.097	24095
835.235	24167
835.373	24041
835.511	23980
835.65	23969
835.788	23866
835.926	23824
836.064	23710
836.202	23665
836.34	23870
836.478	23988
836.615	23977
836.753	24003
836.891	23961
837.029	23828
837.167	23912
837.305	23775
837.443	23733
837.58	23775
837.718	23828
837.856	23836
837.993	23817
838.131	23748
838.269	23653
838.406	23684
838.544	23543
838.681	23459
838.819	23417
838.956	23254
839.094	23174
839.231	23277
839.369	23387
839.506	23558
839.643	23505
839.781	23227
839.918	23288
840.055	23178
840.193	22999
840.33	23048
840.467	23197
840.604	23060
840.742	23474
840.879	22949
841.016	23048
841.153	23022
841.29	23261
841.427	22987
841.564	23094
841.701	23151
841.838	23060
841.975	23052
842.112	23178
842.249	22949
842.385	22778
842.522	23090
842.659	23067
842.796	22869
842.933	22934
843.069	22889
843.206	22866
843.343	22923
843.479	22801
843.616	22793
843.752	22664
843.889	22588
844.025	22771
844.162	22694
844.298	22725
844.435	22733
844.571	22531
844.708	22721
844.844	22843
844.98	22805
845.117	22729
845.253	22565
845.389	22474
845.525	22649
845.661	22470
845.798	22466
845.934	22306
846.07	22268
846.206	22322
846.342	22489
846.478	22276
846.614	22173
846.75	22048
846.886	22116
847.022	22238
847.158	22105
847.294	22131
847.429	22284
847.565	22215
847.701	22284
847.837	21884
847.972	21770
848.108	21937
848.244	22029
848.379	21926
848.515	21610
848.65	21690
848.786	21656
848.921	21709
849.057	21766
849.192	21903
849.328	21819
849.463	21739
849.598	21618
849.734	21580
849.869	21496
850.004	21526
850.14	21488
850.275	21538
850.41	21401
850.545	21336
850.68	21443
850.815	21435
850.95	21511
851.085	21698
851.22	21538
851.355	21545
851.49	21473
851.625	21450
851.76	21469
851.895	21435
852.03	21454
852.165	21469
852.299	21519
852.434	21412
852.569	21557
852.703	21477
852.838	21583
852.973	21477
853.107	21641
853.242	21473
853.376	21378
853.511	21245
853.645	21294
853.78	21424
853.914	21283
854.048	21363
854.183	21382
854.317	21340
854.451	21420
854.585	21325
854.72	21374
854.854	21325
854.988	21218
855.122	21192
855.256	21116
855.39	21351
855.524	21306
855.658	21355
855.792	21370
855.926	21317
856.06	21405
856.194	21454
856.327	21336
856.461	21142
856.595	21283
856.729	21370
856.862	21526
856.996	21283
857.13	21344
857.263	21545
857.397	21428
857.53	21275
857.664	21393
857.797	21321
857.931	21389
858.064	21340
858.197	21408
858.331	21386
858.464	21104
858.597	21279
858.731	21233
858.864	21310
858.997	21283
859.13	21275
859.263	21374
859.396	21355
859.529	21222
859.662	21245
859.795	21135
859.928	21317
860.061	21420
860.194	21485
860.327	21359
860.46	21268
860.592	21389
860.725	21367
860.858	21538
860.99	21348
861.123	21199
861.256	21222
861.388	21408
861.521	21983
861.653	21093
861.786	21131
861.918	21127
862.05	21207
862.183	21131
862.315	21275
862.447	21272
862.58	21207
862.712	21116
862.844	21032
862.976	21020
863.108	21043
863.24	21603
863.372	20937
863.504	21039
863.636	20941
863.768	21085
863.9	20956
864.032	20963
864.164	20925
864.296	21005
864.428	21123
864.559	21013
864.691	21100
864.823	21066
864.954	21020
865.086	20971
865.217	20891
865.349	20868
865.48	20823
865.612	20887
865.743	21009
865.875	20952
866.006	20933
866.137	20845
866.269	20838
866.4	20807
866.531	20929
866.662	20785
866.793	20845
866.924	20937
867.055	20899
867.186	20868
867.317	20952
867.448	20826
867.579	20663
867.71	20746
867.841	20777
867.972	20842
868.103	20830
868.233	20876
868.364	20887
868.495	20941
868.625	21047
868.756	21211
868.886	21100
869.017	21100
869.147	21260
869.278	21241
869.408	21074
869.539	21112
869.669	21070
869.799	21138
869.929	21249
870.06	21165
870.19	21443
870.32	21416
870.45	21458
870.58	21564
870.71	21694
870.84	21572
870.97	21580
871.1	21542
871.23	21690
871.36	21682
871.489	21439
871.619	21720
871.749	21724
871.879	21679
872.008	21701
872.138	21812
872.267	21759
872.397	21572
872.526	21450
872.656	21564
872.785	21599
872.915	21701
873.044	21831
873.173	21728
873.303	21892
873.432	21827
873.561	21835
873.69	21618
873.819	21736
873.948	21835
874.077	21770
874.206	21660
874.335	21759
874.464	21808
874.593	21960
874.722	21979
874.851	21945
874.979	21861
875.108	21918
875.237	21918
875.365	21804
875.494	21884
875.623	22017
875.751	21918
875.88	21998
876.008	22101
876.136	22181
876.265	22246
876.393	22561
876.521	22329
876.65	22379
876.778	22261
876.906	22211
877.034	22371
877.162	22204
877.29	22154
877.418	22265
877.546	22363
877.674	22223
877.802	22303
877.93	22348
878.058	22219
878.185	22173
878.313	22196
878.441	22200
878.568	22211
878.696	22211
878.824	22299
878.951	22428
879.079	22550
879.206	22462
879.333	22493
879.461	22337
879.588	22402
879.715	22577
879.842	22565
879.97	22253
880.097	22105
880.224	22150
880.351	22185
880.478	22135
880.605	22013
880.732	22128
880.859	22360
880.986	22116
881.112	21998
881.239	21968
881.366	21888
881.493	21736
881.619	21720
881.746	21739
881.872	21755
881.999	21667
882.125	21557
882.252	21606
882.378	21701
882.505	21774
882.631	21553
882.757	21351
882.883	21431
883.01	21344
883.136	21283
883.262	21317
883.388	21252
883.514	21344
883.64	21530
883.766	21325
883.892	21180
884.018	21218
884.143	21317
884.269	21313
884.395	21032
884.52	20933
884.646	21043
884.772	20948
884.897	20807
885.023	21074
885.148	21173
885.274	21043
885.399	21112
885.524	21074
885.65	21020
885.775	21074
885.9	21081
886.025	21199
886.15	21157
886.275	21108
886.4	20963
886.525	20944
886.65	21043
886.775	21062
886.9	21032
887.025	21150
887.149	21009
887.274	20872
887.399	20842
887.523	20819
887.648	20720
887.773	20621
887.897	20960
888.021	20933
888.146	20629
888.27	20796
888.395	20895
888.519	20765
888.643	20887
888.767	20872
888.891	20815
889.015	20625
889.139	20724
889.263	20552
889.387	20609
889.511	20895
889.635	20792
889.759	20617
889.883	20549
890.006	20640
890.13	20781
890.254	20621
890.377	20568
890.501	20332
890.624	20396
890.748	20366
890.871	20233
890.995	20065
891.118	20161
891.241	20328
891.364	20259
891.488	20294
891.611	20054
891.734	20157
891.857	20218
891.98	20180
892.103	20237
892.226	20244
892.349	20126
892.471	19993
892.594	20065
892.717	20122
892.839	20107
892.962	20046
893.085	20119
893.207	20164
893.33	19997
893.452	20031
893.575	20126
893.697	20081
893.819	20161
893.941	20492
894.064	20252
894.186	20020
894.308	19928
894.43	20035
894.552	20221
894.674	20134
894.796	19997
894.918	20100
895.04	20092
895.161	20088
895.283	20092
895.405	20084
895.526	19963
895.648	20126
895.769	20088
895.891	20138
896.012	20229
896.134	20077
896.255	20046
896.376	20077
896.498	20126
896.619	20157
896.74	20134
896.861	20134
896.982	20457
897.103	20552
897.224	20423
897.345	20271
897.466	20229
897.587	20294
897.708	20389
897.828	20298
897.949	20191
898.07	20149
898.19	20275
898.311	20370
898.431	20157
898.552	20267
898.672	20347
898.792	20343
898.913	20286
899.033	20210
899.153	20107
899.273	19982
899.393	20027
899.513	20138
899.633	20001
899.753	20046
899.873	20016
899.993	20119
900.113	20012
900.232	20077
900.352	19917
900.472	19917
900.591	19890
900.711	19875
900.83	19681
900.95	19928
901.069	19856
901.189	19666
901.308	19464
901.427	19422
901.546	19430
901.665	19426
901.784	19514
901.904	19304
902.023	19175
902.141	19038
902.26	18981
902.379	19023
902.498	19034
902.617	18985
902.735	18962
902.854	18787
902.973	18833
903.091	18642
903.21	18589
903.328	18582
903.446	18589
903.565	18410
903.683	18547
903.801	18365
903.919	18376
904.038	18369
904.156	18205
904.274	18136
904.392	18159
904.51	18110
904.627	18144
904.745	18121
904.863	18171
904.981	17923
905.098	17931
905.216	17870
905.334	17843
905.451	17752
905.569	17847
905.686	17866
905.803	17764
905.921	17687
906.038	17699
906.155	17737
906.272	17490
906.389	17547
906.506	17433
906.623	17322
906.74	17322
906.857	17307
906.974	17379
907.091	17414
907.208	17448
907.324	17440
907.441	17239
907.557	17094
907.674	17124
907.79	17014
907.907	17090
908.023	17075
908.139	17143
908.256	17033
908.372	17029
908.488	17018
908.604	16831
908.72	16805
908.836	16889
908.952	16778
909.068	16900
909.184	16976
909.3	16816
909.415	16919
909.531	16839
909.647	16637
909.762	16508
909.878	16527
909.993	16527
910.108	16451
910.224	16447
910.339	16478
910.454	16325
910.57	16234
910.685	16188
910.8	16592
910.915	16500
911.03	16314
911.145	16207
911.259	16135
911.374	16067
911.489	15994
911.604	15964
911.718	15854
911.833	15846
911.947	15781
912.062	15720
912.176	15876
912.291	15884
912.405	15884
912.519	15987
912.633	15873
912.748	15941
912.862	15755
912.976	15739
913.09	15553
913.204	15671
913.318	15797
913.431	15736
913.545	15812
913.659	15713
913.772	15496
913.886	15488
914	15496
914.113	15553
914.226	15549
914.34	15595
914.453	15370
914.566	15584
914.68	15275
914.793	15332
914.906	15062
915.019	15013
915.132	15100
915.245	14982
915.358	15047
915.47	15146
915.583	15043
915.696	15001
915.809	15169
915.921	15211
916.034	15051
916.146	14933
916.259	14998
916.371	15104
916.483	15146
916.595	14933
916.708	14918
916.82	14845
916.932	14861
917.044	14864
917.156	14712
917.268	14727
917.38	14796
917.491	14674
917.603	14765
917.715	14792
917.826	14823
917.938	14663
918.049	14556
918.161	14648
918.272	14883
918.384	14781
918.495	14587
918.606	14556
918.717	14469
918.828	14583
918.939	14503
919.05	14412
919.161	14484
919.272	14275
919.383	14328
919.494	14495
919.604	14758
919.715	14446
919.826	14374
919.936	14423
920.047	14450
920.157	14438
920.267	14613
920.378	14450
920.488	14377
920.598	14705
920.708	14739
920.818	14648
920.928	14659
921.038	14754
921.148	14678
921.258	14476
921.368	14317
921.477	14134
921.587	14229
921.697	14073
921.806	14233
921.916	14062
922.025	13898
922.134	13860
922.244	13830
922.353	13826
922.462	13655
922.571	13738
922.68	13495
922.789	13415
922.898	13487
923.007	13441
923.116	13491
923.224	13480
923.333	13521
923.442	13388
923.55	13343
923.659	13350
923.767	13415
923.876	13255
923.984	13320
924.092	13228
924.201	13259
924.309	13247
924.417	13175
924.525	13103
924.633	13198
924.741	13925
924.849	12958
924.956	13129
925.064	12932
925.172	12840
925.279	12970
925.387	12867
925.494	12848
925.602	13012
925.709	12996
925.816	12730
925.924	12821
926.031	12993
926.138	12867
926.245	12970
926.352	12707
926.459	12837
926.566	12897
926.673	12776
926.779	12707
926.886	12646
926.993	12475
927.099	12536
927.206	12452
927.312	12475
927.419	12471
927.525	12502
927.631	12486
927.737	12418
927.843	12399
927.95	12220
928.056	12300
928.162	12300
928.267	12323
928.373	13012
928.479	12315
928.585	12129
928.69	12281
928.796	12262
928.901	12087
929.007	12087
929.112	12178
929.218	12163
929.323	12030
929.428	12102
929.533	12114
929.638	11954
929.743	11996
929.848	11996
929.953	11996
930.058	11836
930.163	11726
930.267	11748
930.372	11889
930.477	11668
930.581	11882
930.685	11737
930.79	11627
930.894	11638
930.998	11592
931.103	11756
931.207	11353
931.311	11239
931.415	11197
931.519	11136
931.623	10965
