Data from test_V78500241_3360.txt Node
Date: Fri Mar 25 16:05:04 CST 2022
User: usil
Spectrometer: V785-0024
Trigger mode: 0
Integration Time (sec): 4.000000E-1
Scans to average: 1
Nonlinearity correction enabled: false
Boxcar width: 0
Storing dark spectrum: false
XAxis mode: Wavelengths
Number of Pixels in Spectrum: 1024
>>>>>Begin Spectral Data<<<<<
801.071	29056
801.214	28987
801.356	28755
801.499	28733
801.641	28584
801.783	28637
801.926	28641
802.068	28512
802.211	28447
802.353	28542
802.496	28386
802.638	28276
802.78	28223
802.923	28169
803.065	28291
803.208	28223
803.35	28401
803.492	28588
803.635	28436
803.777	28443
803.919	28592
804.061	28911
804.204	28512
804.346	28447
804.488	28470
804.63	28622
804.773	28462
804.915	28603
805.057	28771
805.199	28493
805.341	28573
805.483	28698
805.626	28675
805.768	28691
805.91	28733
806.052	28725
806.194	28664
806.336	28771
806.478	28706
806.62	28729
806.762	28965
806.904	28991
807.046	29296
807.188	29143
807.33	29174
807.472	29250
807.614	29261
807.756	29109
807.898	29022
808.04	28976
808.182	29018
808.324	29079
808.465	29200
808.607	29311
808.749	29524
808.891	29528
809.033	29604
809.174	29444
809.316	29410
809.458	29433
809.6	29436
809.741	29535
809.883	29509
810.025	29714
810.166	29748
810.308	29821
810.45	29520
810.591	29634
810.733	29539
810.875	29360
811.016	29444
811.158	29318
811.299	29585
811.441	29608
811.582	29547
811.724	29493
811.865	29334
812.007	29368
812.148	29402
812.29	29448
812.431	29653
812.573	29805
812.714	29718
812.855	29969
812.997	30026
813.138	30258
813.279	30140
813.421	30076
813.562	29882
813.703	29714
813.845	29691
813.986	29467
814.127	29303
814.268	29231
814.41	29242
814.551	29014
814.692	29235
814.833	29170
814.974	29064
815.115	29261
815.256	29079
815.397	29143
815.539	28934
815.68	29064
815.821	28930
815.962	28984
816.103	28953
816.244	28717
816.385	28862
816.526	28892
816.666	28630
816.807	28440
816.948	28512
817.089	28588
817.23	28512
817.371	28527
817.512	28485
817.653	28382
817.793	28523
817.934	28451
818.075	28447
818.216	28527
818.356	28436
818.497	28371
818.638	28257
818.778	28295
818.919	28154
819.06	28360
819.2	28348
819.341	28512
819.481	28550
819.622	28698
819.762	28850
819.903	28771
820.043	28653
820.184	28717
820.324	28516
820.465	28702
820.605	28626
820.746	28573
820.886	28504
821.026	28500
821.167	28626
821.307	28706
821.447	28550
821.588	28413
821.728	28337
821.868	28257
822.008	27960
822.149	27964
822.289	28044
822.429	27766
822.569	27720
822.709	27675
822.849	27485
822.99	27473
823.13	27496
823.27	27473
823.41	27302
823.55	27169
823.69	27348
823.83	27298
823.97	27241
824.11	27222
824.25	27116
824.389	27211
824.529	27256
824.669	27184
824.809	27207
824.949	27310
825.089	27249
825.228	27249
825.368	27017
825.508	26918
825.648	26979
825.787	27024
825.927	27032
826.067	27173
826.206	26967
826.346	27176
826.485	27024
826.625	27051
826.765	27203
826.904	27146
827.044	26887
827.183	26929
827.323	26716
827.462	26823
827.601	26929
827.741	26667
827.88	26849
828.02	26705
828.159	26781
828.298	26857
828.437	26735
828.577	26701
828.716	26921
828.855	26651
828.994	26393
829.134	26446
829.273	26625
829.412	26423
829.551	26366
829.69	26556
829.829	26503
829.968	26587
830.107	26465
830.246	26431
830.385	26294
830.524	26374
830.663	26256
830.802	26149
830.941	26058
831.08	26043
831.219	26088
831.357	26229
831.496	26347
831.635	26134
831.774	26046
831.913	26020
832.051	25936
832.19	25864
832.329	25837
832.467	25871
832.606	25677
832.744	25670
832.883	25639
833.022	25635
833.16	25712
833.299	25658
833.437	25883
833.576	25761
833.714	25837
833.852	25841
833.991	25757
834.129	25902
834.267	25909
834.406	25712
834.544	25780
834.682	25833
834.821	25723
834.959	25982
835.097	25791
835.235	25822
835.373	25769
835.511	25788
835.65	25586
835.788	25658
835.926	25529
836.064	25419
836.202	25514
836.34	25620
836.478	25556
836.615	25655
836.753	25693
836.891	25719
837.029	25651
837.167	25491
837.305	25499
837.443	25529
837.58	25415
837.718	25582
837.856	25419
837.993	25476
838.131	25411
838.269	25247
838.406	25400
838.544	25259
838.681	25091
838.819	25198
838.956	24852
839.094	24905
839.231	24913
839.369	25042
839.506	25247
839.643	25061
839.781	24954
839.918	24829
840.055	24825
840.193	24848
840.33	24745
840.467	24821
840.604	24821
840.742	25012
840.879	24658
841.016	24764
841.153	24722
841.29	24825
841.427	24829
841.564	24871
841.701	24833
841.838	24715
841.975	24711
842.112	24616
842.249	24673
842.385	24589
842.522	24821
842.659	24650
842.796	24566
842.933	24604
843.069	24494
843.206	24574
843.343	24597
843.479	24471
843.616	24528
843.752	24315
843.889	24232
844.025	24574
844.162	24429
844.298	24361
844.435	24178
844.571	24171
844.708	24353
844.844	24505
844.98	24521
845.117	24490
845.253	24319
845.389	24148
845.525	24152
845.661	23996
845.798	24220
845.934	24110
846.07	24136
846.206	24133
846.342	24152
846.478	24003
846.614	23954
846.75	23748
846.886	23897
847.022	23832
847.158	23790
847.294	23843
847.429	23843
847.565	23729
847.701	24087
847.837	23596
847.972	23573
848.108	23596
848.244	23676
848.379	23402
848.515	23440
848.65	23341
848.786	23425
848.921	23444
849.057	23414
849.192	23414
849.328	23444
849.463	23395
849.598	23372
849.734	23387
849.869	23242
850.004	23041
850.14	23071
850.275	23075
850.41	23162
850.545	23079
850.68	23083
850.815	23200
850.95	23197
851.085	23246
851.22	23208
851.355	23185
851.49	23083
851.625	23037
851.76	23083
851.895	23109
852.03	23037
852.165	23269
852.299	23189
852.434	23292
852.569	23079
852.703	23166
852.838	23113
852.973	23181
853.107	23208
853.242	23121
853.376	22809
853.511	22904
853.645	22923
853.78	22942
853.914	23033
854.048	22946
854.183	22957
854.317	23090
854.451	23128
854.585	23025
854.72	23056
854.854	22961
854.988	22835
855.122	22965
855.256	22854
855.39	22953
855.524	23098
855.658	23033
855.792	23010
855.926	22976
856.06	22980
856.194	23067
856.327	22976
856.461	22885
856.595	22911
856.729	22911
856.862	23083
856.996	22957
857.13	23014
857.263	23094
857.397	23151
857.53	22911
857.664	22896
857.797	22934
857.931	23117
858.064	22968
858.197	22999
858.331	23003
858.464	22869
858.597	22831
858.731	22908
858.864	23014
858.997	22885
859.13	23014
859.263	22968
859.396	23044
859.529	22927
859.662	23060
859.795	23041
859.928	22911
860.061	23170
860.194	23181
860.327	22911
860.46	23010
860.592	23056
860.725	23109
860.858	23033
860.99	22919
861.123	22896
861.256	22991
861.388	22976
861.521	23619
861.653	22847
861.786	22725
861.918	22740
862.05	22911
862.183	22892
862.315	22877
862.447	22858
862.58	22816
862.712	22790
862.844	22645
862.976	22672
863.108	22664
863.24	23090
863.372	22656
863.504	22584
863.636	22694
863.768	22656
863.9	22733
864.032	22672
864.164	22660
864.296	22622
864.428	22786
864.559	22729
864.691	22733
864.823	22778
864.954	22531
865.086	22706
865.217	22561
865.349	22500
865.48	22519
865.612	22561
865.743	22660
865.875	22504
866.006	22554
866.137	22653
866.269	22508
866.4	22596
866.531	22447
866.662	22405
866.793	22409
866.924	22447
867.055	22447
867.186	22550
867.317	22402
867.448	22402
867.579	22443
867.71	22386
867.841	22360
867.972	22557
868.103	22405
868.233	22512
868.364	22402
868.495	22641
868.625	22710
868.756	22797
868.886	22649
869.017	22679
869.147	22809
869.278	22744
869.408	22637
869.539	22706
869.669	22820
869.799	22858
869.929	22801
870.06	22752
870.19	23018
870.32	22968
870.45	23056
870.58	22984
870.71	23254
870.84	23197
870.97	22949
871.1	23136
871.23	23280
871.36	23299
871.489	23155
871.619	23239
871.749	23239
871.879	23296
872.008	23318
872.138	23060
872.267	23330
872.397	23075
872.526	23124
872.656	23124
872.785	23246
872.915	23330
873.044	23337
873.173	23246
873.303	23398
873.432	23410
873.561	23398
873.69	23421
873.819	23258
873.948	23330
874.077	23235
874.206	23246
874.335	23296
874.464	23410
874.593	23623
874.722	23512
874.851	23535
874.979	23577
875.108	23600
875.237	23455
875.365	23414
875.494	23573
875.623	23581
875.751	23471
875.88	23543
876.008	23528
876.136	23642
876.265	24022
876.393	23984
876.521	23988
876.65	23916
876.778	24015
876.906	23855
877.034	23870
877.162	23912
877.29	23824
877.418	23980
877.546	23920
877.674	23821
877.802	23946
877.93	23904
878.058	23973
878.185	23897
878.313	23756
878.441	23832
878.568	23661
878.696	23836
878.824	23908
878.951	24083
879.079	24087
879.206	24292
879.333	23999
879.461	23961
879.588	23904
879.715	24129
879.842	24140
879.97	23901
880.097	23619
880.224	23665
880.351	23737
880.478	23665
880.605	23710
880.732	23722
880.859	24026
880.986	23668
881.112	23710
881.239	23528
881.366	23429
881.493	23307
881.619	23337
881.746	23220
881.872	23280
881.999	23174
882.125	23136
882.252	23315
882.378	23200
882.505	23288
882.631	23185
882.757	22881
882.883	22999
883.01	22839
883.136	22923
883.262	22733
883.388	22698
883.514	22877
883.64	22953
883.766	22824
883.892	22653
884.018	22622
884.143	22839
884.269	22919
884.395	22653
884.52	22531
884.646	22675
884.772	22443
884.897	22436
885.023	22618
885.148	22649
885.274	22710
885.399	22687
885.524	22611
885.65	22634
885.775	22535
885.9	22478
886.025	22649
886.15	22622
886.275	22386
886.4	22394
886.525	22535
886.65	22363
886.775	22440
886.9	22641
887.025	22641
887.149	22371
887.274	22367
887.399	22177
887.523	22253
887.648	22200
887.773	22181
887.897	22428
888.021	22371
888.146	22272
888.27	22280
888.395	22390
888.519	22295
888.643	22173
888.767	22341
888.891	22238
889.015	22215
889.139	22150
889.263	22055
889.387	22162
889.511	22211
889.635	22162
889.759	21915
889.883	22090
890.006	22082
890.13	22070
890.254	22029
890.377	21941
890.501	21865
890.624	21793
890.748	21842
890.871	21793
890.995	21663
891.118	21519
891.241	21606
891.364	21637
891.488	21781
891.611	21557
891.734	21637
891.857	21728
891.98	21656
892.103	21698
892.226	21534
892.349	21561
892.471	21443
892.594	21591
892.717	21603
892.839	21447
892.962	21515
893.085	21648
893.207	21591
893.33	21363
893.452	21496
893.575	21519
893.697	21496
893.819	21701
893.941	21656
894.064	21587
894.186	21504
894.308	21416
894.43	21469
894.552	21545
894.674	21603
894.796	21355
894.918	21496
895.04	21416
895.161	21572
895.283	21549
895.405	21408
895.526	21591
895.648	21462
895.769	21530
895.891	21507
896.012	21587
896.134	21515
896.255	21458
896.376	21462
896.498	21481
896.619	21583
896.74	21488
896.861	21507
896.982	21774
897.103	21975
897.224	21720
897.345	21755
897.466	21576
897.587	21728
897.708	21808
897.828	21652
897.949	21534
898.07	21507
898.19	21545
898.311	21690
898.431	21618
898.552	21660
898.672	21610
898.792	21629
898.913	21614
899.033	21405
899.153	21386
899.273	21401
899.393	21363
899.513	21412
899.633	21275
899.753	21393
899.873	21321
899.993	21416
900.113	21222
900.232	21313
900.352	21260
900.472	21161
900.591	21146
900.711	21058
900.83	21146
900.95	21252
901.069	21176
901.189	21024
901.308	20769
901.427	20670
901.546	20682
901.665	20632
901.784	20712
901.904	20579
902.023	20522
902.141	20301
902.26	20206
902.379	20355
902.498	20240
902.617	20195
902.735	20313
902.854	20145
902.973	20088
903.091	19936
903.21	19887
903.328	19883
903.446	19837
903.565	19689
903.683	19727
903.801	19487
903.919	19521
904.038	19635
904.156	19365
904.274	19586
904.392	19346
904.51	19316
904.627	19369
904.745	19411
904.863	19491
904.981	19145
905.098	19072
905.216	19221
905.334	19190
905.451	19118
905.569	19069
905.686	19050
905.803	19042
905.921	18844
906.038	18951
906.155	18913
906.272	18749
906.389	18821
906.506	18703
906.623	18646
906.74	18570
906.857	18498
906.974	18395
907.091	18696
907.208	18719
907.324	18627
907.441	18513
907.557	18262
907.674	18232
907.79	18296
907.907	18254
908.023	18205
908.139	18361
908.256	18285
908.372	18216
908.488	18144
908.604	17942
908.72	17999
908.836	18030
908.952	18003
909.068	18011
909.184	18110
909.3	18079
909.415	18114
909.531	18034
909.647	17714
909.762	17733
909.878	17729
909.993	17718
910.108	17646
910.224	17676
910.339	17577
910.454	17551
910.57	17592
910.685	17429
910.8	17653
910.915	17600
911.03	17448
911.145	17398
911.259	17227
911.374	17258
911.489	17258
911.604	17132
911.718	17006
911.833	16984
911.947	16915
912.062	16896
912.176	17014
912.291	17033
912.405	16984
912.519	17288
912.633	17197
912.748	17067
912.862	17010
912.976	16805
913.09	16801
913.204	16900
913.318	16930
913.431	16839
913.545	16953
913.659	16961
913.772	16839
913.886	16634
914	16641
914.113	16683
914.226	16744
914.34	16630
914.453	16500
914.566	16694
914.68	16440
914.793	16432
914.906	16181
915.019	16215
915.132	16196
915.245	16188
915.358	16158
915.47	16131
915.583	16196
915.696	16223
915.809	16261
915.921	16253
916.034	16112
916.146	16071
916.259	16090
916.371	16131
916.483	16101
916.595	16048
916.708	16055
916.82	15994
916.932	15975
917.044	15941
917.156	15941
917.268	15743
917.38	15873
917.491	15701
917.603	15797
917.715	15861
917.826	15945
917.938	15736
918.049	15610
918.161	15743
918.272	15880
918.384	15827
918.495	15759
918.606	15515
918.717	15389
918.828	15504
918.939	15473
919.05	15382
919.161	15454
919.272	15302
919.383	15310
919.494	15572
919.604	15603
919.715	15462
919.826	15393
919.936	15428
920.047	15523
920.157	15466
920.267	15580
920.378	15591
920.488	15469
920.598	15720
920.708	15747
920.818	15648
920.928	15530
921.038	15728
921.148	15667
921.258	15386
921.368	15348
921.477	15298
921.587	15199
921.697	15043
921.806	15237
921.916	15024
922.025	14826
922.134	14842
922.244	14857
922.353	14876
922.462	14705
922.571	14689
922.68	14480
922.789	14457
922.898	14507
923.007	14381
923.116	14480
923.224	14400
923.333	14457
923.442	14298
923.55	14317
923.659	14290
923.767	14317
923.876	14218
923.984	14271
924.092	14164
924.201	14172
924.309	14183
924.417	14157
924.525	13997
924.633	14027
924.741	15123
924.849	13921
924.956	13989
925.064	13909
925.172	13750
925.279	13879
925.387	13814
925.494	13811
925.602	13928
925.709	13841
925.816	13651
925.924	13753
926.031	13833
926.138	13719
926.245	13761
926.352	13696
926.459	13799
926.566	13753
926.673	13674
926.779	13616
926.886	13487
926.993	13506
927.099	13373
927.206	13312
927.312	13335
927.419	13362
927.525	13362
927.631	13396
927.737	13221
927.843	13152
927.95	13114
928.056	13126
928.162	13183
928.267	13171
928.373	13753
928.479	13247
928.585	13042
928.69	13118
928.796	13137
928.901	13027
929.007	12787
929.112	13038
929.218	12966
929.323	12913
929.428	12875
929.533	13004
929.638	12757
929.743	12806
929.848	12768
929.953	12814
930.058	12662
930.163	12559
930.267	12536
930.372	12658
930.477	12460
930.581	12753
930.685	12681
930.79	12380
930.894	12372
930.998	12380
931.103	12544
931.207	12121
931.311	12053
931.415	11988
931.519	11737
931.623	11718
