Data from test_V78500241_766.txt Node
Date: Fri Mar 25 15:47:06 CST 2022
User: usil
Spectrometer: V785-0024
Trigger mode: 0
Integration Time (sec): 4.000000E-1
Scans to average: 1
Nonlinearity correction enabled: false
Boxcar width: 0
Storing dark spectrum: false
XAxis mode: Wavelengths
Number of Pixels in Spectrum: 1024
>>>>>Begin Spectral Data<<<<<
801.071	27972
801.214	27865
801.356	27622
801.499	27530
801.641	27367
801.783	27530
801.926	27564
802.068	27454
802.211	27466
802.353	27435
802.496	27089
802.638	27074
802.78	27127
802.923	26921
803.065	27047
803.208	27123
803.35	27237
803.492	27275
803.635	27260
803.777	27161
803.919	27355
804.061	27622
804.204	27412
804.346	27173
804.488	27241
804.63	27241
804.773	27135
804.915	27180
805.057	27370
805.199	27393
805.341	27412
805.483	27515
805.626	27408
805.768	27447
805.91	27367
806.052	27496
806.194	27431
806.336	27580
806.478	27435
806.62	27492
806.762	27713
806.904	27732
807.046	28128
807.188	27869
807.33	27888
807.472	27945
807.614	27785
807.756	27766
807.898	27690
808.04	27656
808.182	27751
808.324	27743
808.465	27793
808.607	27937
808.749	28078
808.891	28257
809.033	28284
809.174	28303
809.316	28124
809.458	28116
809.6	28150
809.741	28299
809.883	28344
810.025	28485
810.166	28226
810.308	28337
810.45	28329
810.591	28246
810.733	28200
810.875	27934
811.016	27785
811.158	28032
811.299	28230
811.441	28394
811.582	28367
811.724	28177
811.865	28032
812.007	28116
812.148	28169
812.29	28188
812.431	28253
812.573	28409
812.714	28519
812.855	28599
812.997	28717
813.138	28713
813.279	28759
813.421	28557
813.562	28618
813.703	28379
813.845	28500
813.986	28025
814.127	27888
814.268	27854
814.41	27724
814.551	27720
814.692	27827
814.833	27808
814.974	27808
815.115	27739
815.256	27717
815.397	27648
815.539	27542
815.68	27625
815.821	27466
815.962	27637
816.103	27698
816.244	27439
816.385	27439
816.526	27462
816.666	27154
816.807	26986
816.948	27241
817.089	27203
817.23	27203
817.371	27184
817.512	27176
817.653	27154
817.793	27017
817.934	27146
818.075	27100
818.216	27199
818.356	27112
818.497	26982
818.638	26823
818.778	26883
818.919	26868
819.06	26967
819.2	26868
819.341	27146
819.481	27123
819.622	27131
819.762	27420
819.903	27355
820.043	27192
820.184	27180
820.324	27203
820.465	27230
820.605	27321
820.746	27180
820.886	27093
821.026	27176
821.167	27039
821.307	27313
821.447	27116
821.588	27028
821.728	26975
821.868	26765
822.008	26739
822.149	26556
822.289	26537
822.429	26320
822.569	26172
822.709	26355
822.849	26172
822.99	26153
823.13	25959
823.27	25966
823.41	25951
823.55	25723
823.69	25845
823.83	25883
823.97	25986
824.11	25662
824.25	25731
824.389	25799
824.529	25856
824.669	25837
824.809	25791
824.949	25803
825.089	25818
825.228	25746
825.368	25662
825.508	25567
825.648	25677
825.787	25620
825.927	25605
826.067	25514
826.206	25594
826.346	25693
826.485	25590
826.625	25582
826.765	25632
826.904	25586
827.044	25187
827.183	25301
827.323	25141
827.462	25221
827.601	25320
827.741	25225
827.88	25343
828.02	25148
828.159	25213
828.298	25457
828.437	25468
828.577	25122
828.716	25426
828.855	25240
828.994	24996
829.134	24897
829.273	25038
829.412	24932
829.551	24966
829.69	25015
829.829	25069
829.968	25206
830.107	25069
830.246	25023
830.385	24901
830.524	24947
830.663	24875
830.802	24745
830.941	24601
831.08	24635
831.219	24772
831.357	24665
831.496	24779
831.635	24601
831.774	24631
831.913	24544
832.051	24528
832.19	24388
832.329	24353
832.467	24395
832.606	24304
832.744	24281
832.883	24277
833.022	24178
833.16	24285
833.299	24273
833.437	24262
833.576	24502
833.714	24422
833.852	24380
833.991	24372
834.129	24448
834.267	24574
834.406	24319
834.544	24296
834.682	24422
834.821	24270
834.959	24475
835.097	24330
835.235	24281
835.373	24266
835.511	24239
835.65	24110
835.788	24030
835.926	24300
836.064	24060
836.202	24026
836.34	24266
836.478	24304
836.615	24163
836.753	24102
836.891	24129
837.029	24178
837.167	24072
837.305	24053
837.443	24129
837.58	24034
837.718	24045
837.856	23950
837.993	23889
838.131	24038
838.269	23882
838.406	23901
838.544	23855
838.681	23630
838.819	23672
838.956	23444
839.094	23512
839.231	23372
839.369	23672
839.506	23874
839.643	23680
839.781	23474
839.918	23497
840.055	23410
840.193	23360
840.33	23478
840.467	23433
840.604	23433
840.742	23767
840.879	23383
841.016	23406
841.153	23269
841.29	23474
841.427	23410
841.564	23395
841.701	23307
841.838	23269
841.975	23273
842.112	23395
842.249	23128
842.385	23223
842.522	23261
842.659	23330
842.796	23166
842.933	23220
843.069	23041
843.206	23090
843.343	23242
843.479	23056
843.616	23147
843.752	23022
843.889	22835
844.025	23018
844.162	22786
844.298	23006
844.435	22843
844.571	22866
844.708	23014
844.844	23083
844.98	22965
845.117	23003
845.253	22927
845.389	22698
845.525	22900
845.661	22801
845.798	22645
845.934	22679
846.07	22637
846.206	22679
846.342	22755
846.478	22649
846.614	22474
846.75	22268
846.886	22386
847.022	22538
847.158	22299
847.294	22379
847.429	22390
847.565	22344
847.701	22778
847.837	22025
847.972	22078
848.108	22188
848.244	22230
848.379	22074
848.515	21972
848.65	22067
848.786	22025
848.921	22101
849.057	22135
849.192	22112
849.328	22021
849.463	21907
849.598	21949
849.734	21854
849.869	21762
850.004	21736
850.14	21774
850.275	21717
850.41	21717
850.545	21656
850.68	21698
850.815	21876
850.95	21641
851.085	21987
851.22	21880
851.355	21903
851.49	21762
851.625	21610
851.76	21724
851.895	21625
852.03	21625
852.165	21622
852.299	21823
852.434	21766
852.569	21804
852.703	21876
852.838	21648
852.973	21819
853.107	21880
853.242	21778
853.376	21568
853.511	21500
853.645	21370
853.78	21580
853.914	21622
854.048	21511
854.183	21492
854.317	21671
854.451	21717
854.585	21534
854.72	21583
854.854	21530
854.988	21485
855.122	21576
855.256	21454
855.39	21424
855.524	21587
855.658	21633
855.792	21526
855.926	21641
856.06	21641
856.194	21610
856.327	21481
856.461	21564
856.595	21523
856.729	21428
856.862	21637
856.996	21538
857.13	21633
857.263	21641
857.397	21660
857.53	21610
857.664	21481
857.797	21526
857.931	21595
858.064	21793
858.197	21542
858.331	21466
858.464	21435
858.597	21485
858.731	21557
858.864	21545
858.997	21492
859.13	21519
859.263	21561
859.396	21610
859.529	21644
859.662	21450
859.795	21389
859.928	21500
860.061	21770
860.194	21644
860.327	21614
860.46	21534
860.592	21641
860.725	21701
860.858	21629
860.99	21553
861.123	21473
861.256	21511
861.388	21500
861.521	22204
861.653	21481
861.786	21287
861.918	21466
862.05	21511
862.183	21519
862.315	21405
862.447	21618
862.58	21428
862.712	21332
862.844	21230
862.976	21268
863.108	21325
863.24	21739
863.372	21154
863.504	21291
863.636	21332
863.768	21332
863.9	21245
864.032	21051
864.164	21180
864.296	21165
864.428	21317
864.559	21405
864.691	21325
864.823	21294
864.954	21329
865.086	21211
865.217	21058
865.349	21005
865.48	21123
865.612	21230
865.743	21279
865.875	21184
866.006	21104
866.137	21173
866.269	21230
866.4	20975
866.531	21112
866.662	20979
866.793	21089
866.924	21096
867.055	21180
867.186	21161
867.317	21009
867.448	20918
867.579	21066
867.71	21062
867.841	21005
867.972	21089
868.103	21047
868.233	21032
868.364	20956
868.495	21283
868.625	21431
868.756	21515
868.886	21340
869.017	21169
869.147	21397
869.278	21447
869.408	21249
869.539	21424
869.669	21504
869.799	21344
869.929	21496
870.06	21382
870.19	21622
870.32	21511
870.45	21542
870.58	21641
870.71	21709
870.84	21838
870.97	21698
871.1	21701
871.23	21926
871.36	21975
871.489	21808
871.619	21854
871.749	21888
871.879	21979
872.008	21953
872.138	21918
872.267	21915
872.397	21732
872.526	21778
872.656	21652
872.785	21656
872.915	21911
873.044	22040
873.173	21899
873.303	21983
873.432	21903
873.561	22090
873.69	22067
873.819	21880
873.948	22078
874.077	21926
874.206	21808
874.335	21945
874.464	22112
874.593	22150
874.722	22105
874.851	22200
874.979	22025
875.108	22162
875.237	22185
875.365	22093
875.494	22124
875.623	22215
875.751	22181
875.88	22257
876.008	22276
876.136	22299
876.265	22489
876.393	22702
876.521	22626
876.65	22569
876.778	22443
876.906	22390
877.034	22512
877.162	22561
877.29	22500
877.418	22474
877.546	22451
877.674	22531
877.802	22493
877.93	22440
878.058	22672
878.185	22478
878.313	22428
878.441	22569
878.568	22333
878.696	22470
878.824	22405
878.951	22611
879.079	22790
879.206	22694
879.333	22744
879.461	22546
879.588	22622
879.715	22824
879.842	22729
879.97	22554
880.097	22379
880.224	22314
880.351	22375
880.478	22253
880.605	22356
880.732	22360
880.859	22679
880.986	22173
881.112	22371
881.239	22207
881.366	22097
881.493	21941
881.619	22006
881.746	21930
881.872	22051
881.999	21949
882.125	21922
882.252	21949
882.378	21930
882.505	22006
882.631	21812
882.757	21564
882.883	21717
883.01	21652
883.136	21534
883.262	21500
883.388	21416
883.514	21545
883.64	21747
883.766	21469
883.892	21447
884.018	21367
884.143	21568
884.269	21576
884.395	21393
884.52	21245
884.646	21283
884.772	21226
884.897	21252
885.023	21207
885.148	21294
885.274	21534
885.399	21298
885.524	21207
885.65	21237
885.775	21214
885.9	21218
886.025	21249
886.15	21313
886.275	21226
886.4	21154
886.525	21245
886.65	21043
886.775	21154
886.9	21389
887.025	21466
887.149	21154
887.274	20967
887.399	21047
887.523	20982
887.648	20918
887.773	20804
887.897	21157
888.021	21104
888.146	20998
888.27	21089
888.395	21085
888.519	21032
888.643	21055
888.767	21062
888.891	20796
889.015	20720
889.139	20883
889.263	20838
889.387	20891
889.511	20902
889.635	20937
889.759	20830
889.883	20708
890.006	20807
890.13	20853
890.254	20693
890.377	20663
890.501	20514
890.624	20617
890.748	20545
890.871	20552
890.995	20358
891.118	20332
891.241	20366
891.364	20374
891.488	20473
891.611	20339
891.734	20404
891.857	20408
891.98	20324
892.103	20434
892.226	20408
892.349	20286
892.471	20134
892.594	20377
892.717	20431
892.839	20229
892.962	20309
893.085	20374
893.207	20244
893.33	20100
893.452	20145
893.575	20317
893.697	20256
893.819	20419
893.941	20393
894.064	20400
894.186	20206
894.308	20195
894.43	20366
894.552	20412
894.674	20294
894.796	20229
894.918	20259
895.04	20282
895.161	20377
895.283	20256
895.405	20115
895.526	20180
895.648	20320
895.769	20317
895.891	20343
896.012	20301
896.134	20263
896.255	20282
896.376	20111
896.498	20282
896.619	20305
896.74	20225
896.861	20427
896.982	20609
897.103	20720
897.224	20590
897.345	20499
897.466	20530
897.587	20514
897.708	20640
897.828	20636
897.949	20438
898.07	20336
898.19	20320
898.311	20541
898.431	20393
898.552	20492
898.672	20625
898.792	20598
898.913	20461
899.033	20286
899.153	20218
899.273	20157
899.393	20191
899.513	20343
899.633	20282
899.753	20225
899.873	20176
899.993	20180
900.113	20180
900.232	20210
900.352	20115
900.472	20111
900.591	19974
900.711	20031
900.83	19982
900.95	20092
901.069	20218
901.189	19928
901.308	19761
901.427	19624
901.546	19563
901.665	19556
901.784	19552
901.904	19510
902.023	19324
902.141	19240
902.26	19278
902.379	19198
902.498	19190
902.617	19023
902.735	19171
902.854	19031
902.973	19091
903.091	18783
903.21	18913
903.328	18696
903.446	18722
903.565	18479
903.683	18665
903.801	18502
903.919	18521
904.038	18536
904.156	18422
904.274	18479
904.392	18243
904.51	18365
904.627	18247
904.745	18433
904.863	18388
904.981	18205
905.098	18022
905.216	18083
905.334	18098
905.451	18064
905.569	18015
905.686	18049
905.803	17992
905.921	17748
906.038	17882
906.155	17863
906.272	17619
906.389	17764
906.506	17638
906.623	17608
906.74	17566
906.857	17353
906.974	17455
907.091	17592
907.208	17767
907.324	17478
907.441	17474
907.557	17368
907.674	17204
907.79	17189
907.907	17151
908.023	17277
908.139	17250
908.256	17204
908.372	17090
908.488	17136
908.604	16991
908.72	16999
908.836	16972
908.952	16961
909.068	16999
909.184	17132
909.3	16976
909.415	17083
909.531	16949
909.647	16778
909.762	16706
909.878	16713
909.993	16653
910.108	16611
910.224	16740
910.339	16535
910.454	16607
910.57	16542
910.685	16443
910.8	16744
910.915	16607
911.03	16497
911.145	16268
911.259	16253
911.374	16344
911.489	16196
911.604	16101
911.718	15987
911.833	16078
911.947	15998
912.062	15998
912.176	15968
912.291	16048
912.405	16067
912.519	16265
912.633	16371
912.748	16032
912.862	15934
912.976	15816
913.09	15781
913.204	15899
913.318	15827
913.431	15960
913.545	15831
913.659	15949
913.772	15732
913.886	15690
914	15701
914.113	15728
914.226	15709
914.34	15660
914.453	15542
914.566	15580
914.68	15584
914.793	15469
914.906	15291
915.019	15218
915.132	15211
915.245	15245
915.358	15279
915.47	15230
915.583	15169
915.696	15287
915.809	15287
915.921	15424
916.034	15100
916.146	15161
916.259	15066
916.371	15116
916.483	15176
916.595	15093
916.708	15077
916.82	15017
916.932	15142
917.044	15036
917.156	15055
917.268	14861
917.38	14899
917.491	14834
917.603	14891
917.715	15009
917.826	14948
917.938	14864
918.049	14785
918.161	14876
918.272	14925
918.384	15017
918.495	14796
918.606	14727
918.717	14549
918.828	14625
918.939	14667
919.05	14484
919.161	14678
919.272	14480
919.383	14488
919.494	14678
919.604	14906
919.715	14689
919.826	14545
919.936	14648
920.047	14693
920.157	14556
920.267	14876
920.378	14583
920.488	14571
920.598	14796
920.708	14914
920.818	14796
920.928	14667
921.038	14967
921.148	14921
921.258	14587
921.368	14385
921.477	14389
921.587	14317
921.697	14275
921.806	14336
921.916	14259
922.025	14103
922.134	13986
922.244	13856
922.353	13944
922.462	13871
922.571	13727
922.68	13655
922.789	13548
922.898	13586
923.007	13510
923.116	13655
923.224	13658
923.333	13655
923.442	13464
923.55	13457
923.659	13377
923.767	13559
923.876	13343
923.984	13491
924.092	13316
924.201	13411
924.309	13362
924.417	13343
924.525	13255
924.633	13308
924.741	14202
924.849	13038
924.956	13236
925.064	13034
925.172	13023
925.279	12993
925.387	13038
925.494	13164
925.602	13175
925.709	13164
925.816	12954
925.924	12932
926.031	13015
926.138	12970
926.245	13088
926.352	12798
926.459	13012
926.566	13072
926.673	12916
926.779	12821
926.886	12810
926.993	12703
927.099	12662
927.206	12555
927.312	12506
927.419	12688
927.525	12616
927.631	12639
927.737	12532
927.843	12464
927.95	12327
928.056	12410
928.162	12456
928.267	12498
928.373	12947
928.479	12494
928.585	12235
928.69	12380
928.796	12361
928.901	12308
929.007	12209
929.112	12281
929.218	12159
929.323	12178
929.428	12148
929.533	12357
929.638	12076
929.743	12114
929.848	12182
929.953	12038
930.058	11992
930.163	11866
930.267	11859
930.372	11992
930.477	11809
930.581	12003
930.685	11969
930.79	11824
930.894	11771
930.998	11699
931.103	11790
931.207	11425
931.311	11402
931.415	11292
931.519	11117
931.623	11079
