Data from test_V78500241_1685.txt Node
Date: Fri Mar 25 15:53:28 CST 2022
User: usil
Spectrometer: V785-0024
Trigger mode: 0
Integration Time (sec): 4.000000E-1
Scans to average: 1
Nonlinearity correction enabled: false
Boxcar width: 0
Storing dark spectrum: false
XAxis mode: Wavelengths
Number of Pixels in Spectrum: 1024
>>>>>Begin Spectral Data<<<<<
801.071	28569
801.214	28382
801.356	28006
801.499	28055
801.641	27964
801.783	27911
801.926	28067
802.068	27895
802.211	27728
802.353	27835
802.496	27660
802.638	27610
802.78	27652
802.923	27435
803.065	27485
803.208	27530
803.35	27660
803.492	27831
803.635	27800
803.777	27751
803.919	27816
804.061	28059
804.204	27888
804.346	27762
804.488	27724
804.63	27812
804.773	27838
804.915	27945
805.057	27899
805.199	27907
805.341	27865
805.483	28017
805.626	27987
805.768	27968
805.91	28017
806.052	27975
806.194	27831
806.336	28090
806.478	28112
806.62	27895
806.762	28070
806.904	28158
807.046	28474
807.188	28409
807.33	28310
807.472	28554
807.614	28500
807.756	28382
807.898	28253
808.04	28185
808.182	28226
808.324	28310
808.465	28196
808.607	28451
808.749	28550
808.891	28831
809.033	28869
809.174	28675
809.316	28557
809.458	28592
809.6	28641
809.741	28622
809.883	28778
810.025	29025
810.166	28942
810.308	28835
810.45	28805
810.591	28797
810.733	28797
810.875	28797
811.016	28497
811.158	28675
811.299	28645
811.441	28869
811.582	28934
811.724	28698
811.865	28668
812.007	28626
812.148	28672
812.29	28717
812.431	28873
812.573	28881
812.714	29022
812.855	29136
812.997	29299
813.138	29410
813.279	29277
813.421	29193
813.562	29067
813.703	28999
813.845	28968
813.986	28478
814.127	28428
814.268	28363
814.41	28295
814.551	28360
814.692	28500
814.833	28322
814.974	28276
815.115	28436
815.256	28253
815.397	28310
815.539	28188
815.68	28097
815.821	27975
815.962	28147
816.103	28120
816.244	27987
816.385	28048
816.526	27968
816.666	27755
816.807	27542
816.948	27781
817.089	27713
817.23	27694
817.371	27576
817.512	27728
817.653	27728
817.793	27641
817.934	27614
818.075	27492
818.216	27682
818.356	27583
818.497	27576
818.638	27291
818.778	27340
818.919	27473
819.06	27466
819.2	27576
819.341	27778
819.481	27774
819.622	27869
819.762	28002
819.903	27903
820.043	27880
820.184	27838
820.324	27812
820.465	27956
820.605	27812
820.746	27785
820.886	27739
821.026	27827
821.167	27732
821.307	27846
821.447	27690
821.588	27549
821.728	27488
821.868	27439
822.008	27142
822.149	27119
822.289	26982
822.429	26804
822.569	26883
822.709	26906
822.849	26648
822.99	26632
823.13	26693
823.27	26655
823.41	26457
823.55	26434
823.69	26400
823.83	26518
823.97	26476
824.11	26343
824.25	26294
824.389	26286
824.529	26278
824.669	26336
824.809	26419
824.949	26396
825.089	26495
825.228	26343
825.368	26142
825.508	26103
825.648	26191
825.787	26206
825.927	26195
826.067	26111
826.206	26103
826.346	26199
826.485	26088
826.625	26305
826.765	26396
826.904	26214
827.044	25932
827.183	26024
827.323	25791
827.462	25788
827.601	25913
827.741	25925
827.88	25868
828.02	25780
828.159	25750
828.298	25925
828.437	25871
828.577	25738
828.716	25936
828.855	25818
828.994	25715
829.134	25662
829.273	25784
829.412	25487
829.551	25518
829.69	25537
829.829	25499
829.968	25548
830.107	25666
830.246	25479
830.385	25594
830.524	25419
830.663	25396
830.802	25202
830.941	25236
831.08	25091
831.219	25171
831.357	25274
831.496	25403
831.635	25202
831.774	25046
831.913	25129
832.051	25046
832.19	25031
832.329	24890
832.467	24970
832.606	24878
832.744	24696
832.883	24840
833.022	24768
833.16	24810
833.299	24821
833.437	24901
833.576	24932
833.714	24970
833.852	24905
833.991	25050
834.129	25004
834.267	24928
834.406	24981
834.544	25038
834.682	24890
834.821	24935
834.959	25103
835.097	24684
835.235	24894
835.373	24947
835.511	24859
835.65	24700
835.788	24749
835.926	24711
836.064	24589
836.202	24623
836.34	24684
836.478	25019
836.615	24700
836.753	24741
836.891	24783
837.029	24791
837.167	24684
837.305	24703
837.443	24604
837.58	24452
837.718	24692
837.856	24585
837.993	24551
838.131	24513
838.269	24471
838.406	24525
838.544	24277
838.681	24197
838.819	24133
838.956	24098
839.094	23980
839.231	24091
839.369	24209
839.506	24445
839.643	24292
839.781	24114
839.918	23897
840.055	24136
840.193	24041
840.33	24060
840.467	23920
840.604	24045
840.742	24174
840.879	23710
841.016	23813
841.153	23783
841.29	24011
841.427	23885
841.564	23950
841.701	23912
841.838	23817
841.975	23737
842.112	23843
842.249	23653
842.385	23733
842.522	23836
842.659	23767
842.796	23672
842.933	23665
843.069	23745
843.206	23615
843.343	23809
843.479	23745
843.616	23684
843.752	23539
843.889	23478
844.025	23566
844.162	23379
844.298	23627
844.435	23493
844.571	23501
844.708	23600
844.844	23543
844.98	23604
845.117	23619
845.253	23337
845.389	23429
845.525	23360
845.661	23402
845.798	23064
845.934	23303
846.07	23159
846.206	23155
846.342	23239
846.478	23117
846.614	22934
846.75	22934
846.886	22976
847.022	23014
847.158	22965
847.294	22968
847.429	22915
847.565	22816
847.701	23121
847.837	22668
847.972	22565
848.108	22649
848.244	22797
848.379	22569
848.515	22432
848.65	22481
848.786	22424
848.921	22542
849.057	22691
849.192	22603
849.328	22500
849.463	22542
849.598	22341
849.734	22253
849.869	22310
850.004	22276
850.14	22390
850.275	22234
850.41	22101
850.545	22211
850.68	22226
850.815	22382
850.95	22226
851.085	22405
851.22	22382
851.355	22291
851.49	22246
851.625	22207
851.76	22226
851.895	22211
852.03	22265
852.165	22268
852.299	22257
852.434	22455
852.569	22333
852.703	22238
852.838	22333
852.973	22310
853.107	22329
853.242	22223
853.376	22044
853.511	22044
853.645	22105
853.78	22192
853.914	22204
854.048	22105
854.183	22090
854.317	22055
854.451	22272
854.585	22067
854.72	22082
854.854	22211
854.988	22090
855.122	22040
855.256	22006
855.39	22124
855.524	22204
855.658	22078
855.792	22086
855.926	22109
856.06	22215
856.194	22120
856.327	22124
856.461	22032
856.595	22013
856.729	21994
856.862	22246
856.996	22093
857.13	22185
857.263	22143
857.397	22162
857.53	22070
857.664	22074
857.797	22101
857.931	22124
858.064	22032
858.197	22242
858.331	21983
858.464	22040
858.597	22051
858.731	22139
858.864	22002
858.997	22120
859.13	22090
859.263	22025
859.396	22188
859.529	22029
859.662	22086
859.795	22086
859.928	22101
860.061	22158
860.194	22223
860.327	22044
860.46	22147
860.592	22158
860.725	22242
860.858	22223
860.99	22158
861.123	21953
861.256	22059
861.388	22143
861.521	22965
861.653	22055
861.786	21895
861.918	21968
862.05	21892
862.183	22059
862.315	22055
862.447	22082
862.58	22051
862.712	21736
862.844	21751
862.976	21861
863.108	21953
863.24	22287
863.372	21793
863.504	21838
863.636	21854
863.768	21762
863.9	21766
864.032	21694
864.164	21724
864.296	21861
864.428	21873
864.559	21743
864.691	21884
864.823	21838
864.954	21793
865.086	21800
865.217	21629
865.349	21595
865.48	21686
865.612	21797
865.743	21789
865.875	21781
866.006	21648
866.137	21679
866.269	21747
866.4	21705
866.531	21633
866.662	21507
866.793	21637
866.924	21603
867.055	21751
867.186	21568
867.317	21523
867.448	21530
867.579	21519
867.71	21504
867.841	21507
867.972	21603
868.103	21583
868.233	21633
868.364	21572
868.495	21808
868.625	21865
868.756	21869
868.886	21808
869.017	21903
869.147	21956
869.278	21968
869.408	21926
869.539	21812
869.669	21922
869.799	21903
869.929	21915
870.06	21960
870.19	22086
870.32	22010
870.45	22200
870.58	22261
870.71	22421
870.84	22280
870.97	22276
871.1	22291
871.23	22428
871.36	22398
871.489	22371
871.619	22489
871.749	22379
871.879	22455
872.008	22550
872.138	22447
872.267	22398
872.397	22436
872.526	22246
872.656	22363
872.785	22268
872.915	22379
873.044	22618
873.173	22569
873.303	22592
873.432	22470
873.561	22584
873.69	22500
873.819	22386
873.948	22447
874.077	22546
874.206	22390
874.335	22508
874.464	22634
874.593	22641
874.722	22656
874.851	22653
874.979	22694
875.108	22771
875.237	22637
875.365	22615
875.494	22649
875.623	22656
875.751	22504
875.88	22721
876.008	22866
876.136	22862
876.265	23033
876.393	23200
876.521	23136
876.65	23200
876.778	23090
876.906	23132
877.034	22930
877.162	23071
877.29	22957
877.418	23105
877.546	23056
877.674	23109
877.802	23143
877.93	23006
878.058	22984
878.185	22915
878.313	22972
878.441	22999
878.568	22854
878.696	22885
878.824	23037
878.951	23102
879.079	23204
879.206	23216
879.333	23170
879.461	23121
879.588	23064
879.715	23105
879.842	23288
879.97	23151
880.097	22702
880.224	22847
880.351	22930
880.478	22881
880.605	22748
880.732	22721
880.859	23014
880.986	22854
881.112	22881
881.239	22713
881.366	22478
881.493	22394
881.619	22417
881.746	22417
881.872	22557
881.999	22421
882.125	22417
882.252	22424
882.378	22382
882.505	22557
882.631	22287
882.757	22150
882.883	22188
883.01	22063
883.136	22086
883.262	21949
883.388	21930
883.514	22265
883.64	22147
883.766	22051
883.892	21778
884.018	21876
884.143	22048
884.269	22086
884.395	21747
884.52	21724
884.646	21732
884.772	21580
884.897	21637
885.023	21778
885.148	21831
885.274	21888
885.399	21873
885.524	21698
885.65	21732
885.775	21816
885.9	21637
886.025	21766
886.15	21827
886.275	21755
886.4	21690
886.525	21595
886.65	21701
886.775	21595
886.9	21846
887.025	21899
887.149	21816
887.274	21542
887.399	21500
887.523	21416
887.648	21424
887.773	21386
887.897	21603
888.021	21496
888.146	21397
888.27	21652
888.395	21545
888.519	21450
888.643	21492
888.767	21553
888.891	21431
889.015	21397
889.139	21370
889.263	21317
889.387	21424
889.511	21469
889.635	21450
889.759	21260
889.883	21268
890.006	21237
890.13	21317
890.254	21142
890.377	21169
890.501	21009
890.624	20998
890.748	21237
890.871	21032
890.995	20906
891.118	20777
891.241	20902
891.364	20899
891.488	20834
891.611	20800
891.734	20834
891.857	21001
891.98	20815
892.103	20887
892.226	20765
892.349	20765
892.471	20613
892.594	20727
892.717	20811
892.839	20720
892.962	20781
893.085	20804
893.207	20773
893.33	20705
893.452	20758
893.575	20823
893.697	20674
893.819	20891
893.941	20979
894.064	20986
894.186	20720
894.308	20697
894.43	20750
894.552	20944
894.674	20788
894.796	20648
894.918	20613
895.04	20636
895.161	20792
895.283	20754
895.405	20750
895.526	20792
895.648	20720
895.769	20701
895.891	20804
896.012	20823
896.134	20693
896.255	20735
896.376	20682
896.498	20781
896.619	20811
896.74	20731
896.861	20769
896.982	21005
897.103	21150
897.224	20948
897.345	20933
897.466	20956
897.587	20956
897.708	21089
897.828	20975
897.949	20975
898.07	20811
898.19	20914
898.311	21089
898.431	20815
898.552	20960
898.672	21024
898.792	21032
898.913	20944
899.033	20811
899.153	20701
899.273	20705
899.393	20716
899.513	20670
899.633	20769
899.753	20720
899.873	20560
899.993	20598
900.113	20727
900.232	20739
900.352	20549
900.472	20590
900.591	20400
900.711	20415
900.83	20362
900.95	20415
901.069	20484
901.189	20267
901.308	20050
901.427	20073
901.546	20039
901.665	20111
901.784	19974
901.904	19906
902.023	19734
902.141	19635
902.26	19609
902.379	19586
902.498	19426
902.617	19460
902.735	19556
902.854	19556
902.973	19441
903.091	19202
903.21	19129
903.328	19156
903.446	19012
903.565	18966
903.683	18867
903.801	18817
903.919	18962
904.038	18783
904.156	18711
904.274	18829
904.392	18768
904.51	18745
904.627	18715
904.745	18715
904.863	18772
904.981	18441
905.098	18357
905.216	18445
905.334	18437
905.451	18509
905.569	18410
905.686	18429
905.803	18380
905.921	18232
906.038	18372
906.155	18209
906.272	18091
906.389	18140
906.506	18053
906.623	18060
906.74	17923
906.857	17824
906.974	17813
907.091	17973
907.208	18110
907.324	17916
907.441	17832
907.557	17676
907.674	17596
907.79	17581
907.907	17608
908.023	17680
908.139	17676
908.256	17653
908.372	17695
908.488	17543
908.604	17482
908.72	17296
908.836	17440
908.952	17292
909.068	17341
909.184	17490
909.3	17383
909.415	17417
909.531	17330
909.647	17132
909.762	17090
909.878	16927
909.993	17064
910.108	16911
910.224	17136
910.339	17014
910.454	16972
910.57	16919
910.685	16839
910.8	17071
910.915	17033
911.03	16866
911.145	16645
911.259	16637
911.374	16721
911.489	16603
911.604	16497
911.718	16371
911.833	16440
911.947	16314
912.062	16158
912.176	16527
912.291	16451
912.405	16478
912.519	16516
912.633	16569
912.748	16428
912.862	16363
912.976	16234
913.09	16040
913.204	16215
913.318	16124
913.431	16287
913.545	16272
913.659	16310
913.772	16158
913.886	16029
914	15968
914.113	16074
914.226	16162
914.34	16032
914.453	15793
914.566	16025
914.68	15899
914.793	15823
914.906	15732
915.019	15682
915.132	15599
915.245	15625
915.358	15603
915.47	15610
915.583	15679
915.696	15633
915.809	15663
915.921	15675
916.034	15454
916.146	15435
916.259	15420
916.371	15610
916.483	15568
916.595	15416
916.708	15416
916.82	15370
916.932	15359
917.044	15401
917.156	15351
917.268	15207
917.38	15313
917.491	15207
917.603	15169
917.715	15298
917.826	15279
917.938	15173
918.049	14998
918.161	15123
918.272	15344
918.384	15355
918.495	15226
918.606	15051
918.717	15047
918.828	14979
918.939	15024
919.05	14834
919.161	14967
919.272	14769
919.383	14800
919.494	14994
919.604	15142
919.715	14986
919.826	14918
919.936	14819
920.047	15028
920.157	14906
920.267	15100
920.378	14876
920.488	14807
920.598	15131
920.708	15230
920.818	15039
920.928	14967
921.038	15264
921.148	15127
921.258	14861
921.368	14807
921.477	14708
921.587	14625
921.697	14556
921.806	14560
921.916	14533
922.025	14404
922.134	14374
922.244	14256
922.353	14305
922.462	14103
922.571	14115
922.68	14050
922.789	13845
922.898	13963
923.007	13818
923.116	14005
923.224	13955
923.333	13925
923.442	13788
923.55	13738
923.659	13772
923.767	13761
923.876	13723
923.984	13734
924.092	13643
924.201	13681
924.309	13674
924.417	13685
924.525	13605
924.633	13567
924.741	14332
924.849	13377
924.956	13529
925.064	13388
925.172	13350
925.279	13327
925.387	13369
925.494	13301
925.602	13552
925.709	13388
925.816	13255
925.924	13217
926.031	13434
926.138	13247
926.245	13308
926.352	13194
926.459	13346
926.566	13316
926.673	13225
926.779	13072
926.886	12985
926.993	12985
927.099	12943
927.206	12829
927.312	12897
927.419	12916
927.525	12795
927.631	12852
927.737	12757
927.843	12764
927.95	12703
928.056	12669
928.162	12707
928.267	12681
928.373	13377
928.479	12711
928.585	12498
928.69	12650
928.796	12715
928.901	12525
929.007	12467
929.112	12483
929.218	12498
929.323	12399
929.428	12384
929.533	12536
929.638	12262
929.743	12376
929.848	12414
929.953	12418
930.058	12254
930.163	12148
930.267	12083
930.372	12273
930.477	12064
930.581	12357
930.685	12129
930.79	11973
930.894	12034
930.998	11920
931.103	12079
931.207	11665
931.311	11676
931.415	11661
931.519	11284
931.623	11322
