Data from test_V78500241_1237.txt Node
Date: Fri Mar 25 15:50:22 CST 2022
User: usil
Spectrometer: V785-0024
Trigger mode: 0
Integration Time (sec): 4.000000E-1
Scans to average: 1
Nonlinearity correction enabled: false
Boxcar width: 0
Storing dark spectrum: false
XAxis mode: Wavelengths
Number of Pixels in Spectrum: 1024
>>>>>Begin Spectral Data<<<<<
801.071	28611
801.214	28523
801.356	28265
801.499	28185
801.641	28303
801.783	28242
801.926	28105
802.068	28105
802.211	28196
802.353	27983
802.496	27903
802.638	27930
802.78	27838
802.923	27743
803.065	27774
803.208	27804
803.35	27759
803.492	27816
803.635	28040
803.777	27918
803.919	28013
804.061	28337
804.204	28226
804.346	28029
804.488	27922
804.63	27968
804.773	27937
804.915	27941
805.057	28131
805.199	28029
805.341	28246
805.483	28154
805.626	28265
805.768	28116
805.91	28162
806.052	28181
806.194	28261
806.336	28398
806.478	28280
806.62	28215
806.762	28417
806.904	28485
807.046	28717
807.188	28698
807.33	28626
807.472	28892
807.614	28630
807.756	28706
807.898	28497
808.04	28462
808.182	28474
808.324	28440
808.465	28641
808.607	28656
808.749	28953
808.891	28980
809.033	28999
809.174	28911
809.316	28949
809.458	28778
809.6	28915
809.741	29166
809.883	29079
810.025	29166
810.166	29288
810.308	29421
810.45	29071
810.591	29178
810.733	28976
810.875	28930
811.016	28812
811.158	28729
811.299	29098
811.441	29128
811.582	29155
811.724	28885
811.865	28949
812.007	28896
812.148	28927
812.29	29018
812.431	29151
812.573	29318
812.714	29360
812.855	29455
812.997	29535
813.138	29653
813.279	29543
813.421	29474
813.562	29273
813.703	29459
813.845	29246
813.986	28980
814.127	28744
814.268	28664
814.41	28577
814.551	28763
814.692	28805
814.833	28565
814.974	28500
815.115	28683
815.256	28424
815.397	28455
815.539	28401
815.68	28371
815.821	28436
815.962	28401
816.103	28546
816.244	28257
816.385	28272
816.526	28093
816.666	28082
816.807	27949
816.948	28082
817.089	28055
817.23	27903
817.371	28002
817.512	27888
817.653	28082
817.793	27857
817.934	28006
818.075	27884
818.216	27956
818.356	27892
818.497	27762
818.638	27644
818.778	27644
818.919	27713
819.06	27876
819.2	27835
819.341	27903
819.481	27956
819.622	28074
819.762	28306
819.903	28249
820.043	28101
820.184	28078
820.324	28185
820.465	28074
820.605	28010
820.746	28025
820.886	27895
821.026	28032
821.167	28021
821.307	28105
821.447	27964
821.588	27930
821.728	27789
821.868	27580
822.008	27618
822.149	27507
822.289	27420
822.429	27180
822.569	27081
822.709	27123
822.849	27020
822.99	27104
823.13	26963
823.27	26906
823.41	26731
823.55	26705
823.69	26762
823.83	26743
823.97	26754
824.11	26541
824.25	26613
824.389	26450
824.529	26724
824.669	26575
824.809	26773
824.949	26701
825.089	26651
825.228	26667
825.368	26495
825.508	26492
825.648	26480
825.787	26651
825.927	26560
826.067	26587
826.206	26453
826.346	26514
826.485	26594
826.625	26400
826.765	26663
826.904	26488
827.044	26301
827.183	26225
827.323	26161
827.462	26278
827.601	26145
827.741	26271
827.88	26233
828.02	26020
828.159	26168
828.298	26111
828.437	26210
828.577	26206
828.716	26282
828.855	26062
828.994	25898
829.134	25871
829.273	26027
829.412	25925
829.551	25940
829.69	26039
829.829	26077
829.968	26054
830.107	25970
830.246	25909
830.385	25803
830.524	25776
830.663	25704
830.802	25639
830.941	25521
831.08	25544
831.219	25681
831.357	25544
831.496	25677
831.635	25381
831.774	25388
831.913	25483
832.051	25297
832.19	25240
832.329	25373
832.467	25209
832.606	25107
832.744	25202
832.883	25156
833.022	25110
833.16	25152
833.299	25213
833.437	25244
833.576	25343
833.714	25175
833.852	25194
833.991	25304
834.129	25213
834.267	25293
834.406	25255
834.544	25308
834.682	25324
834.821	25175
834.959	25438
835.097	25171
835.235	25339
835.373	25190
835.511	25259
835.65	25042
835.788	25118
835.926	25015
836.064	24901
836.202	24783
836.34	25004
836.478	25088
836.615	25103
836.753	25057
836.891	25126
837.029	25160
837.167	24992
837.305	25072
837.443	24992
837.58	24878
837.718	24985
837.856	24772
837.993	24867
838.131	24829
838.269	24696
838.406	24840
838.544	24764
838.681	24544
838.819	24540
838.956	24266
839.094	24338
839.231	24311
839.369	24521
839.506	24608
839.643	24620
839.781	24228
839.918	24292
840.055	24448
840.193	24369
840.33	24258
840.467	24270
840.604	24433
840.742	24540
840.879	24121
841.016	24254
841.153	24053
841.29	24380
841.427	24239
841.564	24285
841.701	24167
841.838	24152
841.975	24304
842.112	24277
842.249	23992
842.385	24030
842.522	24171
842.659	24091
842.796	24060
842.933	23904
843.069	23840
843.206	23950
843.343	24041
843.479	23992
843.616	24049
843.752	23836
843.889	23798
844.025	23942
844.162	23710
844.298	23866
844.435	23817
844.571	23695
844.708	23897
844.844	23969
844.98	23870
845.117	23866
845.253	23687
845.389	23653
845.525	23551
845.661	23573
845.798	23497
845.934	23589
846.07	23512
846.206	23558
846.342	23642
846.478	23459
846.614	23307
846.75	23162
846.886	23277
847.022	23326
847.158	23318
847.294	23143
847.429	23235
847.565	23227
847.701	23406
847.837	22930
847.972	22915
848.108	23018
848.244	23128
848.379	22873
848.515	22790
848.65	22816
848.786	22805
848.921	22782
849.057	23022
849.192	22850
849.328	22915
849.463	22847
849.598	22755
849.734	22687
849.869	22706
850.004	22615
850.14	22683
850.275	22630
850.41	22436
850.545	22485
850.68	22519
850.815	22573
850.95	22569
851.085	22816
851.22	22710
851.355	22675
851.49	22592
851.625	22500
851.76	22607
851.895	22455
852.03	22580
852.165	22588
852.299	22607
852.434	22706
852.569	22615
852.703	22618
852.838	22535
852.973	22683
853.107	22736
853.242	22573
853.376	22451
853.511	22352
853.645	22325
853.78	22421
853.914	22310
854.048	22344
854.183	22443
854.317	22360
854.451	22588
854.585	22379
854.72	22447
854.854	22413
854.988	22421
855.122	22360
855.256	22188
855.39	22310
855.524	22398
855.658	22504
855.792	22341
855.926	22375
856.06	22436
856.194	22508
856.327	22360
856.461	22329
856.595	22405
856.729	22356
856.862	22637
856.996	22382
857.13	22413
857.263	22474
857.397	22580
857.53	22436
857.664	22417
857.797	22375
857.931	22489
858.064	22382
858.197	22504
858.331	22257
858.464	22284
858.597	22329
858.731	22390
858.864	22318
858.997	22253
859.13	22390
859.263	22504
859.396	22516
859.529	22295
859.662	22405
859.795	22268
859.928	22348
860.061	22569
860.194	22618
860.327	22508
860.46	22440
860.592	22603
860.725	22683
860.858	22455
860.99	22470
861.123	22424
861.256	22462
861.388	22500
861.521	23296
861.653	22253
861.786	22173
861.918	22135
862.05	22230
862.183	22360
862.315	22398
862.447	22459
862.58	22356
862.712	22139
862.844	22097
862.976	22310
863.108	22284
863.24	22569
863.372	22181
863.504	22120
863.636	22211
863.768	22154
863.9	22150
864.032	22131
864.164	22093
864.296	22253
864.428	22268
864.559	22223
864.691	22246
864.823	22211
864.954	22105
865.086	22188
865.217	22109
865.349	21922
865.48	21983
865.612	22051
865.743	22223
865.875	22147
866.006	21823
866.137	22074
866.269	22051
866.4	21987
866.531	21911
866.662	22010
866.793	22021
866.924	21876
867.055	21934
867.186	21998
867.317	21850
867.448	21861
867.579	21895
867.71	21930
867.841	21838
867.972	21949
868.103	22021
868.233	22074
868.364	21899
868.495	22013
868.625	22226
868.756	22219
868.886	22109
869.017	22154
869.147	22360
869.278	22253
869.408	22238
869.539	22196
869.669	22265
869.799	22261
869.929	22295
870.06	22329
870.19	22504
870.32	22535
870.45	22588
870.58	22615
870.71	22656
870.84	22634
870.97	22584
871.1	22580
871.23	22805
871.36	22763
871.489	22668
871.619	22748
871.749	22702
871.879	22786
872.008	22824
872.138	22755
872.267	22748
872.397	22687
872.526	22653
872.656	22660
872.785	22649
872.915	22824
873.044	22801
873.173	22831
873.303	22828
873.432	22755
873.561	22908
873.69	22873
873.819	22843
873.948	22786
874.077	22748
874.206	22854
874.335	22683
874.464	22934
874.593	23105
874.722	23025
874.851	23022
874.979	22995
875.108	23048
875.237	22968
875.365	22972
875.494	23033
875.623	23132
875.751	22995
875.88	23075
876.008	22908
876.136	23197
876.265	23478
876.393	23566
876.521	23482
876.65	23600
876.778	23459
876.906	23250
877.034	23433
877.162	23326
877.29	23269
877.418	23349
877.546	23341
877.674	23341
877.802	23353
877.93	23299
878.058	23478
878.185	23322
878.313	23330
878.441	23280
878.568	23105
878.696	23322
878.824	23417
878.951	23387
879.079	23486
879.206	23699
879.333	23406
879.461	23436
879.588	23410
879.715	23433
879.842	23585
879.97	23440
880.097	23326
880.224	23121
880.351	23147
880.478	23170
880.605	23090
880.732	23288
880.859	23440
880.986	23151
881.112	23235
881.239	22999
881.366	22889
881.493	22869
881.619	22797
881.746	22710
881.872	22744
881.999	22736
882.125	22736
882.252	22710
882.378	22664
882.505	22759
882.631	22512
882.757	22398
882.883	22588
883.01	22329
883.136	22398
883.262	22284
883.388	22158
883.514	22390
883.64	22409
883.766	22272
883.892	22124
884.018	22158
884.143	22440
884.269	22428
884.395	22112
884.52	22097
884.646	22010
884.772	22078
884.897	22040
885.023	21911
885.148	22059
885.274	22238
885.399	22105
885.524	21968
885.65	22112
885.775	22010
885.9	22067
886.025	22124
886.15	22086
886.275	22051
886.4	21956
886.525	21979
886.65	21975
886.775	21998
886.9	22040
887.025	22158
887.149	21945
887.274	21930
887.399	21629
887.523	21903
887.648	21747
887.773	21778
887.897	21823
888.021	21816
888.146	21781
888.27	21892
888.395	21876
888.519	21869
888.643	21808
888.767	21865
888.891	21705
889.015	21576
889.139	21705
889.263	21576
889.387	21679
889.511	21789
889.635	21686
889.759	21644
889.883	21603
890.006	21561
890.13	21675
890.254	21462
890.377	21637
890.501	21336
890.624	21275
890.748	21310
890.871	21226
890.995	21188
891.118	21081
891.241	21085
891.364	21249
891.488	21123
891.611	21119
891.734	21157
891.857	21154
891.98	20994
892.103	21127
892.226	21131
892.349	21047
892.471	20921
892.594	21070
892.717	21043
892.839	21009
892.962	21055
893.085	21192
893.207	21104
893.33	21013
893.452	20979
893.575	21001
893.697	21055
893.819	21218
893.941	21176
894.064	21096
894.186	21020
894.308	20899
894.43	21085
894.552	21176
894.674	21108
894.796	20845
894.918	20910
895.04	21039
895.161	21211
895.283	21058
895.405	20960
895.526	21036
895.648	20986
895.769	20963
895.891	21001
896.012	21032
896.134	21104
896.255	20975
896.376	20883
896.498	21062
896.619	21005
896.74	21032
896.861	21135
896.982	21325
897.103	21428
897.224	21173
897.345	21313
897.466	21104
897.587	21131
897.708	21462
897.828	21325
897.949	21165
898.07	21089
898.19	21089
898.311	21199
898.431	21028
898.552	21226
898.672	21401
898.792	21291
898.913	21173
899.033	21070
899.153	20975
899.273	20857
899.393	20868
899.513	21017
899.633	20941
899.753	20990
899.873	20880
899.993	21009
900.113	20830
900.232	20914
900.352	20826
900.472	20781
900.591	20727
900.711	20686
900.83	20632
900.95	20845
901.069	20811
901.189	20389
901.308	20358
901.427	20275
901.546	20218
901.665	20351
901.784	20210
901.904	20073
902.023	20024
902.141	19837
902.26	19784
902.379	19826
902.498	19761
902.617	19719
902.735	19849
902.854	19784
902.973	19693
903.091	19388
903.21	19552
903.328	19525
903.446	19251
903.565	19225
903.683	19293
903.801	19088
903.919	19209
904.038	19164
904.156	19053
904.274	19110
904.392	18989
904.51	18993
904.627	18977
904.745	18970
904.863	19042
904.981	18783
905.098	18608
905.216	18623
905.334	18654
905.451	18681
905.569	18582
905.686	18658
905.803	18654
905.921	18547
906.038	18528
906.155	18551
906.272	18311
906.389	18448
906.506	18064
906.623	18167
906.74	18292
906.857	18216
906.974	18155
907.091	18247
907.208	18311
907.324	18270
907.441	18060
907.557	17908
907.674	17927
907.79	17824
907.907	17882
908.023	17901
908.139	17798
908.256	17836
908.372	17737
908.488	17809
908.604	17661
908.72	17528
908.836	17532
908.952	17512
909.068	17539
909.184	17687
909.3	17630
909.415	17497
909.531	17615
909.647	17322
909.762	17311
909.878	17269
909.993	17406
910.108	17292
910.224	17307
910.339	17242
910.454	17231
910.57	17094
910.685	17056
910.8	17292
910.915	17273
911.03	17048
911.145	16900
911.259	16843
911.374	16736
911.489	16889
911.604	16702
911.718	16592
911.833	16622
911.947	16527
912.062	16447
912.176	16649
912.291	16611
912.405	16694
912.519	16752
912.633	16843
912.748	16660
912.862	16626
912.976	16413
913.09	16333
913.204	16360
913.318	16394
913.431	16440
913.545	16470
913.659	16561
913.772	16428
913.886	16246
914	16181
914.113	16280
914.226	16234
914.34	16280
914.453	16109
914.566	16238
914.68	16082
914.793	15972
914.906	15968
915.019	15816
915.132	15755
915.245	15785
915.358	15759
915.47	15797
915.583	15778
915.696	15823
915.809	15987
915.921	15964
916.034	15732
916.146	15686
916.259	15663
916.371	15865
916.483	15690
916.595	15572
916.708	15656
916.82	15675
916.932	15542
917.044	15622
917.156	15549
917.268	15496
917.38	15542
917.491	15408
917.603	15458
917.715	15530
917.826	15488
917.938	15382
918.049	15272
918.161	15408
918.272	15599
918.384	15443
918.495	15401
918.606	15233
918.717	15150
918.828	15325
918.939	15268
919.05	15169
919.161	15226
919.272	15020
919.383	15051
919.494	15138
919.604	15363
919.715	15131
919.826	15028
919.936	15127
920.047	15192
920.157	15089
920.267	15272
920.378	15249
920.488	15222
920.598	15325
920.708	15443
920.818	15165
920.928	15252
921.038	15408
921.148	15313
921.258	15138
921.368	14963
921.477	14887
921.587	14876
921.697	14712
921.806	14861
921.916	14731
922.025	14537
922.134	14434
922.244	14454
922.353	14492
922.462	14423
922.571	14347
922.68	14157
922.789	14050
922.898	14050
923.007	14027
923.116	14115
923.224	14024
923.333	14088
923.442	13955
923.55	14027
923.659	14058
923.767	13970
923.876	13887
923.984	13959
924.092	13776
924.201	13940
924.309	13837
924.417	13864
924.525	13731
924.633	13811
924.741	14727
924.849	13620
924.956	13662
925.064	13586
925.172	13434
925.279	13457
925.387	13518
925.494	13533
925.602	13613
925.709	13495
925.816	13422
925.924	13369
926.031	13544
926.138	13441
926.245	13597
926.352	13320
926.459	13384
926.566	13487
926.673	13400
926.779	13285
926.886	13129
926.993	13118
927.099	13038
927.206	13008
927.312	12962
927.419	13156
927.525	13076
927.631	13110
927.737	12932
927.843	12821
927.95	12859
928.056	12829
928.162	12913
928.267	12985
928.373	13544
928.479	12913
928.585	12696
928.69	12814
928.796	12859
928.901	12814
929.007	12585
929.112	12779
929.218	12642
929.323	12597
929.428	12627
929.533	12719
929.638	12502
929.743	12616
929.848	12559
929.953	12639
930.058	12452
930.163	12277
930.267	12300
930.372	12448
930.477	12194
930.581	12437
930.685	12273
930.79	12155
930.894	12190
930.998	12106
931.103	12175
931.207	11885
931.311	11836
931.415	11760
931.519	11497
931.623	11478
