Data from test_V78500241_3553.txt Node
Date: Fri Mar 25 16:06:24 CST 2022
User: usil
Spectrometer: V785-0024
Trigger mode: 0
Integration Time (sec): 4.000000E-1
Scans to average: 1
Nonlinearity correction enabled: false
Boxcar width: 0
Storing dark spectrum: false
XAxis mode: Wavelengths
Number of Pixels in Spectrum: 1024
>>>>>Begin Spectral Data<<<<<
801.071	28877
801.214	28927
801.356	28641
801.499	28660
801.641	28519
801.783	28344
801.926	28550
802.068	28451
802.211	28527
802.353	28493
802.496	28272
802.638	28363
802.78	28188
802.923	28074
803.065	28082
803.208	28287
803.35	28306
803.492	28379
803.635	28542
803.777	28223
803.919	28462
804.061	28637
804.204	28493
804.346	28459
804.488	28417
804.63	28428
804.773	28428
804.915	28546
805.057	28645
805.199	28478
805.341	28535
805.483	28622
805.626	28557
805.768	28550
805.91	28565
806.052	28683
806.194	28481
806.336	28752
806.478	28573
806.62	28744
806.762	28729
806.904	28942
807.046	29235
807.188	29037
807.33	29067
807.472	29140
807.614	29014
807.756	29086
807.898	29064
808.04	28896
808.182	28930
808.324	28733
808.465	28835
808.607	29181
808.749	29349
808.891	29398
809.033	29581
809.174	29155
809.316	29414
809.458	29307
809.6	29315
809.741	29280
809.883	29318
810.025	29596
810.166	29634
810.308	29570
810.45	29452
810.591	29570
810.733	29524
810.875	29440
811.016	29334
811.158	29375
811.299	29558
811.441	29436
811.582	29573
811.724	29356
811.865	29322
812.007	29452
812.148	29318
812.29	29433
812.431	29524
812.573	29657
812.714	29824
812.855	29889
812.997	29889
813.138	29999
813.279	30011
813.421	29950
813.562	29843
813.703	29684
813.845	29570
813.986	29414
814.127	29181
814.268	29086
814.41	29121
814.551	28957
814.692	29056
814.833	29136
814.974	29071
815.115	29075
815.256	28965
815.397	28957
815.539	29003
815.68	28752
815.821	28805
815.962	28866
816.103	28900
816.244	28755
816.385	28592
816.526	28679
816.666	28459
816.807	28352
816.948	28428
817.089	28519
817.23	28265
817.371	28516
817.512	28287
817.653	28394
817.793	28337
817.934	28363
818.075	28325
818.216	28447
818.356	28276
818.497	28219
818.638	28078
818.778	28124
818.919	28318
819.06	28261
819.2	28257
819.341	28299
819.481	28531
819.622	28554
819.762	28736
819.903	28660
820.043	28478
820.184	28478
820.324	28542
820.465	28569
820.605	28531
820.746	28500
820.886	28371
821.026	28481
821.167	28390
821.307	28557
821.447	28417
821.588	28325
821.728	28367
821.868	28029
822.008	28044
822.149	27812
822.289	27865
822.429	27671
822.569	27591
822.709	27450
822.849	27431
822.99	27485
823.13	27367
823.27	27264
823.41	27256
823.55	26994
823.69	27207
823.83	27161
823.97	27199
824.11	27051
824.25	27077
824.389	27043
824.529	27047
824.669	27108
824.809	27192
824.949	27192
825.089	27218
825.228	26990
825.368	26861
825.508	26838
825.648	27005
825.787	26944
825.927	26940
826.067	26864
826.206	26963
826.346	26925
826.485	26948
826.625	26853
826.765	27001
826.904	26956
827.044	26762
827.183	26579
827.323	26632
827.462	26697
827.601	26651
827.741	26682
827.88	26617
828.02	26450
828.159	26545
828.298	26667
828.437	26743
828.577	26640
828.716	26705
828.855	26549
828.994	26320
829.134	26347
829.273	26438
829.412	26328
829.551	26294
829.69	26248
829.829	26275
829.968	26484
830.107	26419
830.246	26404
830.385	26305
830.524	26202
830.663	26202
830.802	25966
830.941	25986
831.08	25944
831.219	26107
831.357	26149
831.496	26119
831.635	26005
831.774	25970
831.913	25868
832.051	25674
832.19	25696
832.329	25700
832.467	25628
832.606	25533
832.744	25609
832.883	25616
833.022	25548
833.16	25594
833.299	25605
833.437	25681
833.576	25769
833.714	25639
833.852	25605
833.991	25651
834.129	25753
834.267	25784
834.406	25639
834.544	25628
834.682	25708
834.821	25712
834.959	25997
835.097	25609
835.235	25727
835.373	25693
835.511	25571
835.65	25620
835.788	25597
835.926	25365
836.064	25289
836.202	25384
836.34	25445
836.478	25635
836.615	25567
836.753	25453
836.891	25434
837.029	25529
837.167	25339
837.305	25396
837.443	25369
837.58	25293
837.718	25430
837.856	25339
837.993	25179
838.131	25263
838.269	25137
838.406	25327
838.544	25171
838.681	24947
838.819	24939
838.956	24882
839.094	24810
839.231	24863
839.369	24951
839.506	25137
839.643	24970
839.781	24711
839.918	24768
840.055	24844
840.193	24707
840.33	24673
840.467	24673
840.604	24768
840.742	24882
840.879	24604
841.016	24642
841.153	24456
841.29	24772
841.427	24650
841.564	24616
841.701	24684
841.838	24760
841.975	24772
842.112	24627
842.249	24456
842.385	24574
842.522	24791
842.659	24513
842.796	24665
842.933	24410
843.069	24357
843.206	24273
843.343	24426
843.479	24452
843.616	24395
843.752	24194
843.889	24140
844.025	24258
844.162	24190
844.298	24205
844.435	24277
844.571	24216
844.708	24308
844.844	24334
844.98	24380
845.117	24197
845.253	24152
845.389	24194
845.525	24095
845.661	24034
845.798	23988
845.934	24003
846.07	23859
846.206	23942
846.342	24007
846.478	23916
846.614	23684
846.75	23615
846.886	23741
847.022	23779
847.158	23752
847.294	23859
847.429	23707
847.565	23608
847.701	23996
847.837	23307
847.972	23387
848.108	23417
848.244	23455
848.379	23315
848.515	23284
848.65	23155
848.786	23235
848.921	23220
849.057	23402
849.192	23299
849.328	23227
849.463	23200
849.598	23227
849.734	23147
849.869	23067
850.004	22961
850.14	23098
850.275	23010
850.41	22987
850.545	22984
850.68	22923
850.815	23060
850.95	22999
851.085	23197
851.22	23083
851.355	23044
851.49	23018
851.625	23037
851.76	22942
851.895	22877
852.03	22896
852.165	22984
852.299	23003
852.434	23006
852.569	23052
852.703	22953
852.838	23124
852.973	23216
853.107	23166
853.242	22938
853.376	22885
853.511	22622
853.645	22782
853.78	22854
853.914	22885
854.048	22824
854.183	22687
854.317	22809
854.451	22908
854.585	22782
854.72	22919
854.854	22828
854.988	22839
855.122	22889
855.256	22744
855.39	22809
855.524	22835
855.658	22892
855.792	22847
855.926	22786
856.06	22877
856.194	22828
856.327	22767
856.461	22778
856.595	22733
856.729	22733
856.862	22885
856.996	22946
857.13	22896
857.263	22942
857.397	22980
857.53	22736
857.664	22805
857.797	22873
857.931	22953
858.064	22847
858.197	22942
858.331	22767
858.464	22710
858.597	22672
858.731	22778
858.864	22938
858.997	22816
859.13	22816
859.263	22778
859.396	22889
859.529	22774
859.662	22759
859.795	22790
859.928	22831
860.061	22949
860.194	23041
860.327	22873
860.46	22900
860.592	22968
860.725	23067
860.858	23022
860.99	22873
861.123	22782
861.256	22763
861.388	22889
861.521	23452
861.653	22668
861.786	22630
861.918	22679
862.05	22736
862.183	22698
862.315	22809
862.447	22812
862.58	22664
862.712	22500
862.844	22424
862.976	22717
863.108	22592
863.24	22995
863.372	22588
863.504	22546
863.636	22470
863.768	22512
863.9	22462
864.032	22557
864.164	22508
864.296	22577
864.428	22626
864.559	22592
864.691	22717
864.823	22516
864.954	22455
865.086	22455
865.217	22447
865.349	22291
865.48	22325
865.612	22322
865.743	22497
865.875	22478
866.006	22436
866.137	22417
866.269	22428
866.4	22367
866.531	22405
866.662	22284
866.793	22337
866.924	22261
867.055	22185
867.186	22318
867.317	22284
867.448	22166
867.579	22261
867.71	22253
867.841	22246
867.972	22322
868.103	22238
868.233	22272
868.364	22459
868.495	22462
868.625	22615
868.756	22797
868.886	22584
869.017	22557
869.147	22569
869.278	22698
869.408	22584
869.539	22584
869.669	22618
869.799	22641
869.929	22672
870.06	22786
870.19	22991
870.32	22831
870.45	22900
870.58	23132
870.71	23170
870.84	23064
870.97	23086
871.1	22934
871.23	23109
871.36	23014
871.489	23094
871.619	23071
871.749	23193
871.879	23212
872.008	23242
872.138	23216
872.267	23174
872.397	23067
872.526	22968
872.656	23037
872.785	23090
872.915	23189
873.044	23212
873.173	23121
873.303	23185
873.432	23395
873.561	23318
873.69	23235
873.819	23178
873.948	23216
874.077	23151
874.206	23197
874.335	23140
874.464	23246
874.593	23448
874.722	23223
874.851	23372
874.979	23376
875.108	23474
875.237	23356
875.365	23368
875.494	23398
875.623	23455
875.751	23349
875.88	23356
876.008	23585
876.136	23463
876.265	23779
876.393	23817
876.521	23870
876.65	23790
876.778	23897
876.906	23718
877.034	23752
877.162	23661
877.29	23691
877.418	23729
877.546	23714
877.674	23760
877.802	23718
877.93	23756
878.058	23714
878.185	23619
878.313	23691
878.441	23764
878.568	23474
878.696	23566
878.824	23665
878.951	23920
879.079	23843
879.206	23980
879.333	23908
879.461	23798
879.588	23798
879.715	23866
879.842	24018
879.97	23817
880.097	23687
880.224	23509
880.351	23596
880.478	23570
880.605	23528
880.732	23570
880.859	23714
880.986	23661
881.112	23531
881.239	23334
881.366	23258
881.493	23185
881.619	22980
881.746	23064
881.872	23109
881.999	23105
882.125	23014
882.252	23067
882.378	23037
882.505	23044
882.631	22820
882.757	22713
882.883	22873
883.01	22778
883.136	22691
883.262	22630
883.388	22596
883.514	22782
883.64	22809
883.766	22672
883.892	22493
884.018	22527
884.143	22725
884.269	22752
884.395	22493
884.52	22421
884.646	22306
884.772	22200
884.897	22325
885.023	22519
885.148	22519
885.274	22615
885.399	22577
885.524	22470
885.65	22413
885.775	22405
885.9	22322
886.025	22519
886.15	22478
886.275	22253
886.4	22348
886.525	22424
886.65	22299
886.775	22379
886.9	22557
887.025	22527
887.149	22295
887.274	22337
887.399	22181
887.523	22124
887.648	22143
887.773	22036
887.897	22265
888.021	22284
888.146	22059
888.27	22322
888.395	22177
888.519	22162
888.643	22116
888.767	22246
888.891	22070
889.015	21956
889.139	21956
889.263	21922
889.387	21956
889.511	22124
889.635	22181
889.759	21972
889.883	21854
890.006	21880
890.13	22074
890.254	21800
890.377	21865
890.501	21797
890.624	21610
890.748	21804
890.871	21549
890.995	21580
891.118	21405
891.241	21511
891.364	21595
891.488	21618
891.611	21408
891.734	21595
891.857	21553
891.98	21526
892.103	21587
892.226	21473
892.349	21435
892.471	21294
892.594	21302
892.717	21397
892.839	21378
892.962	21397
893.085	21431
893.207	21393
893.33	21317
893.452	21283
893.575	21355
893.697	21310
893.819	21511
893.941	21603
894.064	21542
894.186	21283
894.308	21382
894.43	21439
894.552	21431
894.674	21485
894.796	21363
894.918	21382
895.04	21283
895.161	21359
895.283	21367
895.405	21203
895.526	21317
895.648	21348
895.769	21443
895.891	21355
896.012	21424
896.134	21344
896.255	21370
896.376	21389
896.498	21412
896.619	21291
896.74	21336
896.861	21538
896.982	21770
897.103	21781
897.224	21637
897.345	21679
897.466	21469
897.587	21500
897.708	21686
897.828	21500
897.949	21500
898.07	21325
898.19	21523
898.311	21717
898.431	21336
898.552	21492
898.672	21641
898.792	21507
898.913	21652
899.033	21401
899.153	21435
899.273	21192
899.393	21127
899.513	21306
899.633	21348
899.753	21374
899.873	21264
899.993	21268
900.113	21222
900.232	21298
900.352	21245
900.472	21020
900.591	20979
900.711	21146
900.83	20960
900.95	21062
901.069	21112
901.189	20876
901.308	20667
901.427	20552
901.546	20590
901.665	20617
901.784	20663
901.904	20522
902.023	20332
902.141	20199
902.26	20214
902.379	20225
902.498	20134
902.617	19978
902.735	20050
902.854	20008
902.973	19959
903.091	19715
903.21	19788
903.328	19902
903.446	19715
903.565	19552
903.683	19548
903.801	19407
903.919	19556
904.038	19518
904.156	19384
904.274	19392
904.392	19183
904.51	19343
904.627	19270
904.745	19266
904.863	19343
904.981	19046
905.098	18913
905.216	19050
905.334	18966
905.451	18943
905.569	18829
905.686	18970
905.803	18928
905.921	18715
906.038	18989
906.155	18764
906.272	18627
906.389	18681
906.506	18448
906.623	18555
906.74	18551
906.857	18448
906.974	18372
907.091	18467
907.208	18608
907.324	18475
907.441	18448
907.557	18376
907.674	18117
907.79	18251
907.907	18133
908.023	18163
908.139	18152
908.256	18174
908.372	18095
908.488	18133
908.604	17901
908.72	17863
908.836	18007
908.952	17870
909.068	18019
909.184	17973
909.3	17851
909.415	17931
909.531	17954
909.647	17627
909.762	17668
909.878	17646
909.993	17581
910.108	17562
910.224	17509
910.339	17528
910.454	17376
910.57	17364
910.685	17395
910.8	17573
910.915	17444
911.03	17436
911.145	17311
911.259	17223
911.374	17227
911.489	17117
911.604	17102
911.718	16919
911.833	16991
911.947	16828
912.062	16782
912.176	16915
912.291	16938
912.405	16968
912.519	17124
912.633	17064
912.748	17018
912.862	16824
912.976	16710
913.09	16637
913.204	16774
913.318	16668
913.431	16805
913.545	16828
913.659	16725
913.772	16687
913.886	16538
914	16459
914.113	16748
914.226	16672
914.34	16519
914.453	16428
914.566	16497
914.68	16436
914.793	16310
914.906	16086
915.019	16093
915.132	16063
915.245	16071
915.358	16207
915.47	16162
915.583	16071
915.696	16120
915.809	16090
915.921	16265
916.034	16010
916.146	15960
916.259	15949
916.371	16105
916.483	16071
916.595	15941
916.708	15964
916.82	15895
916.932	15903
917.044	15819
917.156	15823
917.268	15660
917.38	15781
917.491	15728
917.603	15766
917.715	15724
917.826	15816
917.938	15625
918.049	15591
918.161	15660
918.272	15743
918.384	15671
918.495	15625
918.606	15542
918.717	15370
918.828	15481
918.939	15473
919.05	15287
919.161	15420
919.272	15203
919.383	15313
919.494	15443
919.604	15614
919.715	15351
919.826	15351
919.936	15397
920.047	15428
920.157	15564
920.267	15553
920.378	15378
920.488	15386
920.598	15511
920.708	15778
920.818	15595
920.928	15473
921.038	15671
921.148	15610
921.258	15382
921.368	15214
921.477	15058
921.587	15157
921.697	14994
921.806	15085
921.916	14910
922.025	14762
922.134	14640
922.244	14788
922.353	14849
922.462	14606
922.571	14469
922.68	14385
922.789	14374
922.898	14396
923.007	14336
923.116	14362
923.224	14320
923.333	14374
923.442	14206
923.55	14195
923.659	14259
923.767	14336
923.876	14088
923.984	14229
924.092	14046
924.201	14145
924.309	14233
924.417	14107
924.525	14123
924.633	13940
924.741	14963
924.849	13871
924.956	13894
925.064	13765
925.172	13677
925.279	13715
925.387	13731
925.494	13757
925.602	13845
925.709	13746
925.816	13643
925.924	13685
926.031	13765
926.138	13571
926.245	13772
926.352	13616
926.459	13734
926.566	13738
926.673	13636
926.779	13327
926.886	13441
926.993	13400
927.099	13282
927.206	13263
927.312	13206
927.419	13293
927.525	13255
927.631	13301
927.737	13149
927.843	13171
927.95	12996
928.056	13126
928.162	13084
928.267	13110
928.373	13784
928.479	13198
928.585	12935
928.69	13080
928.796	12977
928.901	12928
929.007	12776
929.112	12939
929.218	12951
929.323	12856
929.428	12768
929.533	12859
929.638	12703
929.743	12696
929.848	12795
929.953	12662
930.058	12658
930.163	12464
930.267	12498
930.372	12597
930.477	12369
930.581	12635
930.685	12509
930.79	12270
930.894	12403
930.998	12289
931.103	12479
931.207	12163
931.311	12091
931.415	11942
931.519	11779
931.623	11684
