Data from test_V78500241_213.txt Node
Date: Fri Mar 25 15:43:16 CST 2022
User: usil
Spectrometer: V785-0024
Trigger mode: 0
Integration Time (sec): 4.000000E-1
Scans to average: 1
Nonlinearity correction enabled: false
Boxcar width: 0
Storing dark spectrum: false
XAxis mode: Wavelengths
Number of Pixels in Spectrum: 1024
>>>>>Begin Spectral Data<<<<<
801.071	29775
801.214	29775
801.356	29604
801.499	29448
801.641	29455
801.783	29387
801.926	29440
802.068	29288
802.211	29223
802.353	29147
802.496	29132
802.638	28995
802.78	28949
802.923	28995
803.065	28976
803.208	28877
803.35	29121
803.492	29056
803.635	29303
803.777	29079
803.919	29372
804.061	29452
804.204	29231
804.346	29102
804.488	29083
804.63	29102
804.773	28927
804.915	29064
805.057	29212
805.199	29086
805.341	29261
805.483	29128
805.626	29178
805.768	29193
805.91	29189
806.052	29356
806.194	29284
806.336	29535
806.478	29364
806.62	29292
806.762	29337
806.904	29467
807.046	29874
807.188	29661
807.33	29661
807.472	29813
807.614	29562
807.756	29596
807.898	29425
808.04	29539
808.182	29501
808.324	29455
808.465	29516
808.607	29661
808.749	29767
808.891	29904
809.033	30159
809.174	29935
809.316	29885
809.458	29859
809.6	29805
809.741	29878
809.883	30038
810.025	30015
810.166	30201
810.308	30003
810.45	30060
810.591	30022
810.733	29961
810.875	29798
811.016	29608
811.158	29790
811.299	29920
811.441	30026
811.582	29916
811.724	29931
811.865	29737
812.007	29718
812.148	29665
812.29	29965
812.431	30060
812.573	30159
812.714	30174
812.855	30319
812.997	30467
813.138	30528
813.279	30388
813.421	30346
813.562	30270
813.703	30178
813.845	29977
813.986	29684
814.127	29608
814.268	29459
814.41	29474
814.551	29490
814.692	29604
814.833	29448
814.974	29296
815.115	29421
815.256	29258
815.397	29208
815.539	29288
815.68	29170
815.821	29143
815.962	29387
816.103	29147
816.244	29117
816.385	28987
816.526	28873
816.666	28717
816.807	28725
816.948	28683
817.089	28797
817.23	28641
817.371	28672
817.512	28630
817.653	28592
817.793	28607
817.934	28557
818.075	28615
818.216	28599
818.356	28554
818.497	28519
818.638	28295
818.778	28341
818.919	28265
819.06	28447
819.2	28371
819.341	28478
819.481	28512
819.622	28717
819.762	29025
819.903	28812
820.043	28736
820.184	28774
820.324	28630
820.465	28713
820.605	28637
820.746	28603
820.886	28504
821.026	28596
821.167	28481
821.307	28683
821.447	28516
821.588	28500
821.728	28215
821.868	28306
822.008	27945
822.149	27964
822.289	27857
822.429	27743
822.569	27694
822.709	27561
822.849	27542
822.99	27507
823.13	27389
823.27	27427
823.41	27131
823.55	27184
823.69	27367
823.83	27237
823.97	27222
824.11	27135
824.25	27176
824.389	27119
824.529	27207
824.669	26868
824.809	27150
824.949	27173
825.089	27100
825.228	27150
825.368	26998
825.508	26853
825.648	26933
825.787	26914
825.927	26921
826.067	26830
826.206	26986
826.346	26963
826.485	26914
826.625	27024
826.765	26990
826.904	26998
827.044	26743
827.183	26648
827.323	26552
827.462	26530
827.601	26708
827.741	26530
827.88	26606
828.02	26480
828.159	26552
828.298	26404
828.437	26549
828.577	26469
828.716	26533
828.855	26393
828.994	26286
829.134	26077
829.273	26176
829.412	26225
829.551	26176
829.69	26214
829.829	26259
829.968	26263
830.107	26248
830.246	26157
830.385	26233
830.524	26157
830.663	26077
830.802	25784
830.941	25799
831.08	25624
831.219	25978
831.357	25822
831.496	25963
831.635	25803
831.774	25712
831.913	25597
832.051	25552
832.19	25499
832.329	25537
832.467	25415
832.606	25388
832.744	25430
832.883	25533
833.022	25506
833.16	25388
833.299	25518
833.437	25491
833.576	25529
833.714	25472
833.852	25537
833.991	25499
834.129	25499
834.267	25491
834.406	25422
834.544	25453
834.682	25350
834.821	25407
834.959	25533
835.097	25346
835.235	25369
835.373	25365
835.511	25316
835.65	25255
835.788	25358
835.926	25183
836.064	24962
836.202	25069
836.34	25194
836.478	25324
836.615	25236
836.753	25244
836.891	25278
837.029	25320
837.167	25198
837.305	25198
837.443	25076
837.58	25091
837.718	25069
837.856	25137
837.993	24981
838.131	25099
838.269	24894
838.406	24951
838.544	24802
838.681	24661
838.819	24631
838.956	24475
839.094	24494
839.231	24597
839.369	24597
839.506	24848
839.643	24639
839.781	24452
839.918	24566
840.055	24429
840.193	24277
840.33	24235
840.467	24258
840.604	24342
840.742	24673
840.879	24327
841.016	24262
841.153	24304
841.29	24353
841.427	24357
841.564	24353
841.701	24258
841.838	24224
841.975	24338
842.112	24258
842.249	24110
842.385	24144
842.522	24163
842.659	24049
842.796	24003
842.933	23950
843.069	23923
843.206	23923
843.343	24057
843.479	23908
843.616	24034
843.752	23691
843.889	23638
844.025	23901
844.162	23737
844.298	23863
844.435	23672
844.571	23653
844.708	23794
844.844	23851
844.98	23939
845.117	23786
845.253	23665
845.389	23672
845.525	23722
845.661	23539
845.798	23486
845.934	23421
846.07	23402
846.206	23330
846.342	23543
846.478	23334
846.614	23197
846.75	23185
846.886	23170
847.022	23174
847.158	23132
847.294	23094
847.429	23143
847.565	23128
847.701	23284
847.837	22953
847.972	22850
848.108	22930
848.244	23052
848.379	22778
848.515	22702
848.65	22653
848.786	22717
848.921	22557
849.057	22778
849.192	22790
849.328	22809
849.463	22759
849.598	22759
849.734	22683
849.869	22580
850.004	22489
850.14	22459
850.275	22424
850.41	22409
850.545	22291
850.68	22360
850.815	22398
850.95	22402
851.085	22694
851.22	22508
851.355	22466
851.49	22451
851.625	22413
851.76	22428
851.895	22371
852.03	22428
852.165	22504
852.299	22504
852.434	22440
852.569	22523
852.703	22382
852.838	22481
852.973	22535
853.107	22459
853.242	22344
853.376	22386
853.511	22090
853.645	22207
853.78	22367
853.914	22337
854.048	22253
854.183	22238
854.317	22314
854.451	22394
854.585	22188
854.72	22223
854.854	22344
854.988	22158
855.122	22150
855.256	22055
855.39	22097
855.524	22249
855.658	22238
855.792	22276
855.926	22325
856.06	22200
856.194	22424
856.327	22379
856.461	22185
856.595	22162
856.729	22207
856.862	22322
856.996	22192
857.13	22265
857.263	22257
857.397	22390
857.53	22185
857.664	22242
857.797	22325
857.931	22276
858.064	22207
858.197	22280
858.331	22109
858.464	22124
858.597	22051
858.731	22257
858.864	22093
858.997	22070
859.13	22082
859.263	22169
859.396	22341
859.529	22036
859.662	22158
859.795	22120
859.928	22265
860.061	22299
860.194	22371
860.327	22177
860.46	22143
860.592	22272
860.725	22253
860.858	22261
860.99	22265
861.123	22070
861.256	22139
861.388	22093
861.521	22713
861.653	22055
861.786	22025
861.918	22010
862.05	22135
862.183	22143
862.315	22166
862.447	22226
862.58	22025
862.712	21998
862.844	21804
862.976	21941
863.108	22051
863.24	22207
863.372	21876
863.504	21934
863.636	21880
863.768	21804
863.9	21892
864.032	21736
864.164	21895
864.296	21800
864.428	21937
864.559	22013
864.691	21899
864.823	21865
864.954	21770
865.086	21869
865.217	21823
865.349	21534
865.48	21850
865.612	21747
865.743	21739
865.875	21823
866.006	21713
866.137	21819
866.269	21819
866.4	21660
866.531	21694
866.662	21580
866.793	21671
866.924	21652
867.055	21641
867.186	21671
867.317	21720
867.448	21625
867.579	21625
867.71	21637
867.841	21583
867.972	21660
868.103	21648
868.233	21633
868.364	21770
868.495	21743
868.625	21964
868.756	21987
868.886	21819
869.017	21850
869.147	21922
869.278	21968
869.408	22002
869.539	21835
869.669	21972
869.799	21915
869.929	22013
870.06	21972
870.19	22188
870.32	22181
870.45	22192
870.58	22295
870.71	22489
870.84	22402
870.97	22325
871.1	22188
871.23	22394
871.36	22497
871.489	22295
871.619	22504
871.749	22344
871.879	22523
872.008	22565
872.138	22516
872.267	22428
872.397	22337
872.526	22265
872.656	22238
872.785	22314
872.915	22447
873.044	22580
873.173	22443
873.303	22516
873.432	22561
873.561	22557
873.69	22455
873.819	22421
873.948	22557
874.077	22459
874.206	22478
874.335	22500
874.464	22645
874.593	22672
874.722	22733
874.851	22858
874.979	22752
875.108	22843
875.237	22736
875.365	22694
875.494	22691
875.623	22797
875.751	22611
875.88	22812
876.008	22858
876.136	22828
876.265	23204
876.393	23296
876.521	23250
876.65	23239
876.778	23086
876.906	22995
877.034	22987
877.162	23155
877.29	23037
877.418	23090
877.546	23124
877.674	23109
877.802	23044
877.93	23102
878.058	23109
878.185	22839
878.313	22984
878.441	23033
878.568	22915
878.696	23056
878.824	23109
878.951	23254
879.079	23071
879.206	23356
879.333	23242
879.461	23044
879.588	23193
879.715	23212
879.842	23337
879.97	23102
880.097	22919
880.224	22953
880.351	22957
880.478	22885
880.605	22854
880.732	22828
880.859	23254
880.986	22919
881.112	22767
881.239	22908
881.366	22592
881.493	22493
881.619	22538
881.746	22550
881.872	22428
881.999	22478
882.125	22417
882.252	22569
882.378	22497
882.505	22599
882.631	22379
882.757	22318
882.883	22253
883.01	22230
883.136	22128
883.262	22032
883.388	22051
883.514	22162
883.64	22219
883.766	22109
883.892	21934
884.018	21918
884.143	22010
884.269	22177
884.395	21633
884.52	21774
884.646	21854
884.772	21663
884.897	21701
885.023	21915
885.148	21854
885.274	21941
885.399	21918
885.524	21800
885.65	21770
885.775	21888
885.9	21808
886.025	21797
886.15	21850
886.275	21781
886.4	21812
886.525	21789
886.65	21610
886.775	21637
886.9	21838
887.025	21888
887.149	21667
887.274	21378
887.399	21545
887.523	21473
887.648	21450
887.773	21370
887.897	21504
888.021	21568
888.146	21485
888.27	21682
888.395	21660
888.519	21526
888.643	21469
888.767	21561
888.891	21363
889.015	21348
889.139	21454
889.263	21249
889.387	21492
889.511	21443
889.635	21420
889.759	21264
889.883	21199
890.006	21351
890.13	21435
890.254	21260
890.377	21169
890.501	21066
890.624	20998
890.748	21104
890.871	20868
890.995	21024
891.118	20838
891.241	20929
891.364	20960
891.488	20948
891.611	20880
891.734	20868
891.857	20941
891.98	20872
892.103	20910
892.226	20739
892.349	20758
892.471	20613
892.594	20796
892.717	20845
892.839	20762
892.962	20777
893.085	20781
893.207	20697
893.33	20693
893.452	20659
893.575	20823
893.697	20823
893.819	20952
893.941	21020
894.064	20887
894.186	20720
894.308	20640
894.43	20781
894.552	20929
894.674	20758
894.796	20651
894.918	20636
895.04	20739
895.161	20891
895.283	20739
895.405	20781
895.526	20682
895.648	20674
895.769	20746
895.891	20754
896.012	20868
896.134	20899
896.255	20754
896.376	20686
896.498	20724
896.619	20792
896.74	20849
896.861	20872
896.982	21112
897.103	21131
897.224	21127
897.345	21017
897.466	20960
897.587	20963
897.708	21062
897.828	21032
897.949	20842
898.07	20842
898.19	20891
898.311	21013
898.431	20842
898.552	21005
898.672	21024
898.792	20971
898.913	20956
899.033	20777
899.153	20693
899.273	20667
899.393	20708
899.513	20868
899.633	20701
899.753	20583
899.873	20549
899.993	20613
900.113	20575
900.232	20606
900.352	20625
900.472	20484
900.591	20393
900.711	20355
900.83	20332
900.95	20537
901.069	20522
901.189	20377
901.308	19989
901.427	19989
901.546	20073
901.665	20035
901.784	20012
901.904	19830
902.023	19818
902.141	19556
902.26	19510
902.379	19609
902.498	19533
902.617	19403
902.735	19472
902.854	19365
902.973	19419
903.091	19187
903.21	19084
903.328	19183
903.446	19057
903.565	18966
903.683	18909
903.801	18825
903.919	18817
904.038	18875
904.156	18688
904.274	18867
904.392	18566
904.51	18601
904.627	18658
904.745	18631
904.863	18707
904.981	18498
905.098	18422
905.216	18232
905.334	18365
905.451	18369
905.569	18266
905.686	18304
905.803	18296
905.921	18186
906.038	18228
906.155	18136
906.272	17977
906.389	18030
906.506	17878
906.623	17878
906.74	17828
906.857	17745
906.974	17680
907.091	17920
907.208	17999
907.324	17969
907.441	17710
907.557	17676
907.674	17558
907.79	17535
907.907	17478
908.023	17623
908.139	17482
908.256	17417
908.372	17379
908.488	17459
908.604	17345
908.72	17220
908.836	17356
908.952	17181
909.068	17284
909.184	17341
909.3	17246
909.415	17254
909.531	17075
909.647	17147
909.762	16972
909.878	16862
909.993	16938
910.108	16915
910.224	16892
910.339	16908
910.454	16892
910.57	16733
910.685	16641
910.8	16927
910.915	16911
911.03	16698
911.145	16523
911.259	16561
911.374	16573
911.489	16538
911.604	16424
911.718	16215
911.833	16371
911.947	16246
912.062	16188
912.176	16257
912.291	16226
912.405	16253
912.519	16421
912.633	16337
912.748	16173
912.862	16169
912.976	16093
913.09	15945
913.204	16051
913.318	16059
913.431	16120
913.545	16169
913.659	16090
913.772	16010
913.886	15888
914	15766
914.113	15903
914.226	15903
914.34	15899
914.453	15728
914.566	15781
914.68	15679
914.793	15709
914.906	15564
915.019	15477
915.132	15336
915.245	15458
915.358	15416
915.47	15488
915.583	15469
915.696	15469
915.809	15545
915.921	15625
916.034	15355
916.146	15367
916.259	15374
916.371	15435
916.483	15488
916.595	15344
916.708	15370
916.82	15230
916.932	15252
917.044	15203
917.156	15154
917.268	15081
917.38	15104
917.491	15089
917.603	15062
917.715	15256
917.826	15062
917.938	14960
918.049	14982
918.161	15032
918.272	15157
918.384	15192
918.495	14944
918.606	14830
918.717	14811
918.828	14861
918.939	14880
919.05	14632
919.161	14823
919.272	14564
919.383	14712
919.494	14815
919.604	14944
919.715	14796
919.826	14659
919.936	14765
920.047	14754
920.157	14773
920.267	14986
920.378	14792
920.488	14693
920.598	14956
920.708	15005
920.818	14899
920.928	14819
921.038	15001
921.148	14979
921.258	14678
921.368	14625
921.477	14419
921.587	14431
921.697	14343
921.806	14457
921.916	14282
922.025	14168
922.134	14248
922.244	14092
922.353	14103
922.462	13932
922.571	13864
922.68	13639
922.789	13757
922.898	13700
923.007	13613
923.116	13712
923.224	13643
923.333	13685
923.442	13601
923.55	13586
923.659	13533
923.767	13559
923.876	13472
923.984	13525
924.092	13426
924.201	13495
924.309	13445
924.417	13472
924.525	13407
924.633	13365
924.741	14134
924.849	13133
924.956	13304
925.064	13217
925.172	13069
925.279	13065
925.387	13168
925.494	13099
925.602	13228
925.709	13141
925.816	12989
925.924	13072
926.031	13160
926.138	13107
926.245	13069
926.352	12993
926.459	13042
926.566	13149
926.673	12928
926.779	12943
926.886	12764
926.993	12730
927.099	12806
927.206	12741
927.312	12551
927.419	12776
927.525	12688
927.631	12711
927.737	12513
927.843	12486
927.95	12376
928.056	12445
928.162	12502
928.267	12540
928.373	13076
928.479	12604
928.585	12266
928.69	12433
928.796	12547
928.901	12380
929.007	12300
929.112	12330
929.218	12292
929.323	12201
929.428	12228
929.533	12315
929.638	12133
929.743	12121
929.848	12277
929.953	12064
930.058	12022
930.163	11855
930.267	11969
930.372	12041
930.477	11794
930.581	12045
930.685	12003
930.79	11714
930.894	11790
930.998	11745
931.103	11874
931.207	11573
931.311	11452
931.415	11307
931.519	11109
931.623	11045
