Data from test_V78500241_2963.txt Node
Date: Fri Mar 25 16:02:19 CST 2022
User: usil
Spectrometer: V785-0024
Trigger mode: 0
Integration Time (sec): 4.000000E-1
Scans to average: 1
Nonlinearity correction enabled: false
Boxcar width: 0
Storing dark spectrum: false
XAxis mode: Wavelengths
Number of Pixels in Spectrum: 1024
>>>>>Begin Spectral Data<<<<<
801.071	28965
801.214	28759
801.356	28573
801.499	28512
801.641	28367
801.783	28535
801.926	28592
802.068	28325
802.211	28436
802.353	28344
802.496	28040
802.638	28215
802.78	28173
802.923	27991
803.065	28029
803.208	28078
803.35	28215
803.492	28272
803.635	28246
803.777	28299
803.919	28421
804.061	28687
804.204	28413
804.346	28489
804.488	28337
804.63	28421
804.773	28394
804.915	28481
805.057	28459
805.199	28314
805.341	28497
805.483	28607
805.626	28557
805.768	28466
805.91	28535
806.052	28729
806.194	28493
806.336	28767
806.478	28592
806.62	28455
806.762	28668
806.904	28820
807.046	29014
807.188	28980
807.33	29064
807.472	29124
807.614	29029
807.756	28816
807.898	28828
808.04	28801
808.182	28805
808.324	28782
808.465	29006
808.607	29174
808.749	29212
808.891	29345
809.033	29471
809.174	29315
809.316	29242
809.458	29353
809.6	29231
809.741	29307
809.883	29547
810.025	29482
810.166	29615
810.308	29497
810.45	29368
810.591	29383
810.733	29315
810.875	29197
811.016	29147
811.158	29143
811.299	29265
811.441	29463
811.582	29425
811.724	29242
811.865	29170
812.007	29330
812.148	29326
812.29	29178
812.431	29414
812.573	29714
812.714	29828
812.855	29897
812.997	29927
813.138	30106
813.279	29828
813.421	29745
813.562	29684
813.703	29630
813.845	29528
813.986	29159
814.127	29086
814.268	28946
814.41	29060
814.551	29022
814.692	29041
814.833	28900
814.974	29022
815.115	28991
815.256	28999
815.397	28675
815.539	28778
815.68	28801
815.821	28626
815.962	28816
816.103	28771
816.244	28771
816.385	28603
816.526	28603
816.666	28508
816.807	28375
816.948	28166
817.089	28360
817.23	28363
817.371	28303
817.512	28360
817.653	28299
817.793	28234
817.934	28314
818.075	28322
818.216	28401
818.356	28207
818.497	28150
818.638	28017
818.778	28017
818.919	28116
819.06	28196
819.2	28063
819.341	28036
819.481	28322
819.622	28466
819.762	28607
819.903	28664
820.043	28466
820.184	28527
820.324	28493
820.465	28500
820.605	28451
820.746	28424
820.886	28253
821.026	28447
821.167	28303
821.307	28478
821.447	28337
821.588	28303
821.728	28272
821.868	27960
822.008	27816
822.149	27808
822.289	27873
822.429	27485
822.569	27557
822.709	27435
822.849	27363
822.99	27359
823.13	27351
823.27	27252
823.41	27123
823.55	27085
823.69	27051
823.83	27184
823.97	27043
824.11	26929
824.25	26902
824.389	26998
824.529	27047
824.669	26979
824.809	27085
824.949	27154
825.089	27013
825.228	27116
825.368	26929
825.508	26697
825.648	26785
825.787	26864
825.927	26933
826.067	26777
826.206	26853
826.346	26849
826.485	26765
826.625	26708
826.765	26971
826.904	26830
827.044	26579
827.183	26507
827.323	26560
827.462	26606
827.601	26438
827.741	26583
827.88	26602
828.02	26503
828.159	26571
828.298	26518
828.437	26636
828.577	26602
828.716	26648
828.855	26457
828.994	26233
829.134	26290
829.273	26301
829.412	26218
829.551	26263
829.69	26271
829.829	26168
829.968	26294
830.107	26240
830.246	26305
830.385	26195
830.524	26058
830.663	26149
830.802	25966
830.941	25898
831.08	25909
831.219	25982
831.357	25890
831.496	26027
831.635	25833
831.774	25833
831.913	25856
832.051	25704
832.19	25624
832.329	25723
832.467	25556
832.606	25369
832.744	25453
832.883	25411
833.022	25331
833.16	25354
833.299	25495
833.437	25601
833.576	25537
833.714	25491
833.852	25647
833.991	25643
834.129	25632
834.267	25586
834.406	25438
834.544	25590
834.682	25563
834.821	25544
834.959	25719
835.097	25537
835.235	25670
835.373	25510
835.511	25544
835.65	25289
835.788	25411
835.926	25331
836.064	25194
836.202	25232
836.34	25369
836.478	25434
836.615	25358
836.753	25460
836.891	25487
837.029	25392
837.167	25324
837.305	25324
837.443	25266
837.58	25103
837.718	25331
837.856	25259
837.993	25274
838.131	25187
838.269	25099
838.406	25168
838.544	25107
838.681	24875
838.819	25023
838.956	24639
839.094	24726
839.231	24741
839.369	24856
839.506	25038
839.643	24848
839.781	24783
839.918	24608
840.055	24604
840.193	24627
840.33	24486
840.467	24525
840.604	24566
840.742	24852
840.879	24471
841.016	24464
841.153	24441
841.29	24566
841.427	24555
841.564	24635
841.701	24582
841.838	24623
841.975	24483
842.112	24380
842.249	24372
842.385	24410
842.522	24551
842.659	24521
842.796	24350
842.933	24357
843.069	24319
843.206	24353
843.343	24395
843.479	24311
843.616	24338
843.752	24114
843.889	24133
844.025	24228
844.162	24197
844.298	24213
844.435	24106
844.571	23984
844.708	24083
844.844	24323
844.98	24304
845.117	24228
845.253	24106
845.389	24015
845.525	24072
845.661	23950
845.798	23859
845.934	23882
846.07	23843
846.206	23961
846.342	23901
846.478	23764
846.614	23760
846.75	23539
846.886	23551
847.022	23585
847.158	23577
847.294	23547
847.429	23649
847.565	23482
847.701	23764
847.837	23254
847.972	23254
848.108	23535
848.244	23433
848.379	23208
848.515	23124
848.65	23140
848.786	23299
848.921	23140
849.057	23318
849.192	23242
849.328	23193
849.463	23258
849.598	23094
849.734	22991
849.869	23052
850.004	22938
850.14	22949
850.275	22968
850.41	22805
850.545	22831
850.68	22858
850.815	22965
850.95	22938
851.085	23006
851.22	22984
851.355	22908
851.49	22934
851.625	22885
851.76	22911
851.895	22782
852.03	22930
852.165	22927
852.299	22923
852.434	22858
852.569	22953
852.703	22957
852.838	23006
852.973	22984
853.107	23067
853.242	22900
853.376	22683
853.511	22653
853.645	22630
853.78	22717
853.914	22763
854.048	22694
854.183	22706
854.317	22831
854.451	22889
854.585	22774
854.72	22637
854.854	22744
854.988	22637
855.122	22698
855.256	22668
855.39	22752
855.524	22736
855.658	22801
855.792	22782
855.926	22713
856.06	22896
856.194	22866
856.327	22763
856.461	22656
856.595	22717
856.729	22801
856.862	22885
856.996	22889
857.13	22812
857.263	22881
857.397	22850
857.53	22713
857.664	22786
857.797	22892
857.931	22763
858.064	22630
858.197	22908
858.331	22755
858.464	22771
858.597	22729
858.731	22717
858.864	22767
858.997	22645
859.13	22755
859.263	22782
859.396	22927
859.529	22824
859.662	22748
859.795	22729
859.928	22691
860.061	22938
860.194	22919
860.327	22687
860.46	22869
860.592	22923
860.725	22991
860.858	22915
860.99	22828
861.123	22778
861.256	22603
861.388	22759
861.521	23573
861.653	22672
861.786	22592
861.918	22557
862.05	22653
862.183	22729
862.315	22721
862.447	22748
862.58	22672
862.712	22523
862.844	22504
862.976	22588
863.108	22618
863.24	22847
863.372	22428
863.504	22413
863.636	22519
863.768	22565
863.9	22516
864.032	22405
864.164	22443
864.296	22466
864.428	22561
864.559	22459
864.691	22565
864.823	22303
864.954	22363
865.086	22474
865.217	22394
865.349	22398
865.48	22299
865.612	22322
865.743	22531
865.875	22440
866.006	22417
866.137	22325
866.269	22436
866.4	22356
866.531	22207
866.662	22246
866.793	22192
866.924	22405
867.055	22276
867.186	22234
867.317	22211
867.448	22185
867.579	22147
867.71	22128
867.841	22234
867.972	22257
868.103	22246
868.233	22257
868.364	22177
868.495	22299
868.625	22474
868.756	22554
868.886	22417
869.017	22440
869.147	22584
869.278	22519
869.408	22584
869.539	22462
869.669	22630
869.799	22637
869.929	22565
870.06	22679
870.19	22854
870.32	22843
870.45	22877
870.58	22824
870.71	22949
870.84	22896
870.97	22869
871.1	22930
871.23	23044
871.36	23147
871.489	23037
871.619	23025
871.749	23064
871.879	23212
872.008	23246
872.138	23128
872.267	23037
872.397	22984
872.526	22991
872.656	22923
872.785	22934
872.915	23204
873.044	23151
873.173	23079
873.303	23071
873.432	23136
873.561	23220
873.69	23185
873.819	23159
873.948	23296
874.077	23140
874.206	23090
874.335	23010
874.464	23258
874.593	23372
874.722	23356
874.851	23387
874.979	23364
875.108	23372
875.237	23143
875.365	23212
875.494	23372
875.623	23353
875.751	23311
875.88	23376
876.008	23353
876.136	23543
876.265	23649
876.393	23805
876.521	23756
876.65	23851
876.778	23668
876.906	23752
877.034	23741
877.162	23729
877.29	23714
877.418	23817
877.546	23619
877.674	23665
877.802	23471
877.93	23718
878.058	23775
878.185	23478
878.313	23676
878.441	23566
878.568	23467
878.696	23566
878.824	23764
878.951	23756
879.079	23931
879.206	23889
879.333	23832
879.461	23661
879.588	23828
879.715	23897
879.842	23965
879.97	23680
880.097	23531
880.224	23452
880.351	23501
880.478	23509
880.605	23406
880.732	23509
880.859	23741
880.986	23448
881.112	23490
881.239	23452
881.366	23254
881.493	23056
881.619	23090
881.746	23113
881.872	23067
881.999	23067
882.125	22919
882.252	23075
882.378	22980
882.505	23147
882.631	22900
882.757	22740
882.883	22767
883.01	22694
883.136	22653
883.262	22577
883.388	22569
883.514	22672
883.64	22607
883.766	22702
883.892	22443
884.018	22577
884.143	22706
884.269	22653
884.395	22402
884.52	22272
884.646	22379
884.772	22230
884.897	22268
885.023	22451
885.148	22478
885.274	22542
885.399	22485
885.524	22337
885.65	22341
885.775	22246
885.9	22379
886.025	22497
886.15	22348
886.275	22253
886.4	22303
886.525	22337
886.65	22223
886.775	22097
886.9	22481
887.025	22588
887.149	22287
887.274	22131
887.399	22196
887.523	22112
887.648	22013
887.773	22135
887.897	22116
888.021	22067
888.146	22006
888.27	22287
888.395	22147
888.519	21994
888.643	22147
888.767	22177
888.891	22067
889.015	21888
889.139	21888
889.263	21865
889.387	22006
889.511	22078
889.635	22063
889.759	21956
889.883	21816
890.006	21953
890.13	22036
890.254	21876
890.377	21926
890.501	21553
890.624	21618
890.748	21633
890.871	21492
890.995	21492
891.118	21458
891.241	21625
891.364	21439
891.488	21568
891.611	21382
891.734	21515
891.857	21431
891.98	21462
892.103	21435
892.226	21500
892.349	21279
892.471	21211
892.594	21405
892.717	21454
892.839	21389
892.962	21332
893.085	21340
893.207	21291
893.33	21256
893.452	21283
893.575	21363
893.697	21351
893.819	21481
893.941	21447
894.064	21424
894.186	21264
894.308	21233
894.43	21485
894.552	21378
894.674	21325
894.796	21127
894.918	21329
895.04	21287
895.161	21317
895.283	21370
895.405	21211
895.526	21275
895.648	21268
895.769	21268
895.891	21302
896.012	21416
896.134	21336
896.255	21192
896.376	21291
896.498	21302
896.619	21245
896.74	21313
896.861	21431
896.982	21587
897.103	21800
897.224	21553
897.345	21313
897.466	21351
897.587	21458
897.708	21667
897.828	21534
897.949	21450
898.07	21306
898.19	21416
898.311	21515
898.431	21363
898.552	21435
898.672	21530
898.792	21561
898.913	21359
899.033	21393
899.153	21283
899.273	21176
899.393	21192
899.513	21370
899.633	21275
899.753	21184
899.873	21131
899.993	21340
900.113	21123
900.232	21260
900.352	21165
900.472	20963
900.591	20902
900.711	21009
900.83	20868
900.95	20994
901.069	21116
901.189	20864
901.308	20617
901.427	20511
901.546	20503
901.665	20579
901.784	20549
901.904	20412
902.023	20324
902.141	20100
902.26	20062
902.379	20126
902.498	20187
902.617	19978
902.735	20122
902.854	19959
902.973	19932
903.091	19662
903.21	19712
903.328	19594
903.446	19639
903.565	19548
903.683	19525
903.801	19415
903.919	19537
904.038	19422
904.156	19259
904.274	19434
904.392	19312
904.51	19236
904.627	19190
904.745	19274
904.863	19362
904.981	19061
905.098	18928
905.216	18897
905.334	18916
905.451	18848
905.569	18844
905.686	18909
905.803	18890
905.921	18688
906.038	18833
906.155	18669
906.272	18642
906.389	18738
906.506	18460
906.623	18540
906.74	18433
906.857	18369
906.974	18399
907.091	18479
907.208	18521
907.324	18540
907.441	18270
907.557	18224
907.674	18174
907.79	18133
907.907	18079
908.023	18243
908.139	18201
908.256	18114
908.372	17954
908.488	18007
908.604	17965
908.72	17783
908.836	17961
908.952	17893
909.068	17882
909.184	17897
909.3	17821
909.415	17767
909.531	17745
909.647	17646
909.762	17547
909.878	17604
909.993	17478
910.108	17509
910.224	17516
910.339	17532
910.454	17459
910.57	17246
910.685	17360
910.8	17581
910.915	17577
911.03	17307
911.145	17143
911.259	17060
911.374	17132
911.489	17033
911.604	17048
911.718	16904
911.833	16892
911.947	16831
912.062	16683
912.176	16889
912.291	16904
912.405	16782
912.519	16987
912.633	17064
912.748	16843
912.862	16889
912.976	16733
913.09	16470
913.204	16630
913.318	16645
913.431	16736
913.545	16774
913.659	16713
913.772	16637
913.886	16561
914	16485
914.113	16584
914.226	16599
914.34	16542
914.453	16451
914.566	16451
914.68	16287
914.793	16234
914.906	16131
915.019	16059
915.132	15964
915.245	15998
915.358	16059
915.47	16124
915.583	15915
915.696	16074
915.809	16074
915.921	16166
916.034	15907
916.146	15778
916.259	15930
916.371	16032
916.483	16010
916.595	15899
916.708	15869
916.82	15838
916.932	15774
917.044	15812
917.156	15781
917.268	15618
917.38	15644
917.491	15656
917.603	15603
917.715	15701
917.826	15766
917.938	15473
918.049	15511
918.161	15561
918.272	15778
918.384	15705
918.495	15580
918.606	15424
918.717	15408
918.828	15454
918.939	15485
919.05	15382
919.161	15287
919.272	15188
919.383	15176
919.494	15469
919.604	15614
919.715	15367
919.826	15199
919.936	15291
920.047	15450
920.157	15321
920.267	15504
920.378	15397
920.488	15306
920.598	15523
920.708	15564
920.818	15420
920.928	15545
921.038	15606
921.148	15572
921.258	15184
921.368	15203
921.477	15089
921.587	15070
921.697	14868
921.806	15119
921.916	14921
922.025	14895
922.134	14739
922.244	14568
922.353	14727
922.462	14545
922.571	14461
922.68	14328
922.789	14408
922.898	14423
923.007	14244
923.116	14362
923.224	14377
923.333	14343
923.442	14145
923.55	14084
923.659	14187
923.767	14168
923.876	14031
923.984	14123
924.092	14069
924.201	14077
924.309	13978
924.417	13959
924.525	14008
924.633	13959
924.741	14686
924.849	13761
924.956	13898
925.064	13708
925.172	13525
925.279	13757
925.387	13704
925.494	13715
925.602	13879
925.709	13719
925.816	13472
925.924	13734
926.031	13700
926.138	13700
926.245	13582
926.352	13571
926.459	13658
926.566	13639
926.673	13537
926.779	13407
926.886	13396
926.993	13339
927.099	13270
927.206	13297
927.312	13183
927.419	13255
927.525	13228
927.631	13217
927.737	13168
927.843	13069
927.95	13038
928.056	13061
928.162	13031
928.267	13076
928.373	13597
928.479	13107
928.585	12890
928.69	12981
928.796	12973
928.901	12920
929.007	12768
929.112	12875
929.218	12829
929.323	12852
929.428	12776
929.533	12875
929.638	12662
929.743	12665
929.848	12692
929.953	12684
930.058	12635
930.163	12384
930.267	12418
930.372	12551
930.477	12308
930.581	12662
930.685	12490
930.79	12334
930.894	12319
930.998	12228
931.103	12365
931.207	12026
931.311	11969
931.415	11824
931.519	11710
931.623	11638
