Data from test_V78500241_774.txt Node
Date: Fri Mar 25 15:47:09 CST 2022
User: usil
Spectrometer: V785-0024
Trigger mode: 0
Integration Time (sec): 4.000000E-1
Scans to average: 1
Nonlinearity correction enabled: false
Boxcar width: 0
Storing dark spectrum: false
XAxis mode: Wavelengths
Number of Pixels in Spectrum: 1024
>>>>>Begin Spectral Data<<<<<
801.071	28051
801.214	27945
801.356	27660
801.499	27854
801.641	27652
801.783	27759
801.926	27671
802.068	27507
802.211	27507
802.353	27507
802.496	27283
802.638	27370
802.78	27252
802.923	27256
803.065	27256
803.208	27230
803.35	27256
803.492	27477
803.635	27656
803.777	27279
803.919	27511
804.061	27770
804.204	27454
804.346	27397
804.488	27485
804.63	27466
804.773	27485
804.915	27511
805.057	27507
805.199	27587
805.341	27694
805.483	27739
805.626	27625
805.768	27561
805.91	27603
806.052	27583
806.194	27492
806.336	27800
806.478	27576
806.62	27648
806.762	27831
806.904	27842
807.046	28128
807.188	28147
807.33	28074
807.472	28196
807.614	27941
807.756	28013
807.898	27842
808.04	27762
808.182	27827
808.324	27857
808.465	28002
808.607	28215
808.749	28337
808.891	28318
809.033	28470
809.174	28386
809.316	28219
809.458	28325
809.6	28299
809.741	28478
809.883	28500
810.025	28637
810.166	28561
810.308	28626
810.45	28641
810.591	28451
810.733	28348
810.875	28242
811.016	28112
811.158	28299
811.299	28512
811.441	28382
811.582	28401
811.724	28443
811.865	28238
812.007	28459
812.148	28242
812.29	28360
812.431	28531
812.573	28596
812.714	28584
812.855	28858
812.997	28847
813.138	29064
813.279	28911
813.421	28896
813.562	28869
813.703	28755
813.845	28584
813.986	28215
814.127	28097
814.268	28101
814.41	28093
814.551	27941
814.692	28143
814.833	27819
814.974	27979
815.115	27766
815.256	27850
815.397	27842
815.539	27865
815.68	27762
815.821	27614
815.962	27842
816.103	27857
816.244	27671
816.385	27534
816.526	27538
816.666	27530
816.807	27237
816.948	27450
817.089	27469
817.23	27310
817.371	27431
817.512	27329
817.653	27351
817.793	27283
817.934	27401
818.075	27279
818.216	27435
818.356	27317
818.497	27154
818.638	27070
818.778	27051
818.919	27020
819.06	27161
819.2	27192
819.341	27298
819.481	27351
819.622	27526
819.762	27660
819.903	27545
820.043	27511
820.184	27431
820.324	27363
820.465	27469
820.605	27351
820.746	27458
820.886	27207
821.026	27443
821.167	27336
821.307	27447
821.447	27355
821.588	27214
821.728	26998
821.868	27017
822.008	26765
822.149	26853
822.289	26697
822.429	26545
822.569	26381
822.709	26564
822.849	26206
822.99	26324
823.13	26320
823.27	26381
823.41	26084
823.55	25925
823.69	26031
823.83	26062
823.97	26130
824.11	25837
824.25	25841
824.389	25959
824.529	25993
824.669	25966
824.809	25959
824.949	25974
825.089	26054
825.228	25932
825.368	25860
825.508	25928
825.648	25830
825.787	25818
825.927	25906
826.067	25811
826.206	25731
826.346	25849
826.485	25951
826.625	25772
826.765	25799
826.904	25871
827.044	25674
827.183	25685
827.323	25491
827.462	25529
827.601	25525
827.741	25540
827.88	25529
828.02	25369
828.159	25521
828.298	25392
828.437	25487
828.577	25396
828.716	25643
828.855	25472
828.994	25240
829.134	25324
829.273	25221
829.412	25244
829.551	25179
829.69	25171
829.829	25209
829.968	25274
830.107	25350
830.246	25236
830.385	25122
830.524	25091
830.663	25027
830.802	24886
830.941	24897
831.08	24859
831.219	24924
831.357	24928
831.496	25095
831.635	24810
831.774	24604
831.913	24684
832.051	24627
832.19	24570
832.329	24631
832.467	24669
832.606	24486
832.744	24597
832.883	24464
833.022	24494
833.16	24460
833.299	24559
833.437	24661
833.576	24532
833.714	24566
833.852	24528
833.991	24627
834.129	24642
834.267	24639
834.406	24631
834.544	24639
834.682	24460
834.821	24582
834.959	24544
835.097	24422
835.235	24631
835.373	24502
835.511	24502
835.65	24391
835.788	24483
835.926	24213
836.064	24266
836.202	24216
836.34	24410
836.478	24475
836.615	24365
836.753	24251
836.891	24403
837.029	24391
837.167	24251
837.305	24395
837.443	24209
837.58	24190
837.718	24388
837.856	24300
837.993	24140
838.131	24338
838.269	24072
838.406	24045
838.544	23828
838.681	23756
838.819	23817
838.956	23619
839.094	23828
839.231	23672
839.369	23790
839.506	24178
839.643	23912
839.781	23551
839.918	23733
840.055	23699
840.193	23649
840.33	23627
840.467	23558
840.604	23661
840.742	23863
840.879	23535
841.016	23528
841.153	23501
841.29	23577
841.427	23642
841.564	23623
841.701	23661
841.838	23455
841.975	23421
842.112	23459
842.249	23425
842.385	23497
842.522	23680
842.659	23433
842.796	23345
842.933	23391
843.069	23216
843.206	23284
843.343	23299
843.479	23212
843.616	23322
843.752	23098
843.889	23086
844.025	23307
844.162	23124
844.298	23204
844.435	23113
844.571	23124
844.708	23235
844.844	23166
844.98	23364
845.117	23136
845.253	23136
845.389	22965
845.525	22995
845.661	22942
845.798	22854
845.934	22850
846.07	22820
846.206	22862
846.342	23094
846.478	22824
846.614	22569
846.75	22561
846.886	22527
847.022	22778
847.158	22573
847.294	22641
847.429	22634
847.565	22538
847.701	22683
847.837	22375
847.972	22344
848.108	22367
848.244	22379
848.379	22200
848.515	22101
848.65	22169
848.786	22120
848.921	22147
849.057	22101
849.192	22207
849.328	22246
849.463	22249
849.598	22192
849.734	22055
849.869	21960
850.004	21945
850.14	21975
850.275	21956
850.41	21842
850.545	21907
850.68	21865
850.815	21949
850.95	21907
851.085	22109
851.22	21998
851.355	22044
851.49	21922
851.625	21873
851.76	21819
851.895	21835
852.03	21865
852.165	21953
852.299	22101
852.434	21915
852.569	22036
852.703	21857
852.838	22070
852.973	22090
853.107	21983
853.242	21903
853.376	21781
853.511	21812
853.645	21682
853.78	21972
853.914	21804
854.048	21759
854.183	21770
854.317	21747
854.451	21895
854.585	21842
854.72	21762
854.854	21789
854.988	21637
855.122	21751
855.256	21568
855.39	21675
855.524	21934
855.658	21720
855.792	21717
855.926	21720
856.06	21785
856.194	21732
856.327	21808
856.461	21724
856.595	21774
856.729	21739
856.862	21873
856.996	21709
857.13	21808
857.263	21835
857.397	21808
857.53	21698
857.664	21907
857.797	21785
857.931	21846
858.064	21800
858.197	21926
858.331	21751
858.464	21732
858.597	21610
858.731	21713
858.864	21766
858.997	21679
859.13	21793
859.263	21827
859.396	21781
859.529	21747
859.662	21785
859.795	21679
859.928	21797
860.061	21964
860.194	21915
860.327	21819
860.46	21854
860.592	21884
860.725	21907
860.858	21930
860.99	21785
861.123	21652
861.256	21701
861.388	21800
861.521	22409
861.653	21625
861.786	21599
861.918	21698
862.05	21450
862.183	21572
862.315	21671
862.447	21759
862.58	21675
862.712	21534
862.844	21405
862.976	21599
863.108	21530
863.24	21960
863.372	21500
863.504	21378
863.636	21355
863.768	21511
863.9	21477
864.032	21416
864.164	21428
864.296	21405
864.428	21572
864.559	21477
864.691	21477
864.823	21519
864.954	21473
865.086	21336
865.217	21424
865.349	21332
865.48	21313
865.612	21416
865.743	21473
865.875	21355
866.006	21370
866.137	21355
866.269	21374
866.4	21386
866.531	21245
866.662	21302
866.793	21218
866.924	21275
867.055	21245
867.186	21321
867.317	21260
867.448	21272
867.579	21283
867.71	21096
867.841	21188
867.972	21329
868.103	21214
868.233	21154
868.364	21359
868.495	21367
868.625	21397
868.756	21583
868.886	21420
869.017	21526
869.147	21564
869.278	21667
869.408	21641
869.539	21473
869.669	21542
869.799	21511
869.929	21587
870.06	21625
870.19	21880
870.32	21819
870.45	21762
870.58	21975
870.71	21953
870.84	21964
870.97	21895
871.1	21964
871.23	22097
871.36	22067
871.489	22032
871.619	22139
871.749	22215
871.879	22086
872.008	22280
872.138	22177
872.267	22044
872.397	21983
872.526	21835
872.656	21880
872.785	21972
872.915	22040
873.044	22223
873.173	22105
873.303	22150
873.432	22223
873.561	22287
873.69	22226
873.819	22048
873.948	22234
874.077	22166
874.206	22135
874.335	22120
874.464	22265
874.593	22371
874.722	22211
874.851	22295
874.979	22512
875.108	22398
875.237	22303
875.365	22200
875.494	22493
875.623	22375
875.751	22329
875.88	22413
876.008	22485
876.136	22527
876.265	22801
876.393	22828
876.521	22790
876.65	22797
876.778	22812
876.906	22698
877.034	22721
877.162	22755
877.29	22675
877.418	22748
877.546	22675
877.674	22767
877.802	22733
877.93	22645
878.058	22497
878.185	22542
878.313	22546
878.441	22603
878.568	22554
878.696	22603
878.824	22580
878.951	22771
879.079	22923
879.206	23010
879.333	22938
879.461	22793
879.588	22908
879.715	22877
879.842	22953
879.97	22831
880.097	22519
880.224	22489
880.351	22596
880.478	22592
880.605	22360
880.732	22557
880.859	22668
880.986	22656
881.112	22645
881.239	22344
881.366	22192
881.493	22238
881.619	22162
881.746	22112
881.872	22291
881.999	22120
882.125	21941
882.252	22067
882.378	22086
882.505	22207
882.631	21915
882.757	21759
882.883	21880
883.01	21812
883.136	21736
883.262	21652
883.388	21713
883.514	21797
883.64	21808
883.766	21751
883.892	21526
884.018	21485
884.143	21789
884.269	21812
884.395	21481
884.52	21435
884.646	21443
884.772	21363
884.897	21294
885.023	21382
885.148	21504
885.274	21656
885.399	21561
885.524	21450
885.65	21473
885.775	21504
885.9	21458
886.025	21530
886.15	21534
886.275	21485
886.4	21222
886.525	21420
886.65	21367
886.775	21363
886.9	21564
887.025	21656
887.149	21469
887.274	21211
887.399	21161
887.523	21195
887.648	21233
887.773	21074
887.897	21226
888.021	21237
888.146	21100
888.27	21192
888.395	21222
888.519	21123
888.643	21161
888.767	21249
888.891	21192
889.015	21074
889.139	20994
889.263	20986
889.387	21024
889.511	21112
889.635	21173
889.759	21013
889.883	20963
890.006	21043
890.13	21032
890.254	20899
890.377	20807
890.501	20746
890.624	20575
890.748	20727
890.871	20746
890.995	20488
891.118	20492
891.241	20431
891.364	20606
891.488	20606
891.611	20598
891.734	20514
891.857	20598
891.98	20545
892.103	20651
892.226	20427
892.349	20492
892.471	20351
892.594	20454
892.717	20499
892.839	20377
892.962	20488
893.085	20454
893.207	20415
893.33	20263
893.452	20374
893.575	20492
893.697	20537
893.819	20518
893.941	20530
894.064	20545
894.186	20381
894.308	20404
894.43	20556
894.552	20617
894.674	20511
894.796	20434
894.918	20309
895.04	20396
895.161	20434
895.283	20419
895.405	20377
895.526	20522
895.648	20492
895.769	20446
895.891	20419
896.012	20651
896.134	20499
896.255	20537
896.376	20385
896.498	20427
896.619	20533
896.74	20461
896.861	20537
896.982	20670
897.103	20956
897.224	20708
897.345	20640
897.466	20514
897.587	20754
897.708	20788
897.828	20739
897.949	20629
898.07	20537
898.19	20560
898.311	20697
898.431	20609
898.552	20533
898.672	20651
898.792	20754
898.913	20663
899.033	20556
899.153	20545
899.273	20370
899.393	20358
899.513	20484
899.633	20454
899.753	20431
899.873	20355
899.993	20385
900.113	20370
900.232	20473
900.352	20278
900.472	20176
900.591	20107
900.711	20206
900.83	20130
900.95	20221
901.069	20336
901.189	20157
901.308	19719
901.427	19708
901.546	19662
901.665	19742
901.784	19704
901.904	19651
902.023	19556
902.141	19335
902.26	19289
902.379	19358
902.498	19346
902.617	19350
902.735	19263
902.854	19236
902.973	19209
903.091	18966
903.21	18882
903.328	18935
903.446	18840
903.565	18730
903.683	18654
903.801	18631
903.919	18673
904.038	18673
904.156	18506
904.274	18635
904.392	18448
904.51	18448
904.627	18509
904.745	18372
904.863	18547
904.981	18315
905.098	18079
905.216	18216
905.334	18209
905.451	18087
905.569	18110
905.686	18133
905.803	18140
905.921	17969
906.038	18041
906.155	17950
906.272	17889
906.389	17786
906.506	17699
906.623	17615
906.74	17714
906.857	17672
906.974	17558
907.091	17752
907.208	17870
907.324	17691
907.441	17619
907.557	17334
907.674	17398
907.79	17368
907.907	17345
908.023	17425
908.139	17486
908.256	17383
908.372	17391
908.488	17292
908.604	17109
908.72	17041
908.836	17132
908.952	17185
909.068	17098
909.184	17143
909.3	17086
909.415	17090
909.531	17045
909.647	16812
909.762	16816
909.878	16725
909.993	16866
910.108	16782
910.224	16866
910.339	16786
910.454	16755
910.57	16630
910.685	16561
910.8	16717
910.915	16672
911.03	16542
911.145	16398
911.259	16478
911.374	16421
911.489	16333
911.604	16276
911.718	16086
911.833	16257
911.947	16082
912.062	15956
912.176	16147
912.291	16246
912.405	16101
912.519	16360
912.633	16459
912.748	16207
912.862	16071
912.976	15972
913.09	15854
913.204	15949
913.318	15934
913.431	16150
913.545	15975
913.659	16017
913.772	15934
913.886	15785
914	15781
914.113	15876
914.226	15850
914.34	15808
914.453	15606
914.566	15778
914.68	15618
914.793	15641
914.906	15428
915.019	15393
915.132	15306
915.245	15386
915.358	15359
915.47	15389
915.583	15340
915.696	15329
915.809	15340
915.921	15496
916.034	15367
916.146	15142
916.259	15306
916.371	15279
916.483	15230
916.595	15237
916.708	15218
916.82	15199
916.932	15131
917.044	15165
917.156	15195
917.268	15020
917.38	15043
917.491	14998
917.603	14887
917.715	15062
917.826	15074
917.938	14883
918.049	14807
918.161	14960
918.272	15047
918.384	14944
918.495	14887
918.606	14891
918.717	14697
918.828	14727
918.939	14815
919.05	14705
919.161	14701
919.272	14530
919.383	14590
919.494	14731
919.604	14941
919.715	14739
919.826	14632
919.936	14735
920.047	14773
920.157	14765
920.267	14948
920.378	14811
920.488	14773
920.598	14933
920.708	15020
920.818	14792
920.928	14830
921.038	14994
921.148	14918
921.258	14640
921.368	14594
921.477	14434
921.587	14488
921.697	14358
921.806	14507
921.916	14336
922.025	14115
922.134	14088
922.244	14062
922.353	14138
922.462	13947
922.571	14005
922.68	13696
922.789	13719
922.898	13784
923.007	13727
923.116	13845
923.224	13761
923.333	13658
923.442	13639
923.55	13544
923.659	13666
923.767	13620
923.876	13464
923.984	13582
924.092	13525
924.201	13575
924.309	13518
924.417	13540
924.525	13480
924.633	13327
924.741	14313
924.849	13190
924.956	13373
925.064	13194
925.172	13076
925.279	13095
925.387	13164
925.494	13183
925.602	13240
925.709	13187
925.816	13046
925.924	12996
926.031	13114
926.138	13080
926.245	13095
926.352	12977
926.459	13133
926.566	13221
926.673	13076
926.779	12928
926.886	12856
926.993	12684
927.099	12741
927.206	12669
927.312	12730
927.419	12730
927.525	12578
927.631	12741
927.737	12597
927.843	12601
927.95	12452
928.056	12506
928.162	12502
928.267	12578
928.373	13103
928.479	12654
928.585	12388
928.69	12490
928.796	12525
928.901	12391
929.007	12327
929.112	12452
929.218	12369
929.323	12350
929.428	12247
929.533	12441
929.638	12114
929.743	12247
929.848	12258
929.953	12136
930.058	12110
930.163	11992
930.267	11988
930.372	12091
930.477	11885
930.581	12106
930.685	11999
930.79	11923
930.894	11882
930.998	11771
931.103	11958
931.207	11611
931.311	11592
931.415	11463
931.519	11212
931.623	11212
