Data from test_V78500241_548.txt Node
Date: Fri Mar 25 15:45:35 CST 2022
User: usil
Spectrometer: V785-0024
Trigger mode: 0
Integration Time (sec): 4.000000E-1
Scans to average: 1
Nonlinearity correction enabled: false
Boxcar width: 0
Storing dark spectrum: false
XAxis mode: Wavelengths
Number of Pixels in Spectrum: 1024
>>>>>Begin Spectral Data<<<<<
801.071	27701
801.214	27515
801.356	27450
801.499	27241
801.641	27161
801.783	27176
801.926	27192
802.068	27154
802.211	26914
802.353	26944
802.496	26868
802.638	27070
802.78	26727
802.923	26811
803.065	26883
803.208	26876
803.35	26823
803.492	26891
803.635	26994
803.777	26735
803.919	27005
804.061	27226
804.204	26902
804.346	27001
804.488	26849
804.63	27001
804.773	26823
804.915	27096
805.057	26948
805.199	26971
805.341	26998
805.483	27089
805.626	27058
805.768	27009
805.91	27157
806.052	27218
806.194	27089
806.336	27268
806.478	27207
806.62	27028
806.762	27180
806.904	27291
807.046	27599
807.188	27591
807.33	27534
807.472	27564
807.614	27454
807.756	27466
807.898	27382
808.04	27359
808.182	27298
808.324	27420
808.465	27405
808.607	27549
808.749	27876
808.891	27728
809.033	27892
809.174	27972
809.316	27812
809.458	27804
809.6	27743
809.741	27937
809.883	27846
810.025	27934
810.166	27991
810.308	27892
810.45	27964
810.591	27899
810.733	27717
810.875	27694
811.016	27778
811.158	27675
811.299	27979
811.441	27854
811.582	27857
811.724	27720
811.865	27660
812.007	27762
812.148	27690
812.29	27800
812.431	27953
812.573	28112
812.714	28284
812.855	28276
812.997	28226
813.138	28481
813.279	28386
813.421	28432
813.562	28215
813.703	28116
813.845	27953
813.986	27789
814.127	27481
814.268	27496
814.41	27412
814.551	27310
814.692	27466
814.833	27230
814.974	27317
815.115	27272
815.256	27203
815.397	27279
815.539	27351
815.68	27184
815.821	27116
815.962	27237
816.103	27222
816.244	27150
816.385	27123
816.526	26876
816.666	26758
816.807	26670
816.948	26800
817.089	26857
817.23	26750
817.371	26701
817.512	26632
817.653	26705
817.793	26617
817.934	26769
818.075	26670
818.216	26629
818.356	26613
818.497	26667
818.638	26412
818.778	26518
818.919	26389
819.06	26415
819.2	26514
819.341	26750
819.481	26663
819.622	26754
819.762	26899
819.903	26994
820.043	26830
820.184	26830
820.324	26667
820.465	26792
820.605	26720
820.746	26746
820.886	26583
821.026	26762
821.167	26667
821.307	26807
821.447	26678
821.588	26571
821.728	26385
821.868	26256
822.008	26161
822.149	26153
822.289	26073
822.429	25959
822.569	25849
822.709	25822
822.849	25704
822.99	25704
823.13	25674
823.27	25689
823.41	25662
823.55	25487
823.69	25457
823.83	25396
823.97	25316
824.11	25301
824.25	25217
824.389	25232
824.529	25343
824.669	25293
824.809	25384
824.949	25381
825.089	25304
825.228	25304
825.368	25137
825.508	25187
825.648	25209
825.787	25187
825.927	25240
826.067	25095
826.206	25183
826.346	25156
826.485	25202
826.625	25164
826.765	25202
826.904	25198
827.044	25080
827.183	24909
827.323	24779
827.462	24848
827.601	24954
827.741	24821
827.88	24856
828.02	24745
828.159	24905
828.298	24817
828.437	24802
828.577	24734
828.716	25019
828.855	24829
828.994	24570
829.134	24688
829.273	24528
829.412	24532
829.551	24475
829.69	24502
829.829	24418
829.968	24646
830.107	24532
830.246	24601
830.385	24369
830.524	24410
830.663	24342
830.802	24277
830.941	24083
831.08	23999
831.219	24300
831.357	24266
831.496	24346
831.635	24159
831.774	23999
831.913	24098
832.051	24022
832.19	23885
832.329	23977
832.467	23786
832.606	23707
832.744	23813
832.883	23802
833.022	23775
833.16	23843
833.299	23893
833.437	23908
833.576	23992
833.714	23863
833.852	23920
833.991	23935
834.129	24011
834.267	23961
834.406	23992
834.544	23901
834.682	23999
834.821	23954
834.959	24087
835.097	23805
835.235	23996
835.373	23912
835.511	23737
835.65	23687
835.788	23703
835.926	23619
836.064	23608
836.202	23665
836.34	23798
836.478	23824
836.615	23760
836.753	23699
836.891	23843
837.029	23779
837.167	23592
837.305	23634
837.443	23512
837.58	23551
837.718	23695
837.856	23649
837.993	23581
838.131	23410
838.269	23486
838.406	23554
838.544	23356
838.681	23292
838.819	23216
838.956	22984
839.094	22957
839.231	23121
839.369	23124
839.506	23440
839.643	23318
839.781	23044
839.918	22968
840.055	23102
840.193	22889
840.33	22934
840.467	23029
840.604	22999
840.742	23284
840.879	22816
841.016	22877
841.153	22858
841.29	23109
841.427	22831
841.564	22915
841.701	22946
841.838	22847
841.975	22850
842.112	22877
842.249	22672
842.385	22717
842.522	22915
842.659	22801
842.796	22607
842.933	22717
843.069	22630
843.206	22577
843.343	22763
843.479	22645
843.616	22759
843.752	22485
843.889	22436
844.025	22664
844.162	22440
844.298	22554
844.435	22516
844.571	22424
844.708	22508
844.844	22641
844.98	22512
845.117	22626
845.253	22382
845.389	22428
845.525	22421
845.661	22310
845.798	22295
845.934	22276
846.07	22253
846.206	22230
846.342	22398
846.478	22128
846.614	22063
846.75	21865
846.886	22029
847.022	21979
847.158	21895
847.294	22036
847.429	21994
847.565	21983
847.701	22211
847.837	21648
847.972	21629
848.108	21774
848.244	21728
848.379	21549
848.515	21496
848.65	21530
848.786	21553
848.921	21576
849.057	21599
849.192	21633
849.328	21583
849.463	21542
849.598	21473
849.734	21473
849.869	21355
850.004	21416
850.14	21249
850.275	21348
850.41	21222
850.545	21192
850.68	21272
850.815	21405
850.95	21233
851.085	21523
851.22	21382
851.355	21287
851.49	21332
851.625	21340
851.76	21302
851.895	21275
852.03	21260
852.165	21412
852.299	21389
852.434	21393
852.569	21306
852.703	21378
852.838	21367
852.973	21424
853.107	21329
853.242	21226
853.376	21146
853.511	21066
853.645	21055
853.78	21218
853.914	21119
854.048	21093
854.183	21192
854.317	21154
854.451	21359
854.585	21150
854.72	21081
854.854	21214
854.988	21173
855.122	21070
855.256	20960
855.39	21066
855.524	21313
855.658	21211
855.792	21161
855.926	21203
856.06	21112
856.194	21275
856.327	21222
856.461	21074
856.595	21055
856.729	21199
856.862	21199
856.996	21093
857.13	21214
857.263	21199
857.397	21252
857.53	21066
857.664	21249
857.797	21085
857.931	21294
858.064	21199
858.197	21393
858.331	21066
858.464	21146
858.597	20986
858.731	21226
858.864	21161
858.997	21161
859.13	21096
859.263	21085
859.396	21363
859.529	21176
859.662	21085
859.795	21013
859.928	21211
860.061	21230
860.194	21367
860.327	21233
860.46	21077
860.592	21272
860.725	21294
860.858	21348
860.99	21188
861.123	21028
861.256	21020
861.388	21157
861.521	21774
861.653	20998
861.786	20960
861.918	20910
862.05	21032
862.183	21108
862.315	21093
862.447	21135
862.58	21135
862.712	20838
862.844	20815
862.976	21013
863.108	20918
863.24	21310
863.372	20979
863.504	20956
863.636	20899
863.768	20845
863.9	20773
864.032	20765
864.164	20975
864.296	20895
864.428	21009
864.559	20861
864.691	20929
864.823	20819
864.954	20762
865.086	20857
865.217	20682
865.349	20689
865.48	20731
865.612	20693
865.743	20956
865.875	20743
866.006	20758
866.137	20796
866.269	20796
866.4	20811
866.531	20739
866.662	20640
866.793	20727
866.924	20731
867.055	20769
867.186	20613
867.317	20648
867.448	20602
867.579	20697
867.71	20621
867.841	20602
867.972	20773
868.103	20731
868.233	20670
868.364	20625
868.495	20785
868.625	20925
868.756	21028
868.886	20849
869.017	20948
869.147	21036
869.278	20986
869.408	20864
869.539	20952
869.669	20967
869.799	21043
869.929	21047
870.06	21043
870.19	21192
870.32	21154
870.45	21275
870.58	21348
870.71	21447
870.84	21408
870.97	21332
871.1	21424
871.23	21561
871.36	21488
871.489	21519
871.619	21496
871.749	21572
871.879	21656
872.008	21705
872.138	21580
872.267	21447
872.397	21542
872.526	21389
872.656	21344
872.785	21412
872.915	21644
873.044	21614
873.173	21557
873.303	21736
873.432	21644
873.561	21625
873.69	21572
873.819	21481
873.948	21564
874.077	21561
874.206	21481
874.335	21572
874.464	21603
874.593	21743
874.722	21812
874.851	21835
874.979	21880
875.108	21873
875.237	21724
875.365	21739
875.494	21857
875.623	21759
875.751	21827
875.88	21812
876.008	21994
876.136	22017
876.265	22276
876.393	22169
876.521	22215
876.65	22185
876.778	22116
876.906	22017
877.034	22082
877.162	22177
877.29	22055
877.418	22059
877.546	22036
877.674	22070
877.802	22124
877.93	22059
878.058	22078
878.185	21975
878.313	22074
878.441	22177
878.568	21983
878.696	22063
878.824	22242
878.951	22314
879.079	22417
879.206	22421
879.333	22246
879.461	22150
879.588	22322
879.715	22322
879.842	22535
879.97	22166
880.097	21972
880.224	21934
880.351	22063
880.478	22029
880.605	21960
880.732	21903
880.859	22147
880.986	21930
881.112	22021
881.239	21759
881.366	21526
881.493	21610
881.619	21485
881.746	21473
881.872	21515
881.999	21454
882.125	21553
882.252	21542
882.378	21485
882.505	21572
882.631	21222
882.757	21237
882.883	21241
883.01	21287
883.136	21306
883.262	21074
883.388	21058
883.514	21268
883.64	21230
883.766	21176
883.892	21058
884.018	20994
884.143	21062
884.269	21169
884.395	20895
884.52	20830
884.646	20952
884.772	20800
884.897	20670
885.023	20864
885.148	20979
885.274	20990
885.399	21009
885.524	20864
885.65	20929
885.775	20861
885.9	20804
886.025	20914
886.15	20990
886.275	20727
886.4	20781
886.525	20777
886.65	20853
886.775	20693
886.9	20921
887.025	21005
887.149	20899
887.274	20663
887.399	20651
887.523	20659
887.648	20541
887.773	20495
887.897	20746
888.021	20731
888.146	20495
888.27	20762
888.395	20758
888.519	20659
888.643	20693
888.767	20678
888.891	20579
889.015	20461
889.139	20499
889.263	20400
889.387	20648
889.511	20720
889.635	20632
889.759	20549
889.883	20446
890.006	20434
890.13	20556
890.254	20438
890.377	20343
890.501	20168
890.624	20046
890.748	20267
890.871	20069
890.995	19925
891.118	20027
891.241	19974
891.364	20062
891.488	20183
891.611	20043
891.734	19947
891.857	20039
891.98	19989
892.103	20058
892.226	20027
892.349	19986
892.471	19868
892.594	19951
892.717	19822
892.839	19883
892.962	19978
893.085	20073
893.207	19936
893.33	19799
893.452	19887
893.575	20012
893.697	19913
893.819	20145
893.941	20043
894.064	20020
894.186	19761
894.308	19757
894.43	20065
894.552	20134
894.674	20020
894.796	19841
894.918	19898
895.04	19826
895.161	19970
895.283	19871
895.405	19761
895.526	19978
895.648	19989
895.769	19947
895.891	20027
896.012	19955
896.134	19917
896.255	19947
896.376	19772
896.498	19959
896.619	20024
896.74	19928
896.861	19989
896.982	20317
897.103	20328
897.224	20256
897.345	20142
897.466	20119
897.587	20298
897.708	20275
897.828	20149
897.949	20084
898.07	20065
898.19	20096
898.311	20229
898.431	20107
898.552	20062
898.672	20290
898.792	20263
898.913	20134
899.033	20020
899.153	19997
899.273	19890
899.393	19849
899.513	19875
899.633	19955
899.753	19936
899.873	19898
899.993	20046
900.113	19864
900.232	19830
900.352	19791
900.472	19742
900.591	19597
900.711	19624
900.83	19586
900.95	19761
901.069	19715
901.189	19632
901.308	19369
901.427	19263
901.546	19266
901.665	19308
901.784	19213
901.904	19198
902.023	19103
902.141	18897
902.26	18738
902.379	18810
902.498	18757
902.617	18707
902.735	18741
902.854	18844
902.973	18726
903.091	18464
903.21	18528
903.328	18418
903.446	18357
903.565	18277
903.683	18262
903.801	18167
903.919	18220
904.038	18235
904.156	18209
904.274	18152
904.392	18038
904.51	17977
904.627	18060
904.745	18136
904.863	17961
904.981	17832
905.098	17703
905.216	17764
905.334	17710
905.451	17680
905.569	17767
905.686	17684
905.803	17703
905.921	17539
906.038	17554
906.155	17505
906.272	17398
906.389	17410
906.506	17330
906.623	17189
906.74	17258
906.857	17086
906.974	17117
907.091	17288
907.208	17417
907.324	17200
907.441	17132
907.557	16987
907.674	16968
907.79	16946
907.907	16987
908.023	17060
908.139	16987
908.256	16900
908.372	16858
908.488	16820
908.604	16656
908.72	16660
908.836	16740
908.952	16527
909.068	16672
909.184	16755
909.3	16630
909.415	16683
909.531	16679
909.647	16390
909.762	16329
909.878	16344
909.993	16421
910.108	16413
910.224	16344
910.339	16367
910.454	16348
910.57	16211
910.685	16169
910.8	16409
910.915	16382
911.03	16200
911.145	16040
911.259	15918
911.374	16017
911.489	15934
911.604	15873
911.718	15682
911.833	15857
911.947	15671
912.062	15705
912.176	15857
912.291	15762
912.405	15835
912.519	16017
912.633	15759
912.748	15656
912.862	15736
912.976	15523
913.09	15485
913.204	15519
913.318	15538
913.431	15652
913.545	15614
913.659	15652
913.772	15576
913.886	15450
914	15351
914.113	15454
914.226	15443
914.34	15279
914.453	15165
914.566	15302
914.68	15241
914.793	15298
914.906	15020
915.019	14918
915.132	14902
915.245	14876
915.358	14967
915.47	14887
915.583	14967
915.696	14921
915.809	15032
915.921	15085
916.034	14963
916.146	14906
916.259	14906
916.371	14990
916.483	14842
916.595	14800
916.708	14842
916.82	14815
916.932	14689
917.044	14785
917.156	14678
917.268	14579
917.38	14522
917.491	14648
917.603	14621
917.715	14640
917.826	14705
917.938	14499
918.049	14526
918.161	14606
918.272	14629
918.384	14651
918.495	14629
918.606	14396
918.717	14332
918.828	14488
918.939	14438
919.05	14252
919.161	14393
919.272	14111
919.383	14282
919.494	14473
919.604	14727
919.715	14301
919.826	14252
919.936	14396
920.047	14473
920.157	14332
920.267	14522
920.378	14389
920.488	14309
920.598	14495
920.708	14720
920.818	14434
920.928	14488
921.038	14667
921.148	14564
921.258	14374
921.368	14263
921.477	14111
921.587	14043
921.697	13868
921.806	14103
921.916	13978
922.025	13826
922.134	13814
922.244	13723
922.353	13791
922.462	13590
922.571	13624
922.68	13407
922.789	13453
922.898	13392
923.007	13358
923.116	13438
923.224	13354
923.333	13324
923.442	13240
923.55	13198
923.659	13183
923.767	13331
923.876	13152
923.984	13175
924.092	13072
924.201	13152
924.309	13168
924.417	13114
924.525	13027
924.633	13057
924.741	13830
924.849	12856
924.956	13004
925.064	12848
925.172	12745
925.279	12814
925.387	12825
925.494	12798
925.602	12970
925.709	12829
925.816	12719
925.924	12677
926.031	12757
926.138	12726
926.245	12760
926.352	12593
926.459	12798
926.566	12817
926.673	12631
926.779	12521
926.886	12593
926.993	12399
927.099	12361
927.206	12330
927.312	12327
927.419	12384
927.525	12380
927.631	12452
927.737	12300
927.843	12216
927.95	12152
928.056	12136
928.162	12144
928.267	12254
928.373	12806
928.479	12338
928.585	12064
928.69	12152
928.796	12258
928.901	12049
929.007	11923
929.112	12034
929.218	12072
929.323	12041
929.428	11950
929.533	12125
929.638	11916
929.743	11874
929.848	11927
929.953	11866
930.058	11680
930.163	11665
930.267	11688
930.372	11821
930.477	11615
930.581	11794
930.685	11695
930.79	11543
930.894	11558
930.998	11562
931.103	11619
931.207	11280
931.311	11231
931.415	11094
931.519	10934
931.623	10885
