Data from test_V78500241_595.txt Node
Date: Fri Mar 25 15:45:55 CST 2022
User: usil
Spectrometer: V785-0024
Trigger mode: 0
Integration Time (sec): 4.000000E-1
Scans to average: 1
Nonlinearity correction enabled: false
Boxcar width: 0
Storing dark spectrum: false
XAxis mode: Wavelengths
Number of Pixels in Spectrum: 1024
>>>>>Begin Spectral Data<<<<<
801.071	27431
801.214	27439
801.356	27058
801.499	27138
801.641	26998
801.783	27066
801.926	27112
802.068	27036
802.211	26940
802.353	26910
802.496	26697
802.638	26651
802.78	26731
802.923	26613
803.065	26678
803.208	26621
803.35	26625
803.492	26712
803.635	26727
803.777	26693
803.919	26819
804.061	27066
804.204	26842
804.346	26773
804.488	26659
804.63	26804
804.773	26659
804.915	26807
805.057	26998
805.199	26754
805.341	26940
805.483	26853
805.626	26948
805.768	26815
805.91	26849
806.052	26998
806.194	26781
806.336	27093
806.478	26937
806.62	26842
806.762	27009
806.904	27199
807.046	27477
807.188	27431
807.33	27435
807.472	27412
807.614	27272
807.756	27272
807.898	27081
808.04	27096
808.182	27218
808.324	27192
808.465	27173
808.607	27363
808.749	27515
808.891	27633
809.033	27500
809.174	27667
809.316	27660
809.458	27641
809.6	27603
809.741	27774
809.883	27705
810.025	27895
810.166	27747
810.308	27774
810.45	27876
810.591	27762
810.733	27595
810.875	27435
811.016	27458
811.158	27515
811.299	27682
811.441	27766
811.582	27690
811.724	27564
811.865	27397
812.007	27435
812.148	27462
812.29	27561
812.431	27671
812.573	27926
812.714	28055
812.855	28021
812.997	28238
813.138	28234
813.279	28303
813.421	28169
813.562	27983
813.703	28013
813.845	27873
813.986	27439
814.127	27329
814.268	27329
814.41	27218
814.551	27096
814.692	27241
814.833	27192
814.974	27135
815.115	27184
815.256	27100
815.397	27089
815.539	27043
815.68	26990
815.821	27036
815.962	27024
816.103	27077
816.244	26853
816.385	26807
816.526	26777
816.666	26571
816.807	26537
816.948	26632
817.089	26640
817.23	26518
817.371	26476
817.512	26518
817.653	26446
817.793	26533
817.934	26488
818.075	26377
818.216	26347
818.356	26358
818.497	26473
818.638	26282
818.778	26199
818.919	26130
819.06	26210
819.2	26339
819.341	26473
819.481	26389
819.622	26587
819.762	26830
819.903	26602
820.043	26716
820.184	26556
820.324	26571
820.465	26693
820.605	26533
820.746	26552
820.886	26385
821.026	26499
821.167	26499
821.307	26526
821.447	26453
821.588	26298
821.728	26370
821.868	26153
822.008	26031
822.149	26031
822.289	25868
822.429	25689
822.569	25601
822.709	25445
822.849	25510
822.99	25521
823.13	25426
823.27	25449
823.41	25293
823.55	25023
823.69	25320
823.83	25209
823.97	25168
824.11	25095
824.25	25015
824.389	25160
824.529	25198
824.669	25198
824.809	25187
824.949	25251
825.089	25099
825.228	25027
825.368	25061
825.508	24973
825.648	24958
825.787	25145
825.927	25008
826.067	24924
826.206	25008
826.346	25118
826.485	25004
826.625	24951
826.765	25164
826.904	25046
827.044	24814
827.183	24772
827.323	24684
827.462	24833
827.601	24692
827.741	24707
827.88	24757
828.02	24502
828.159	24692
828.298	24738
828.437	24715
828.577	24642
828.716	24878
828.855	24582
828.994	24330
829.134	24357
829.273	24448
829.412	24418
829.551	24167
829.69	24441
829.829	24384
829.968	24559
830.107	24559
830.246	24467
830.385	24361
830.524	24308
830.663	24224
830.802	24190
830.941	24026
831.08	23992
831.219	23984
831.357	24068
831.496	24087
831.635	24041
831.774	23923
831.913	23920
832.051	23878
832.19	23707
832.329	23805
832.467	23676
832.606	23551
832.744	23779
832.883	23642
833.022	23505
833.16	23627
833.299	23516
833.437	23764
833.576	23707
833.714	23733
833.852	23832
833.991	23783
834.129	23870
834.267	23897
834.406	23885
834.544	23718
834.682	23737
834.821	23657
834.959	23802
835.097	23638
835.235	23638
835.373	23718
835.511	23608
835.65	23623
835.788	23630
835.926	23379
836.064	23345
836.202	23353
836.34	23474
836.478	23710
836.615	23577
836.753	23543
836.891	23520
837.029	23608
837.167	23459
837.305	23535
837.443	23433
837.58	23345
837.718	23497
837.856	23296
837.993	23307
838.131	23429
838.269	23326
838.406	23261
838.544	23204
838.681	23136
838.819	23086
838.956	22786
839.094	22828
839.231	22854
839.369	22980
839.506	23330
839.643	23178
839.781	22866
839.918	22767
840.055	22877
840.193	22843
840.33	22790
840.467	22858
840.604	22763
840.742	22965
840.879	22645
841.016	22816
841.153	22736
841.29	23003
841.427	22733
841.564	22809
841.701	22713
841.838	22660
841.975	22603
842.112	22729
842.249	22565
842.385	22577
842.522	22717
842.659	22580
842.796	22474
842.933	22478
843.069	22462
843.206	22580
843.343	22622
843.479	22546
843.616	22428
843.752	22268
843.889	22318
844.025	22455
844.162	22276
844.298	22386
844.435	22303
844.571	22322
844.708	22272
844.844	22325
844.98	22409
845.117	22402
845.253	22268
845.389	22223
845.525	22032
845.661	22204
845.798	22169
845.934	22147
846.07	22017
846.206	22029
846.342	22070
846.478	22025
846.614	21812
846.75	21656
846.886	21644
847.022	21884
847.158	21705
847.294	21717
847.429	21766
847.565	21781
847.701	22162
847.837	21462
847.972	21454
848.108	21557
848.244	21587
848.379	21351
848.515	21359
848.65	21382
848.786	21416
848.921	21412
849.057	21435
849.192	21428
849.328	21374
849.463	21332
849.598	21268
849.734	21275
849.869	21154
850.004	21192
850.14	21119
850.275	21146
850.41	21135
850.545	21058
850.68	21051
850.815	21093
850.95	21028
851.085	21222
851.22	21154
851.355	21131
851.49	21138
851.625	21096
851.76	21184
851.895	21089
852.03	20948
852.165	21180
852.299	21100
852.434	21192
852.569	21157
852.703	21108
852.838	21264
852.973	21317
853.107	21283
853.242	21047
853.376	20998
853.511	20918
853.645	21013
853.78	21085
853.914	21077
854.048	20952
854.183	20929
854.317	21028
854.451	21127
854.585	20887
854.72	21020
854.854	20944
854.988	20929
855.122	20982
855.256	20952
855.39	20823
855.524	21089
855.658	20960
855.792	20921
855.926	21013
856.06	21074
856.194	20952
856.327	20941
856.461	20914
856.595	20880
856.729	21028
856.862	20990
856.996	21043
857.13	21043
857.263	21077
857.397	21024
857.53	20925
857.664	20960
857.797	21017
857.931	21123
858.064	21009
858.197	21150
858.331	20921
858.464	20880
858.597	20914
858.731	20899
858.864	20864
858.997	20975
859.13	20853
859.263	20990
859.396	21081
859.529	20815
859.662	20815
859.795	20830
859.928	20948
860.061	21127
860.194	21154
860.327	21055
860.46	20967
860.592	21055
860.725	21150
860.858	21150
860.99	20925
861.123	20880
861.256	20807
861.388	20982
861.521	21428
861.653	20857
861.786	20739
861.918	20830
862.05	20883
862.183	21001
862.315	20910
862.447	21001
862.58	20925
862.712	20708
862.844	20594
862.976	20765
863.108	20708
863.24	21222
863.372	20571
863.504	20530
863.636	20617
863.768	20682
863.9	20590
864.032	20564
864.164	20556
864.296	20701
864.428	20823
864.559	20743
864.691	20663
864.823	20613
864.954	20746
865.086	20811
865.217	20461
865.349	20434
865.48	20552
865.612	20552
865.743	20823
865.875	20503
866.006	20541
866.137	20598
866.269	20606
866.4	20549
866.531	20480
866.662	20393
866.793	20400
866.924	20480
867.055	20587
867.186	20518
867.317	20438
867.448	20476
867.579	20495
867.71	20385
867.841	20434
867.972	20499
868.103	20488
868.233	20522
868.364	20484
868.495	20678
868.625	20674
868.756	20819
868.886	20594
869.017	20716
869.147	20796
869.278	20815
869.408	20693
869.539	20781
869.669	20731
869.799	20785
869.929	20876
870.06	20750
870.19	20944
870.32	21085
870.45	21077
870.58	21104
870.71	21157
870.84	21306
870.97	21249
871.1	21135
871.23	21351
871.36	21370
871.489	21245
871.619	21370
871.749	21424
871.879	21332
872.008	21408
872.138	21378
872.267	21302
872.397	21108
872.526	21154
872.656	21138
872.785	21154
872.915	21313
873.044	21431
873.173	21374
873.303	21378
873.432	21481
873.561	21435
873.69	21393
873.819	21332
873.948	21367
874.077	21454
874.206	21275
874.335	21389
874.464	21564
874.593	21564
874.722	21561
874.851	21603
874.979	21583
875.108	21614
875.237	21485
875.365	21523
875.494	21496
875.623	21652
875.751	21572
875.88	21591
876.008	21720
876.136	21781
876.265	21934
876.393	22162
876.521	22010
876.65	22078
876.778	21876
876.906	21926
877.034	21911
877.162	21953
877.29	21823
877.418	21934
877.546	21953
877.674	21888
877.802	21953
877.93	21922
878.058	21880
878.185	21850
878.313	21842
878.441	21960
878.568	21690
878.696	21895
878.824	21892
878.951	22051
879.079	22162
879.206	22238
879.333	22131
879.461	21979
879.588	22090
879.715	22074
879.842	22329
879.97	22021
880.097	21751
880.224	21835
880.351	21797
880.478	21705
880.605	21720
880.732	21808
880.859	21945
880.986	21880
881.112	21831
881.239	21667
881.366	21469
881.493	21389
881.619	21443
881.746	21454
881.872	21245
881.999	21359
882.125	21268
882.252	21431
882.378	21401
882.505	21583
882.631	21249
882.757	21127
882.883	21233
883.01	21043
883.136	20918
883.262	20952
883.388	20899
883.514	21077
883.64	21081
883.766	21081
883.892	20899
884.018	20724
884.143	20963
884.269	21062
884.395	20811
884.52	20765
884.646	20724
884.772	20686
884.897	20629
885.023	20746
885.148	20826
885.274	20891
885.399	20777
885.524	20625
885.65	20697
885.775	20682
885.9	20678
886.025	20689
886.15	20655
886.275	20632
886.4	20522
886.525	20716
886.65	20640
886.775	20648
886.9	20815
887.025	20811
887.149	20727
887.274	20579
887.399	20400
887.523	20317
887.648	20419
887.773	20332
887.897	20575
888.021	20575
888.146	20503
888.27	20568
888.395	20606
888.519	20488
888.643	20575
888.767	20408
888.891	20427
889.015	20259
889.139	20457
889.263	20221
889.387	20434
889.511	20469
889.635	20446
889.759	20252
889.883	20187
890.006	20206
890.13	20355
890.254	20161
890.377	20233
890.501	20092
890.624	19921
890.748	20126
890.871	19871
890.995	19845
891.118	19864
891.241	19864
891.364	19871
891.488	19902
891.611	19734
891.734	19951
891.857	19818
891.98	19864
892.103	19963
892.226	19734
892.349	19814
892.471	19696
892.594	19807
892.717	19727
892.839	19689
892.962	19750
893.085	19799
893.207	19708
893.33	19727
893.452	19788
893.575	19780
893.697	19712
893.819	19807
893.941	19913
894.064	19902
894.186	19689
894.308	19696
894.43	19761
894.552	19902
894.674	19849
894.796	19632
894.918	19628
895.04	19727
895.161	19898
895.283	19776
895.405	19761
895.526	19761
895.648	19719
895.769	19772
895.891	19776
896.012	19826
896.134	19875
896.255	19723
896.376	19776
896.498	19666
896.619	19704
896.74	19818
896.861	19932
896.982	20119
897.103	20294
897.224	20073
897.345	20008
897.466	19936
897.587	19982
897.708	20191
897.828	19955
897.949	20001
898.07	19875
898.19	19913
898.311	20069
898.431	19769
898.552	20058
898.672	20046
898.792	20092
898.913	20039
899.033	19902
899.153	19841
899.273	19807
899.393	19799
899.513	19761
899.633	19704
899.753	19719
899.873	19742
899.993	19776
900.113	19628
900.232	19780
900.352	19624
900.472	19590
900.591	19586
900.711	19597
900.83	19464
900.95	19681
901.069	19582
901.189	19449
901.308	19240
901.427	19179
901.546	19175
901.665	19198
901.784	19160
901.904	19072
902.023	18837
902.141	18673
902.26	18692
902.379	18749
902.498	18646
902.617	18658
902.735	18639
902.854	18654
902.973	18513
903.091	18296
903.21	18285
903.328	18323
903.446	18323
903.565	18140
903.683	18148
903.801	18003
903.919	18178
904.038	18087
904.156	17996
904.274	17939
904.392	17908
904.51	17885
904.627	17893
904.745	17821
904.863	17973
904.981	17600
905.098	17619
905.216	17581
905.334	17638
905.451	17608
905.569	17585
905.686	17570
905.803	17627
905.921	17429
906.038	17315
906.155	17353
906.272	17216
906.389	17341
906.506	17060
906.623	17143
906.74	17140
906.857	17048
906.974	17048
907.091	17185
907.208	17216
907.324	17128
907.441	16896
907.557	16923
907.674	16896
907.79	16820
907.907	16767
908.023	16900
908.139	16835
908.256	16755
908.372	16801
908.488	16554
908.604	16421
908.72	16569
908.836	16554
908.952	16493
909.068	16668
909.184	16596
909.3	16436
909.415	16481
909.531	16478
909.647	16265
909.762	16322
909.878	16181
909.993	16268
910.108	16234
910.224	16306
910.339	16219
910.454	16074
910.57	16112
910.685	16086
910.8	16299
910.915	16238
911.03	16006
911.145	15850
911.259	15857
911.374	15808
911.489	15762
911.604	15759
911.718	15599
911.833	15663
911.947	15568
912.062	15431
912.176	15618
912.291	15534
912.405	15625
912.519	15819
912.633	15747
912.748	15660
912.862	15496
912.976	15534
913.09	15329
913.204	15386
913.318	15439
913.431	15599
913.545	15481
913.659	15492
913.772	15439
913.886	15264
914	15237
914.113	15298
914.226	15336
914.34	15329
914.453	15104
914.566	15169
914.68	15165
914.793	15074
914.906	14781
915.019	14773
915.132	14861
915.245	14880
915.358	14849
915.47	14941
915.583	14819
915.696	14929
915.809	14982
915.921	14899
916.034	14849
916.146	14807
916.259	14731
916.371	14777
916.483	14773
916.595	14579
916.708	14632
916.82	14689
916.932	14625
917.044	14640
917.156	14503
917.268	14533
917.38	14587
917.491	14511
917.603	14499
917.715	14503
917.826	14594
917.938	14507
918.049	14351
918.161	14457
918.272	14514
918.384	14492
918.495	14419
918.606	14351
918.717	14286
918.828	14286
918.939	14187
919.05	14225
919.161	14259
919.272	14096
919.383	14153
919.494	14248
919.604	14454
919.715	14263
919.826	14142
919.936	14183
920.047	14278
920.157	14199
920.267	14450
920.378	14248
920.488	14176
920.598	14431
920.708	14552
920.818	14374
920.928	14358
921.038	14503
921.148	14412
921.258	14286
921.368	14202
921.477	14020
921.587	13909
921.697	13860
921.806	14016
921.916	13822
922.025	13738
922.134	13628
922.244	13613
922.353	13590
922.462	13540
922.571	13415
922.68	13350
922.789	13247
922.898	13255
923.007	13156
923.116	13278
923.224	13312
923.333	13331
923.442	13118
923.55	13080
923.659	13122
923.767	13179
923.876	13057
923.984	13221
924.092	13072
924.201	13084
924.309	13027
924.417	12932
924.525	13000
924.633	13000
924.741	13833
924.849	12734
924.956	12932
925.064	12821
925.172	12574
925.279	12665
925.387	12776
925.494	12719
925.602	12817
925.709	12738
925.816	12578
925.924	12669
926.031	12677
926.138	12673
926.245	12665
926.352	12589
926.459	12677
926.566	12730
926.673	12650
926.779	12566
926.886	12452
926.993	12300
927.099	12327
927.206	12311
927.312	12197
927.419	12338
927.525	12243
927.631	12289
927.737	12178
927.843	12224
927.95	12041
928.056	12060
928.162	12182
928.267	12182
928.373	12726
928.479	12152
928.585	11954
928.69	12060
928.796	12167
928.901	11984
929.007	11885
929.112	11931
929.218	11920
929.323	11904
929.428	11889
929.533	11920
929.638	11843
929.743	11832
929.848	11859
929.953	11775
930.058	11710
930.163	11535
930.267	11535
930.372	11691
930.477	11452
930.581	11794
930.685	11505
930.79	11425
930.894	11539
930.998	11429
931.103	11452
931.207	11216
931.311	11109
931.415	11075
931.519	10740
931.623	10828
