Data from test_V78500241_2199.txt Node
Date: Fri Mar 25 15:57:02 CST 2022
User: usil
Spectrometer: V785-0024
Trigger mode: 0
Integration Time (sec): 4.000000E-1
Scans to average: 1
Nonlinearity correction enabled: false
Boxcar width: 0
Storing dark spectrum: false
XAxis mode: Wavelengths
Number of Pixels in Spectrum: 1024
>>>>>Begin Spectral Data<<<<<
801.071	28599
801.214	28538
801.356	28470
801.499	28306
801.641	28120
801.783	28299
801.926	28166
802.068	28173
802.211	28188
802.353	28051
802.496	28006
802.638	27873
802.78	27892
802.923	27930
803.065	27709
803.208	27953
803.35	27884
803.492	28002
803.635	28139
803.777	27918
803.919	28101
804.061	28363
804.204	28150
804.346	28044
804.488	27926
804.63	28200
804.773	27911
804.915	28139
805.057	28268
805.199	28093
805.341	28371
805.483	28219
805.626	28280
805.768	28284
805.91	28242
806.052	28154
806.194	28002
806.336	28344
806.478	28375
806.62	28360
806.762	28310
806.904	28493
807.046	28740
807.188	28668
807.33	28740
807.472	28786
807.614	28679
807.756	28786
807.898	28546
808.04	28519
808.182	28481
808.324	28546
808.465	28455
808.607	28881
808.749	28927
808.891	29003
809.033	29025
809.174	28965
809.316	28938
809.458	28946
809.6	28881
809.741	29029
809.883	29094
810.025	29345
810.166	29280
810.308	29292
810.45	29170
810.591	29121
810.733	29003
810.875	28953
811.016	28980
811.158	28790
811.299	29098
811.441	29155
811.582	29170
811.724	29136
811.865	28953
812.007	29102
812.148	28942
812.29	28900
812.431	29037
812.573	29288
812.714	29368
812.855	29554
812.997	29558
813.138	29634
813.279	29729
813.421	29356
813.562	29425
813.703	29258
813.845	29044
813.986	28980
814.127	28706
814.268	28580
814.41	28546
814.551	28630
814.692	28645
814.833	28634
814.974	28683
815.115	28607
815.256	28523
815.397	28512
815.539	28592
815.68	28550
815.821	28546
815.962	28527
816.103	28588
816.244	28272
816.385	28322
816.526	28162
816.666	28036
816.807	27884
816.948	28177
817.089	28059
817.23	28059
817.371	27945
817.512	27991
817.653	27960
817.793	27827
817.934	28128
818.075	28032
818.216	27964
818.356	28078
818.497	27827
818.638	27549
818.778	27755
818.919	27701
819.06	27854
819.2	28017
819.341	27953
819.481	27979
819.622	28097
819.762	28325
819.903	28211
820.043	28253
820.184	28082
820.324	28120
820.465	28105
820.605	28192
820.746	28139
820.886	27922
821.026	28116
821.167	27918
821.307	28131
821.447	28150
821.588	27937
821.728	27766
821.868	27545
822.008	27355
822.149	27408
822.289	27363
822.429	27096
822.569	27256
822.709	27157
822.849	26880
822.99	27058
823.13	27005
823.27	27032
823.41	26838
823.55	26564
823.69	26769
823.83	26750
823.97	26785
824.11	26552
824.25	26663
824.389	26629
824.529	26708
824.669	26815
824.809	26625
824.949	26769
825.089	26739
825.228	26750
825.368	26533
825.508	26442
825.648	26514
825.787	26549
825.927	26511
826.067	26442
826.206	26336
826.346	26579
826.485	26594
826.625	26366
826.765	26674
826.904	26609
827.044	26161
827.183	26282
827.323	26244
827.462	26347
827.601	26115
827.741	26202
827.88	26267
828.02	26020
828.159	26248
828.298	26229
828.437	26168
828.577	26077
828.716	26256
828.855	26031
828.994	25928
829.134	26024
829.273	25833
829.412	25955
829.551	25799
829.69	25795
829.829	25887
829.968	25947
830.107	25925
830.246	25894
830.385	25803
830.524	25780
830.663	25708
830.802	25685
830.941	25411
831.08	25460
831.219	25548
831.357	25518
831.496	25818
831.635	25575
831.774	25293
831.913	25468
832.051	25331
832.19	25285
832.329	25388
832.467	25061
832.606	25202
832.744	25099
832.883	25213
833.022	25187
833.16	25175
833.299	25168
833.437	25160
833.576	25225
833.714	25297
833.852	25209
833.991	25240
834.129	25362
834.267	25232
834.406	25209
834.544	25232
834.682	25110
834.821	25114
834.959	25240
835.097	25137
835.235	25217
835.373	25084
835.511	25122
835.65	25107
835.788	25179
835.926	24871
836.064	24916
836.202	24825
836.34	25050
836.478	25236
836.615	25027
836.753	24996
836.891	25221
837.029	25042
837.167	25042
837.305	24935
837.443	24920
837.58	24825
837.718	24890
837.856	24901
837.993	24787
838.131	24817
838.269	24768
838.406	24829
838.544	24684
838.681	24479
838.819	24513
838.956	24410
839.094	24357
839.231	24361
839.369	24532
839.506	24806
839.643	24650
839.781	24338
839.918	24216
840.055	24486
840.193	24384
840.33	24319
840.467	24232
840.604	24308
840.742	24460
840.879	24049
841.016	24178
841.153	24148
841.29	24186
841.427	24194
841.564	24270
841.701	24167
841.838	24174
841.975	24106
842.112	24159
842.249	24106
842.385	24072
842.522	24178
842.659	24060
842.796	23969
842.933	23847
843.069	23893
843.206	23950
843.343	24003
843.479	24106
843.616	24129
843.752	23920
843.889	23798
844.025	23813
844.162	23748
844.298	23866
844.435	23923
844.571	23859
844.708	23779
844.844	23870
844.98	23863
845.117	23954
845.253	23832
845.389	23661
845.525	23798
845.661	23573
845.798	23520
845.934	23577
846.07	23520
846.206	23642
846.342	23676
846.478	23471
846.614	23242
846.75	23200
846.886	23200
847.022	23239
847.158	23341
847.294	23292
847.429	23124
847.565	23265
847.701	23360
847.837	22976
847.972	22949
848.108	23064
848.244	23128
848.379	22991
848.515	22942
848.65	22793
848.786	22908
848.921	22809
849.057	22885
849.192	22835
849.328	22858
849.463	22820
849.598	22923
849.734	22668
849.869	22637
850.004	22584
850.14	22615
850.275	22645
850.41	22653
850.545	22409
850.68	22451
850.815	22592
850.95	22622
851.085	22691
851.22	22691
851.355	22569
851.49	22554
851.625	22462
851.76	22622
851.895	22462
852.03	22596
852.165	22725
852.299	22622
852.434	22729
852.569	22554
852.703	22542
852.838	22660
852.973	22637
853.107	22759
853.242	22516
853.376	22390
853.511	22249
853.645	22352
853.78	22375
853.914	22367
854.048	22306
854.183	22310
854.317	22421
854.451	22656
854.585	22367
854.72	22398
854.854	22489
854.988	22325
855.122	22451
855.256	22257
855.39	22325
855.524	22470
855.658	22485
855.792	22348
855.926	22497
856.06	22466
856.194	22519
856.327	22451
856.461	22314
856.595	22280
856.729	22352
856.862	22443
856.996	22546
857.13	22462
857.263	22470
857.397	22436
857.53	22382
857.664	22497
857.797	22523
857.931	22527
858.064	22363
858.197	22481
858.331	22363
858.464	22344
858.597	22371
858.731	22287
858.864	22436
858.997	22329
859.13	22375
859.263	22356
859.396	22478
859.529	22386
859.662	22295
859.795	22314
859.928	22489
860.061	22675
860.194	22527
860.327	22550
860.46	22405
860.592	22542
860.725	22497
860.858	22516
860.99	22356
861.123	22443
861.256	22367
861.388	22390
861.521	23022
861.653	22249
861.786	22246
861.918	22284
862.05	22249
862.183	22405
862.315	22333
862.447	22337
862.58	22413
862.712	22120
862.844	21975
862.976	22242
863.108	22055
863.24	22569
863.372	22097
863.504	22143
863.636	22124
863.768	22139
863.9	22112
864.032	21998
864.164	22070
864.296	22097
864.428	22268
864.559	22040
864.691	22090
864.823	22192
864.954	22173
865.086	22025
865.217	22109
865.349	21960
865.48	21968
865.612	22002
865.743	22253
865.875	22048
866.006	21842
866.137	21895
866.269	22036
866.4	21972
866.531	21804
866.662	21899
866.793	21918
866.924	21838
867.055	21880
867.186	21934
867.317	21937
867.448	21751
867.579	21854
867.71	21766
867.841	21812
867.972	21861
868.103	21994
868.233	21975
868.364	21869
868.495	21994
868.625	22067
868.756	22261
868.886	22040
869.017	22090
869.147	22196
869.278	22268
869.408	22051
869.539	22242
869.669	22150
869.799	22086
869.929	22276
870.06	22234
870.19	22455
870.32	22386
870.45	22535
870.58	22580
870.71	22561
870.84	22535
870.97	22588
871.1	22478
871.23	22771
871.36	22706
871.489	22641
871.619	22790
871.749	22801
871.879	22736
872.008	22816
872.138	22767
872.267	22694
872.397	22626
872.526	22462
872.656	22561
872.785	22664
872.915	22812
873.044	22831
873.173	22759
873.303	22881
873.432	22774
873.561	22961
873.69	22786
873.819	22774
873.948	22862
874.077	22801
874.206	22801
874.335	22805
874.464	22957
874.593	23102
874.722	22999
874.851	22953
874.979	22934
875.108	23060
875.237	23006
875.365	22953
875.494	23083
875.623	23102
875.751	23037
875.88	23003
876.008	23105
876.136	23124
876.265	23478
876.393	23600
876.521	23547
876.65	23433
876.778	23516
876.906	23368
877.034	23307
877.162	23402
877.29	23356
877.418	23444
877.546	23307
877.674	23452
877.802	23322
877.93	23368
878.058	23345
878.185	23208
878.313	23292
878.441	23273
878.568	23166
878.696	23265
878.824	23353
878.951	23455
879.079	23493
879.206	23592
879.333	23562
879.461	23303
879.588	23398
879.715	23429
879.842	23611
879.97	23463
880.097	23216
880.224	23197
880.351	23258
880.478	23242
880.605	23155
880.732	23178
880.859	23345
880.986	23181
881.112	23181
881.239	23022
881.366	22866
881.493	22957
881.619	22809
881.746	22866
881.872	22915
881.999	22577
882.125	22687
882.252	22790
882.378	22641
882.505	22824
882.631	22512
882.757	22440
882.883	22489
883.01	22481
883.136	22390
883.262	22234
883.388	22306
883.514	22386
883.64	22371
883.766	22322
883.892	22044
884.018	22284
884.143	22325
884.269	22428
884.395	22147
884.52	21941
884.646	22128
884.772	21953
884.897	21907
885.023	22093
885.148	22013
885.274	22131
885.399	22059
885.524	21972
885.65	22036
885.775	22059
885.9	21903
886.025	22131
886.15	22021
886.275	21987
886.4	21888
886.525	21987
886.65	21911
886.775	21975
886.9	22207
887.025	22188
887.149	21994
887.274	21812
887.399	21736
887.523	21835
887.648	21808
887.773	21667
887.897	21838
888.021	21751
888.146	21800
888.27	21854
888.395	21987
888.519	21804
888.643	21793
888.767	21831
888.891	21572
889.015	21618
889.139	21606
889.263	21511
889.387	21644
889.511	21732
889.635	21667
889.759	21599
889.883	21568
890.006	21606
890.13	21705
890.254	21549
890.377	21572
890.501	21374
890.624	21241
890.748	21321
890.871	21218
890.995	21127
891.118	21211
891.241	21138
891.364	21169
891.488	21195
891.611	21112
891.734	21184
891.857	21180
891.98	21058
892.103	21173
892.226	21093
892.349	21020
892.471	20849
892.594	21074
892.717	21093
892.839	21020
892.962	21169
893.085	21077
893.207	21009
893.33	20899
893.452	20933
893.575	21112
893.697	21108
893.819	21055
893.941	21173
894.064	21245
894.186	20982
894.308	20857
894.43	21089
894.552	21173
894.674	21127
894.796	20941
894.918	21070
895.04	21081
895.161	21093
895.283	21070
895.405	20914
895.526	20998
895.648	20941
895.769	20998
895.891	21070
896.012	21123
896.134	21024
896.255	20982
896.376	20929
896.498	21096
896.619	21066
896.74	21062
896.861	21009
896.982	21469
897.103	21496
897.224	21298
897.345	21146
897.466	21146
897.587	21230
897.708	21340
897.828	21249
897.949	21119
898.07	20963
898.19	21173
898.311	21302
898.431	21070
898.552	21192
898.672	21329
898.792	21176
898.913	21275
899.033	21112
899.153	20910
899.273	21017
899.393	20902
899.513	20982
899.633	20971
899.753	20895
899.873	20902
899.993	20971
900.113	20948
900.232	20899
900.352	20872
900.472	20788
900.591	20792
900.711	20861
900.83	20693
900.95	20849
901.069	20716
901.189	20644
901.308	20328
901.427	20225
901.546	20199
901.665	20206
901.784	20263
901.904	20130
902.023	19932
902.141	19811
902.26	19913
902.379	19955
902.498	19887
902.617	19807
902.735	19871
902.854	19814
902.973	19548
903.091	19407
903.21	19350
903.328	19518
903.446	19384
903.565	19282
903.683	19247
903.801	19084
903.919	19183
904.038	19293
904.156	19137
904.274	19042
904.392	18909
904.51	18913
904.627	19004
904.745	19080
904.863	19034
904.981	18905
905.098	18825
905.216	18696
905.334	18738
905.451	18707
905.569	18551
905.686	18654
905.803	18574
905.921	18452
906.038	18525
906.155	18498
906.272	18422
906.389	18228
906.506	18205
906.623	18102
906.74	18125
906.857	18022
906.974	18133
907.091	18114
907.208	18330
907.324	18190
907.441	18197
907.557	17863
907.674	17897
907.79	17843
907.907	17843
908.023	17980
908.139	17958
908.256	17783
908.372	17847
908.488	17817
908.604	17611
908.72	17615
908.836	17539
908.952	17619
909.068	17615
909.184	17779
909.3	17600
909.415	17630
909.531	17577
909.647	17433
909.762	17345
909.878	17311
909.993	17349
910.108	17239
910.224	17330
910.339	17227
910.454	17178
910.57	17052
910.685	17003
910.8	17330
910.915	17322
911.03	17102
911.145	16782
911.259	16984
911.374	16790
911.489	16790
911.604	16835
911.718	16626
911.833	16672
911.947	16653
912.062	16455
912.176	16645
912.291	16577
912.405	16698
912.519	16786
912.633	16816
912.748	16717
912.862	16637
912.976	16421
913.09	16257
913.204	16386
913.318	16440
913.431	16546
913.545	16538
913.659	16493
913.772	16348
913.886	16318
914	16196
914.113	16360
914.226	16367
914.34	16386
914.453	16112
914.566	16188
914.68	16112
914.793	16032
914.906	15831
915.019	15797
915.132	15755
915.245	15831
915.358	15831
915.47	15873
915.583	15743
915.696	15774
915.809	15926
915.921	15949
916.034	15778
916.146	15717
916.259	15804
916.371	15660
916.483	15766
916.595	15660
916.708	15663
916.82	15629
916.932	15599
917.044	15572
917.156	15561
917.268	15511
917.38	15439
917.491	15424
917.603	15530
917.715	15481
917.826	15561
917.938	15435
918.049	15256
918.161	15359
918.272	15557
918.384	15458
918.495	15317
918.606	15310
918.717	15199
918.828	15256
918.939	15233
919.05	15176
919.161	15138
919.272	15013
919.383	15043
919.494	15241
919.604	15378
919.715	15150
919.826	15100
919.936	15097
920.047	15157
920.157	15173
920.267	15218
920.378	15161
920.488	15070
920.598	15351
920.708	15389
920.818	15203
920.928	15237
921.038	15466
921.148	15374
921.258	15142
921.368	14990
921.477	14853
921.587	14853
921.697	14750
921.806	14834
921.916	14689
922.025	14579
922.134	14571
922.244	14412
922.353	14488
922.462	14320
922.571	14301
922.68	14145
922.789	14214
922.898	14172
923.007	14107
923.116	14123
923.224	14107
923.333	14043
923.442	13974
923.55	13951
923.659	13993
923.767	14065
923.876	13890
923.984	14111
924.092	13845
924.201	13917
924.309	13799
924.417	13852
924.525	13788
924.633	13769
924.741	14610
924.849	13613
924.956	13708
925.064	13552
925.172	13430
925.279	13480
925.387	13514
925.494	13537
925.602	13662
925.709	13540
925.816	13358
925.924	13392
926.031	13480
926.138	13449
926.245	13426
926.352	13430
926.459	13476
926.566	13377
926.673	13457
926.779	13213
926.886	13304
926.993	13141
927.099	13050
927.206	12973
927.312	12996
927.419	13050
927.525	12996
927.631	13027
927.737	13004
927.843	12875
927.95	12776
928.056	12798
928.162	12875
928.267	12951
928.373	13639
928.479	12916
928.585	12741
928.69	12844
928.796	12783
928.901	12692
929.007	12563
929.112	12715
929.218	12620
929.323	12574
929.428	12525
929.533	12608
929.638	12536
929.743	12559
929.848	12585
929.953	12532
930.058	12490
930.163	12247
930.267	12258
930.372	12429
930.477	12281
930.581	12422
930.685	12266
930.79	12186
930.894	12091
930.998	12083
931.103	12342
931.207	11897
931.311	11802
931.415	11729
931.519	11482
931.623	11482
