Data from test_V78500241_1349.txt Node
Date: Fri Mar 25 15:51:08 CST 2022
User: usil
Spectrometer: V785-0024
Trigger mode: 0
Integration Time (sec): 4.000000E-1
Scans to average: 1
Nonlinearity correction enabled: false
Boxcar width: 0
Storing dark spectrum: false
XAxis mode: Wavelengths
Number of Pixels in Spectrum: 1024
>>>>>Begin Spectral Data<<<<<
801.071	28128
801.214	28017
801.356	27827
801.499	27884
801.641	27648
801.783	27804
801.926	27663
802.068	27599
802.211	27542
802.353	27629
802.496	27306
802.638	27355
802.78	27321
802.923	27275
803.065	27287
803.208	27260
803.35	27230
803.492	27447
803.635	27507
803.777	27412
803.919	27583
804.061	27857
804.204	27690
804.346	27488
804.488	27382
804.63	27374
804.773	27439
804.915	27481
805.057	27709
805.199	27564
805.341	27542
805.483	27739
805.626	27629
805.768	27439
805.91	27751
806.052	27785
806.194	27606
806.336	27914
806.478	27800
806.62	27736
806.762	27911
806.904	28074
807.046	28143
807.188	28017
807.33	28207
807.472	28139
807.614	28051
807.756	27854
807.898	27865
808.04	27884
808.182	27991
808.324	27960
808.465	28162
808.607	28284
808.749	28200
808.891	28303
809.033	28379
809.174	28474
809.316	28325
809.458	28371
809.6	28238
809.741	28508
809.883	28466
810.025	28656
810.166	28656
810.308	28592
810.45	28596
810.591	28519
810.733	28436
810.875	28272
811.016	28291
811.158	28177
811.299	28485
811.441	28462
811.582	28512
811.724	28421
811.865	28337
812.007	28329
812.148	28390
812.29	28375
812.431	28478
812.573	28694
812.714	28668
812.855	28869
812.997	29067
813.138	29155
813.279	29113
813.421	28805
813.562	28862
813.703	28649
813.845	28535
813.986	28379
814.127	28173
814.268	27994
814.41	28086
814.551	28002
814.692	28025
814.833	28082
814.974	27979
815.115	28021
815.256	27987
815.397	27812
815.539	27880
815.68	27869
815.821	27804
815.962	27937
816.103	27732
816.244	27736
816.385	27542
816.526	27603
816.666	27458
816.807	27363
816.948	27450
817.089	27420
817.23	27310
817.371	27283
817.512	27230
817.653	27203
817.793	27157
817.934	27313
818.075	27416
818.216	27462
818.356	27272
818.497	27135
818.638	27055
818.778	27081
818.919	27188
819.06	27100
819.2	27233
819.341	27306
819.481	27466
819.622	27401
819.762	27686
819.903	27561
820.043	27378
820.184	27416
820.324	27431
820.465	27599
820.605	27542
820.746	27401
820.886	27298
821.026	27454
821.167	27355
821.307	27561
821.447	27355
821.588	27249
821.728	27180
821.868	26956
822.008	26899
822.149	26693
822.289	26815
822.429	26583
822.569	26507
822.709	26560
822.849	26358
822.99	26434
823.13	26282
823.27	26301
823.41	26035
823.55	26081
823.69	26153
823.83	26084
823.97	26210
824.11	25890
824.25	25925
824.389	25944
824.529	26065
824.669	26020
824.809	26142
824.949	26069
825.089	26191
825.228	26020
825.368	25868
825.508	25738
825.648	25807
825.787	25883
825.927	25871
826.067	25818
826.206	25769
826.346	25864
826.485	25727
826.625	25799
826.765	25772
826.904	25868
827.044	25685
827.183	25647
827.323	25552
827.462	25544
827.601	25563
827.741	25533
827.88	25479
828.02	25441
828.159	25567
828.298	25514
828.437	25510
828.577	25658
828.716	25647
828.855	25510
828.994	25301
829.134	25247
829.273	25148
829.412	25118
829.551	25190
829.69	25263
829.829	25217
829.968	25278
830.107	25369
830.246	25217
830.385	25156
830.524	25137
830.663	25004
830.802	24973
830.941	24901
831.08	24753
831.219	24951
831.357	24802
831.496	24962
831.635	24806
831.774	24913
831.913	24757
832.051	24635
832.19	24696
832.329	24730
832.467	24536
832.606	24498
832.744	24528
832.883	24471
833.022	24536
833.16	24502
833.299	24566
833.437	24620
833.576	24582
833.714	24620
833.852	24563
833.991	24810
834.129	24707
834.267	24642
834.406	24612
834.544	24608
834.682	24639
834.821	24513
834.959	24772
835.097	24410
835.235	24711
835.373	24604
835.511	24681
835.65	24448
835.788	24448
835.926	24315
836.064	24159
836.202	24315
836.34	24464
836.478	24574
836.615	24467
836.753	24460
836.891	24262
837.029	24391
837.167	24228
837.305	24323
837.443	24270
837.58	24148
837.718	24254
837.856	24136
837.993	24224
838.131	24216
838.269	23977
838.406	24224
838.544	24003
838.681	23771
838.819	23855
838.956	23642
839.094	23741
839.231	23703
839.369	23764
839.506	24136
839.643	23885
839.781	23729
839.918	23600
840.055	23630
840.193	23619
840.33	23554
840.467	23741
840.604	23668
840.742	23908
840.879	23634
841.016	23436
841.153	23410
841.29	23828
841.427	23531
841.564	23691
841.701	23729
841.838	23589
841.975	23463
842.112	23524
842.249	23493
842.385	23398
842.522	23539
842.659	23467
842.796	23334
842.933	23353
843.069	23395
843.206	23185
843.343	23440
843.479	23360
843.616	23094
843.752	23109
843.889	23204
844.025	23315
844.162	23102
844.298	23220
844.435	23102
844.571	23239
844.708	23269
844.844	23292
844.98	23414
845.117	23242
845.253	23140
845.389	23147
845.525	23048
845.661	22987
845.798	23037
845.934	22930
846.07	22949
846.206	22858
846.342	23060
846.478	22927
846.614	22630
846.75	22554
846.886	22512
847.022	22596
847.158	22637
847.294	22687
847.429	22641
847.565	22546
847.701	22847
847.837	22436
847.972	22371
848.108	22504
848.244	22432
848.379	22204
848.515	22238
848.65	22116
848.786	22226
848.921	22196
849.057	22280
849.192	22204
849.328	22261
849.463	22261
849.598	22086
849.734	22173
849.869	22086
850.004	21922
850.14	21972
850.275	21869
850.41	21926
850.545	21964
850.68	21972
850.815	22040
850.95	22006
851.085	22124
851.22	21998
851.355	21945
851.49	22059
851.625	21861
851.76	21945
851.895	22013
852.03	21873
852.165	21987
852.299	22002
852.434	22067
852.569	21899
852.703	21937
852.838	21922
852.973	22048
853.107	22128
853.242	21873
853.376	21739
853.511	21713
853.645	21736
853.78	21945
853.914	21800
854.048	21720
854.183	21812
854.317	21850
854.451	21949
854.585	21781
854.72	21694
854.854	21884
854.988	21724
855.122	21823
855.256	21622
855.39	21686
855.524	21835
855.658	21800
855.792	21850
855.926	21854
856.06	21838
856.194	21899
856.327	21800
856.461	21770
856.595	21709
856.729	21690
856.862	21876
856.996	21873
857.13	21835
857.263	21941
857.397	21888
857.53	21694
857.664	21724
857.797	21831
857.931	21907
858.064	21808
858.197	21865
858.331	21701
858.464	21800
858.597	21644
858.731	21732
858.864	21644
858.997	21679
859.13	21770
859.263	21789
859.396	21968
859.529	21793
859.662	21774
859.795	21720
859.928	21789
860.061	21842
860.194	22006
860.327	21888
860.46	21781
860.592	21895
860.725	21934
860.858	21899
860.99	21766
861.123	21663
861.256	21724
861.388	21781
861.521	22508
861.653	21587
861.786	21587
861.918	21572
862.05	21614
862.183	21652
862.315	21709
862.447	21816
862.58	21804
862.712	21477
862.844	21428
862.976	21530
863.108	21519
863.24	21915
863.372	21477
863.504	21515
863.636	21526
863.768	21405
863.9	21583
864.032	21523
864.164	21393
864.296	21526
864.428	21492
864.559	21530
864.691	21618
864.823	21564
864.954	21496
865.086	21530
865.217	21408
865.349	21348
865.48	21302
865.612	21382
865.743	21614
865.875	21348
866.006	21252
866.137	21405
866.269	21332
866.4	21370
866.531	21298
866.662	21306
866.793	21359
866.924	21184
867.055	21374
867.186	21359
867.317	21268
867.448	21424
867.579	21332
867.71	21294
867.841	21256
867.972	21298
868.103	21355
868.233	21317
868.364	21256
868.495	21317
868.625	21542
868.756	21690
868.886	21530
869.017	21591
869.147	21625
869.278	21572
869.408	21641
869.539	21610
869.669	21606
869.799	21583
869.929	21610
870.06	21557
870.19	21819
870.32	21842
870.45	21941
870.58	21892
870.71	22147
870.84	22013
870.97	21888
871.1	21873
871.23	22147
871.36	22139
871.489	21953
871.619	22101
871.749	22147
871.879	22162
872.008	22230
872.138	22253
872.267	22246
872.397	22006
872.526	21953
872.656	21972
872.785	21972
872.915	22131
873.044	22166
873.173	22128
873.303	22128
873.432	22086
873.561	22329
873.69	22181
873.819	22177
873.948	22238
874.077	22188
874.206	21994
874.335	22093
874.464	22242
874.593	22402
874.722	22405
874.851	22428
874.979	22314
875.108	22440
875.237	22303
875.365	22226
875.494	22405
875.623	22542
875.751	22436
875.88	22440
876.008	22504
876.136	22504
876.265	22831
876.393	22911
876.521	22858
876.65	22820
876.778	22828
876.906	22706
877.034	22710
877.162	22801
877.29	22618
877.418	22717
877.546	22755
877.674	22691
877.802	22729
877.93	22729
878.058	22729
878.185	22531
878.313	22748
878.441	22618
878.568	22767
878.696	22668
878.824	22824
878.951	22828
879.079	22991
879.206	23064
879.333	22976
879.461	22831
879.588	22748
879.715	22965
879.842	22980
879.97	22713
880.097	22599
880.224	22523
880.351	22599
880.478	22588
880.605	22474
880.732	22436
880.859	22702
880.986	22481
881.112	22603
881.239	22379
881.366	22238
881.493	22207
881.619	22215
881.746	22101
881.872	22204
881.999	22101
882.125	22006
882.252	22162
882.378	22078
882.505	22112
882.631	21960
882.757	21793
882.883	21918
883.01	21892
883.136	21785
883.262	21629
883.388	21686
883.514	21819
883.64	21812
883.766	21713
883.892	21561
884.018	21690
884.143	21804
884.269	21800
884.395	21622
884.52	21443
884.646	21458
884.772	21397
884.897	21397
885.023	21443
885.148	21439
885.274	21534
885.399	21629
885.524	21534
885.65	21500
885.775	21561
885.9	21469
886.025	21591
886.15	21462
886.275	21473
886.4	21317
886.525	21397
886.65	21336
886.775	21481
886.9	21488
887.025	21724
887.149	21298
887.274	21249
887.399	21108
887.523	21199
887.648	21104
887.773	21146
887.897	21332
888.021	21294
888.146	21230
888.27	21207
888.395	21359
888.519	21264
888.643	21127
888.767	21207
888.891	21184
889.015	20952
889.139	21024
889.263	20853
889.387	21169
889.511	21211
889.635	21233
889.759	21001
889.883	21108
890.006	20887
890.13	20963
890.254	20902
890.377	20842
890.501	20686
890.624	20716
890.748	20834
890.871	20762
890.995	20568
891.118	20587
891.241	20549
891.364	20598
891.488	20579
891.611	20587
891.734	20644
891.857	20682
891.98	20659
892.103	20644
892.226	20564
892.349	20431
892.471	20309
892.594	20511
892.717	20457
892.839	20454
892.962	20545
893.085	20537
893.207	20488
893.33	20522
893.452	20393
893.575	20613
893.697	20438
893.819	20533
893.941	20686
894.064	20587
894.186	20370
894.308	20233
894.43	20488
894.552	20613
894.674	20499
894.796	20332
894.918	20431
895.04	20396
895.161	20526
895.283	20457
895.405	20339
895.526	20488
895.648	20484
895.769	20457
895.891	20461
896.012	20583
896.134	20514
896.255	20473
896.376	20381
896.498	20579
896.619	20537
896.74	20488
896.861	20469
896.982	20796
897.103	20960
897.224	20655
897.345	20735
897.466	20678
897.587	20777
897.708	20807
897.828	20773
897.949	20571
898.07	20446
898.19	20533
898.311	20792
898.431	20568
898.552	20651
898.672	20746
898.792	20648
898.913	20724
899.033	20495
899.153	20609
899.273	20355
899.393	20328
899.513	20545
899.633	20370
899.753	20389
899.873	20202
899.993	20438
900.113	20495
900.232	20358
900.352	20339
900.472	20355
900.591	20138
900.711	20252
900.83	20214
900.95	20275
901.069	20278
901.189	20218
901.308	19936
901.427	19772
901.546	19803
901.665	19837
901.784	19727
901.904	19677
902.023	19597
902.141	19415
902.26	19316
902.379	19270
902.498	19244
902.617	19343
902.735	19301
902.854	19266
902.973	19278
903.091	18924
903.21	18947
903.328	18989
903.446	18973
903.565	18776
903.683	18730
903.801	18719
903.919	18757
904.038	18627
904.156	18544
904.274	18563
904.392	18612
904.51	18525
904.627	18395
904.745	18464
904.863	18593
904.981	18338
905.098	18205
905.216	18197
905.334	18346
905.451	18194
905.569	18155
905.686	18144
905.803	18174
905.921	17950
906.038	18041
906.155	17999
906.272	17923
906.389	17821
906.506	17707
906.623	17828
906.74	17676
906.857	17600
906.974	17611
907.091	17824
907.208	17790
907.324	17733
907.441	17691
907.557	17482
907.674	17509
907.79	17318
907.907	17341
908.023	17410
908.139	17501
908.256	17379
908.372	17277
908.488	17330
908.604	17189
908.72	17159
908.836	17162
908.952	17067
909.068	17113
909.184	17280
909.3	17170
909.415	17121
909.531	17140
909.647	16881
909.762	16904
909.878	16854
909.993	16923
910.108	16740
910.224	16835
910.339	16824
910.454	16679
910.57	16649
910.685	16573
910.8	16984
910.915	16771
911.03	16603
911.145	16500
911.259	16413
911.374	16519
911.489	16268
911.604	16272
911.718	16215
911.833	16223
911.947	16154
912.062	16063
912.176	16200
912.291	16265
912.405	16192
912.519	16276
912.633	16367
912.748	16295
912.862	16067
912.976	15949
913.09	15918
913.204	15960
913.318	15937
913.431	16116
913.545	16010
913.659	16139
913.772	15911
913.886	15869
914	15759
914.113	15857
914.226	15956
914.34	15804
914.453	15679
914.566	15865
914.68	15717
914.793	15587
914.906	15523
915.019	15359
915.132	15408
915.245	15405
915.358	15313
915.47	15492
915.583	15416
915.696	15386
915.809	15485
915.921	15534
916.034	15252
916.146	15199
916.259	15226
916.371	15374
916.483	15416
916.595	15222
916.708	15222
916.82	15138
916.932	15195
917.044	15237
917.156	15188
917.268	15009
917.38	15138
917.491	14990
917.603	14998
917.715	15005
917.826	15104
917.938	15024
918.049	14830
918.161	14975
918.272	15013
918.384	14971
918.495	15051
918.606	14792
918.717	14739
918.828	14864
918.939	14727
919.05	14769
919.161	14762
919.272	14549
919.383	14560
919.494	14823
919.604	14918
919.715	14891
919.826	14701
919.936	14769
920.047	14754
920.157	14845
920.267	14925
920.378	14811
920.488	14716
920.598	14887
920.708	15017
920.818	14785
920.928	14948
921.038	15093
921.148	14937
921.258	14670
921.368	14552
921.477	14518
921.587	14488
921.697	14313
921.806	14442
921.916	14317
922.025	14161
922.134	14172
922.244	14081
922.353	14157
922.462	13951
922.571	13932
922.68	13769
922.789	13772
922.898	13807
923.007	13719
923.116	13761
923.224	13696
923.333	13715
923.442	13548
923.55	13601
923.659	13681
923.767	13613
923.876	13483
923.984	13586
924.092	13491
924.201	13556
924.309	13544
924.417	13476
924.525	13419
924.633	13403
924.741	14351
924.849	13304
924.956	13362
925.064	13236
925.172	13107
925.279	13175
925.387	13213
925.494	13183
925.602	13232
925.709	13206
925.816	13069
925.924	13160
926.031	13145
926.138	13080
926.245	13171
926.352	12920
926.459	13164
926.566	13198
926.673	13126
926.779	12954
926.886	12901
926.993	12764
927.099	12791
927.206	12688
927.312	12597
927.419	12791
927.525	12726
927.631	12730
927.737	12566
927.843	12547
927.95	12460
928.056	12467
928.162	12536
928.267	12521
928.373	13103
928.479	12574
928.585	12353
928.69	12426
928.796	12620
928.901	12437
929.007	12353
929.112	12422
929.218	12311
929.323	12300
929.428	12311
929.533	12395
929.638	12213
929.743	12117
929.848	12243
929.953	12281
930.058	12148
930.163	12041
930.267	12015
930.372	12072
930.477	11908
930.581	12197
930.685	12015
930.79	11779
930.894	11863
930.998	11843
931.103	11912
931.207	11524
931.311	11589
931.415	11425
931.519	11246
931.623	11227
