Data from test_V78500241_2230.txt Node
Date: Fri Mar 25 15:57:14 CST 2022
User: usil
Spectrometer: V785-0024
Trigger mode: 0
Integration Time (sec): 4.000000E-1
Scans to average: 1
Nonlinearity correction enabled: false
Boxcar width: 0
Storing dark spectrum: false
XAxis mode: Wavelengths
Number of Pixels in Spectrum: 1024
>>>>>Begin Spectral Data<<<<<
801.071	29128
801.214	29140
801.356	28877
801.499	28900
801.641	28790
801.783	28957
801.926	28820
802.068	28885
802.211	28797
802.353	28858
802.496	28508
802.638	28531
802.78	28523
802.923	28390
803.065	28363
803.208	28371
803.35	28577
803.492	28596
803.635	28733
803.777	28637
803.919	28649
804.061	29041
804.204	28805
804.346	28710
804.488	28702
804.63	28824
804.773	28759
804.915	28877
805.057	28911
805.199	28767
805.341	28934
805.483	29006
805.626	28873
805.768	28774
805.91	29041
806.052	29079
806.194	28797
806.336	29052
806.478	29064
806.62	28961
806.762	29170
806.904	29185
807.046	29429
807.188	29429
807.33	29440
807.472	29433
807.614	29452
807.756	29501
807.898	29231
808.04	29242
808.182	29326
808.324	29296
808.465	29425
808.607	29577
808.749	29649
808.891	29760
809.033	29885
809.174	29767
809.316	29638
809.458	29745
809.6	29611
809.741	29729
809.883	29813
810.025	29821
810.166	29984
810.308	29977
810.45	29980
810.591	29946
810.733	29786
810.875	29710
811.016	29604
811.158	29573
811.299	29874
811.441	29866
811.582	29756
811.724	29691
811.865	29752
812.007	29802
812.148	29779
812.29	29832
812.431	29996
812.573	30110
812.714	30247
812.855	30178
812.997	30353
813.138	30384
813.279	30357
813.421	30155
813.562	30213
813.703	29874
813.845	29878
813.986	29946
814.127	29562
814.268	29463
814.41	29414
814.551	29395
814.692	29490
814.833	29368
814.974	29322
815.115	29554
815.256	29410
815.397	29330
815.539	29429
815.68	29307
815.821	29113
815.962	29284
816.103	29345
816.244	29166
816.385	29041
816.526	29086
816.666	28877
816.807	28725
816.948	28812
817.089	28972
817.23	28733
817.371	28733
817.512	28831
817.653	28786
817.793	28687
817.934	28938
818.075	28649
818.216	28733
818.356	28748
818.497	28584
818.638	28512
818.778	28580
818.919	28493
819.06	28584
819.2	28767
819.341	28713
819.481	28862
819.622	28839
819.762	29208
819.903	29010
820.043	28980
820.184	28953
820.324	28930
820.465	29227
820.605	28980
820.746	28862
820.886	28866
821.026	28828
821.167	28782
821.307	28843
821.447	28919
821.588	28523
821.728	28603
821.868	28516
822.008	28276
822.149	28188
822.289	28181
822.429	28044
822.569	27831
822.709	27991
822.849	27785
822.99	27701
823.13	27705
823.27	27610
823.41	27477
823.55	27500
823.69	27553
823.83	27606
823.97	27572
824.11	27450
824.25	27435
824.389	27386
824.529	27481
824.669	27534
824.809	27583
824.949	27538
825.089	27481
825.228	27420
825.368	27241
825.508	27386
825.648	27272
825.787	27302
825.927	27382
826.067	27298
826.206	27382
826.346	27317
826.485	27332
826.625	27272
826.765	27370
826.904	27382
827.044	27051
827.183	27055
827.323	27127
827.462	27043
827.601	27005
827.741	26918
827.88	27252
828.02	26944
828.159	27096
828.298	26872
828.437	27195
828.577	26880
828.716	27093
828.855	26910
828.994	26636
829.134	26606
829.273	26857
829.412	26644
829.551	26804
829.69	26739
829.829	26602
829.968	26804
830.107	26781
830.246	26712
830.385	26632
830.524	26533
830.663	26541
830.802	26453
830.941	26267
831.08	26305
831.219	26320
831.357	26351
831.496	26465
831.635	26374
831.774	26252
831.913	26214
832.051	26145
832.19	26153
832.329	26027
832.467	25925
832.606	25860
832.744	25883
832.883	25997
833.022	25917
833.16	25966
833.299	26008
833.437	26043
833.576	26073
833.714	25989
833.852	26126
833.991	26229
834.129	26294
834.267	26103
834.406	25974
834.544	25970
834.682	26039
834.821	26008
834.959	26240
835.097	25921
835.235	26111
835.373	25947
835.511	25959
835.65	25928
835.788	25803
835.926	25685
836.064	25594
836.202	25571
836.34	25723
836.478	25974
836.615	25868
836.753	25708
836.891	25917
837.029	25906
837.167	25811
837.305	25727
837.443	25674
837.58	25647
837.718	25639
837.856	25803
837.993	25582
838.131	25609
838.269	25567
838.406	25597
838.544	25476
838.681	25422
838.819	25255
838.956	25141
839.094	25225
839.231	25141
839.369	25312
839.506	25350
839.643	25430
839.781	25050
839.918	25107
840.055	25122
840.193	24932
840.33	25038
840.467	25046
840.604	25118
840.742	25445
840.879	24840
841.016	25099
841.153	24875
841.29	25107
841.427	24996
841.564	25110
841.701	24859
841.838	24890
841.975	25042
842.112	24985
842.249	24875
842.385	24878
842.522	24996
842.659	24966
842.796	24753
842.933	24897
843.069	24760
843.206	24719
843.343	24810
843.479	24901
843.616	24665
843.752	24418
843.889	24563
844.025	24597
844.162	24623
844.298	24696
844.435	24544
844.571	24460
844.708	24574
844.844	24658
844.98	24642
845.117	24722
845.253	24502
845.389	24441
845.525	24448
845.661	24414
845.798	24426
845.934	24346
846.07	24194
846.206	24380
846.342	24353
846.478	24311
846.614	24102
846.75	24064
846.886	24140
847.022	24041
847.158	24205
847.294	24053
847.429	24106
847.565	23935
847.701	24186
847.837	23668
847.972	23771
848.108	23893
848.244	23832
848.379	23604
848.515	23623
848.65	23703
848.786	23627
848.921	23638
849.057	23710
849.192	23722
849.328	23661
849.463	23585
849.598	23531
849.734	23570
849.869	23421
850.004	23315
850.14	23261
850.275	23558
850.41	23265
850.545	23235
850.68	23299
850.815	23364
850.95	23296
851.085	23596
851.22	23440
851.355	23383
851.49	23246
851.625	23459
851.76	23311
851.895	23212
852.03	23231
852.165	23398
852.299	23448
852.434	23505
852.569	23345
852.703	23307
852.838	23402
852.973	23501
853.107	23459
853.242	23273
853.376	23162
853.511	22991
853.645	23197
853.78	23277
853.914	23124
854.048	23216
854.183	23143
854.317	23136
854.451	23383
854.585	23048
854.72	23216
854.854	23258
854.988	23147
855.122	23174
855.256	23064
855.39	23029
855.524	23265
855.658	23220
855.792	23117
855.926	23250
856.06	23258
856.194	23212
856.327	23124
856.461	23121
856.595	23029
856.729	23064
856.862	23265
856.996	23170
857.13	23258
857.263	23197
857.397	23113
857.53	23155
857.664	23181
857.797	23185
857.931	23318
858.064	23204
858.197	23311
858.331	23155
858.464	23086
858.597	23079
858.731	23166
858.864	23067
858.997	22961
859.13	23102
859.263	23277
859.396	23216
859.529	23254
859.662	23159
859.795	23136
859.928	23265
860.061	23200
860.194	23368
860.327	23174
860.46	23239
860.592	23303
860.725	23322
860.858	23387
860.99	23265
861.123	23064
861.256	23124
861.388	23037
861.521	23824
861.653	23010
861.786	22866
861.918	22896
862.05	23067
862.183	23048
862.315	23113
862.447	23170
862.58	23037
862.712	22866
862.844	22908
862.976	23086
863.108	23071
863.24	23391
863.372	22805
863.504	22824
863.636	22862
863.768	23052
863.9	22942
864.032	22801
864.164	22771
864.296	22869
864.428	22919
864.559	22900
864.691	22900
864.823	22824
864.954	22801
865.086	22809
865.217	22748
865.349	22653
865.48	22710
865.612	22725
865.743	22873
865.875	22713
866.006	22611
866.137	22736
866.269	22786
866.4	22656
866.531	22634
866.662	22675
866.793	22656
866.924	22584
867.055	22656
867.186	22679
867.317	22599
867.448	22557
867.579	22607
867.71	22607
867.841	22622
867.972	22672
868.103	22656
868.233	22615
868.364	22634
868.495	22801
868.625	22984
868.756	22980
868.886	22892
869.017	22809
869.147	23067
869.278	22965
869.408	22771
869.539	22919
869.669	23060
869.799	22854
869.929	22999
870.06	23018
870.19	23155
870.32	23235
870.45	23345
870.58	23311
870.71	23406
870.84	23387
870.97	23376
871.1	23364
871.23	23478
871.36	23463
871.489	23387
871.619	23337
871.749	23535
871.879	23452
872.008	23501
872.138	23402
872.267	23524
872.397	23410
872.526	23273
872.656	23277
872.785	23185
872.915	23474
873.044	23585
873.173	23440
873.303	23581
873.432	23554
873.561	23577
873.69	23547
873.819	23429
873.948	23611
874.077	23509
874.206	23539
874.335	23608
874.464	23566
874.593	23684
874.722	23619
874.851	23779
874.979	23733
875.108	23726
875.237	23657
875.365	23642
875.494	23665
875.623	23676
875.751	23691
875.88	23748
876.008	23771
876.136	23832
876.265	24106
876.393	24285
876.521	24152
876.65	24087
876.778	24079
876.906	24110
877.034	24171
877.162	24102
877.29	23977
877.418	24018
877.546	24041
877.674	24114
877.802	24045
877.93	24140
878.058	24064
878.185	24018
878.313	24140
878.441	23984
878.568	23904
878.696	24076
878.824	24053
878.951	24167
879.079	24098
879.206	24346
879.333	24216
879.461	24140
879.588	24178
879.715	24091
879.842	24194
879.97	24148
880.097	23840
880.224	23870
880.351	23935
880.478	23855
880.605	23771
880.732	23885
880.859	24174
880.986	23824
881.112	23992
881.239	23661
881.366	23608
881.493	23592
881.619	23531
881.746	23554
881.872	23410
881.999	23448
882.125	23303
882.252	23360
882.378	23330
882.505	23501
882.631	23220
882.757	23159
882.883	23208
883.01	23090
883.136	23124
883.262	22908
883.388	22991
883.514	23079
883.64	23193
883.766	22961
883.892	22744
884.018	22873
884.143	23079
884.269	23181
884.395	22828
884.52	22748
884.646	22641
884.772	22733
884.897	22592
885.023	22771
885.148	22812
885.274	22835
885.399	22850
885.524	22713
885.65	22717
885.775	22885
885.9	22698
886.025	22820
886.15	22744
886.275	22573
886.4	22653
886.525	22626
886.65	22577
886.775	22504
886.9	22698
887.025	22835
887.149	22656
887.274	22584
887.399	22421
887.523	22451
887.648	22253
887.773	22417
887.897	22577
888.021	22470
888.146	22466
888.27	22497
888.395	22573
888.519	22527
888.643	22535
888.767	22280
888.891	22352
889.015	22333
889.139	22318
889.263	22314
889.387	22386
889.511	22519
889.635	22348
889.759	22204
889.883	22135
890.006	22242
890.13	22447
890.254	22207
890.377	22192
890.501	22086
890.624	21991
890.748	22051
890.871	21903
890.995	21732
891.118	21701
891.241	21850
891.364	21747
891.488	21949
891.611	21800
891.734	21873
891.857	21873
891.98	21789
892.103	21774
892.226	21663
892.349	21755
892.471	21652
892.594	21751
892.717	21728
892.839	21698
892.962	21675
893.085	21793
893.207	21671
893.33	21568
893.452	21431
893.575	21797
893.697	21671
893.819	21797
893.941	21781
894.064	21781
894.186	21663
894.308	21564
894.43	21759
894.552	21793
894.674	21625
894.796	21515
894.918	21698
895.04	21492
895.161	21747
895.283	21652
895.405	21629
895.526	21580
895.648	21641
895.769	21572
895.891	21732
896.012	21717
896.134	21770
896.255	21622
896.376	21523
896.498	21618
896.619	21698
896.74	21511
896.861	21728
896.982	21937
897.103	21941
897.224	21781
897.345	21823
897.466	21770
897.587	21880
897.708	21865
897.828	21907
897.949	21766
898.07	21713
898.19	21660
898.311	21895
898.431	21831
898.552	21804
898.672	21918
898.792	21911
898.913	21797
899.033	21641
899.153	21648
899.273	21595
899.393	21549
899.513	21583
899.633	21450
899.753	21519
899.873	21492
899.993	21496
900.113	21435
900.232	21504
900.352	21408
900.472	21348
900.591	21188
900.711	21188
900.83	21264
900.95	21329
901.069	21477
901.189	21032
901.308	20986
901.427	20777
901.546	20902
901.665	20838
901.784	20941
901.904	20754
902.023	20724
902.141	20442
902.26	20358
902.379	20457
902.498	20282
902.617	20355
902.735	20362
902.854	20332
902.973	20313
903.091	20069
903.21	20012
903.328	19982
903.446	19921
903.565	19898
903.683	19887
903.801	19708
903.919	19666
904.038	19712
904.156	19594
904.274	19552
904.392	19499
904.51	19582
904.627	19533
904.745	19582
904.863	19647
904.981	19362
905.098	19198
905.216	19129
905.334	19320
905.451	19282
905.569	19171
905.686	19312
905.803	19236
905.921	19137
906.038	19221
906.155	18962
906.272	18954
906.389	18962
906.506	18787
906.623	18684
906.74	18623
906.857	18734
906.974	18658
907.091	18859
907.208	18825
907.324	18715
907.441	18555
907.557	18479
907.674	18410
907.79	18277
907.907	18308
908.023	18300
908.139	18388
908.256	18418
908.372	18300
908.488	18311
908.604	18057
908.72	18106
908.836	18266
908.952	18140
909.068	18190
909.184	18197
909.3	18114
909.415	18117
909.531	18068
909.647	17855
909.762	17901
909.878	17893
909.993	17840
910.108	17866
910.224	17813
910.339	17805
910.454	17699
910.57	17543
910.685	17592
910.8	17817
910.915	17756
911.03	17638
911.145	17478
911.259	17429
911.374	17444
911.489	17178
911.604	17242
911.718	17174
911.833	17140
911.947	17064
912.062	16995
912.176	17117
912.291	17181
912.405	17170
912.519	17216
912.633	17318
912.748	17170
912.862	17185
912.976	17022
913.09	16755
913.204	16908
913.318	16930
913.431	16968
913.545	17056
913.659	16949
913.772	16919
913.886	16774
914	16713
914.113	16835
914.226	16828
914.34	16771
914.453	16615
914.566	16850
914.68	16713
914.793	16615
914.906	16375
915.019	16265
915.132	16287
915.245	16333
915.358	16276
915.47	16295
915.583	16272
915.696	16325
915.809	16363
915.921	16523
916.034	16295
916.146	16242
916.259	16173
916.371	16303
916.483	16337
916.595	16143
916.708	16135
916.82	16074
916.932	16074
917.044	16071
917.156	15941
917.268	15960
917.38	15960
917.491	15876
917.603	15994
917.715	16029
917.826	15972
917.938	15846
918.049	15728
918.161	15857
918.272	16017
918.384	16013
918.495	15926
918.606	15755
918.717	15591
918.828	15606
918.939	15778
919.05	15564
919.161	15610
919.272	15439
919.383	15424
919.494	15599
919.604	15781
919.715	15622
919.826	15538
919.936	15549
920.047	15542
920.157	15648
920.267	15656
920.378	15682
920.488	15561
920.598	15686
920.708	15857
920.818	15751
920.928	15610
921.038	15778
921.148	15804
921.258	15633
921.368	15435
921.477	15321
921.587	15344
921.697	15165
921.806	15211
921.916	15062
922.025	14876
922.134	15028
922.244	14902
922.353	14941
922.462	14880
922.571	14689
922.68	14473
922.789	14590
922.898	14606
923.007	14571
923.116	14549
923.224	14541
923.333	14560
923.442	14461
923.55	14408
923.659	14362
923.767	14473
923.876	14214
923.984	14446
924.092	14225
924.201	14286
924.309	14256
924.417	14240
924.525	14123
924.633	14267
924.741	15017
924.849	13978
924.956	14103
925.064	13970
925.172	13921
925.279	13811
925.387	13868
925.494	13879
925.602	14069
925.709	13909
925.816	13837
925.924	13913
926.031	13986
926.138	13871
926.245	13887
926.352	13852
926.459	13814
926.566	13917
926.673	13761
926.779	13658
926.886	13571
926.993	13518
927.099	13483
927.206	13392
927.312	13400
927.419	13449
927.525	13350
927.631	13434
927.737	13282
927.843	13282
927.95	13156
928.056	13187
928.162	13183
928.267	13331
928.373	13906
928.479	13282
928.585	13103
928.69	13160
928.796	13240
928.901	13065
929.007	12943
929.112	13149
929.218	13118
929.323	12916
929.428	12989
929.533	13107
929.638	12916
929.743	12882
929.848	12954
929.953	12783
930.058	12741
930.163	12601
930.267	12757
930.372	12848
930.477	12544
930.581	12795
930.685	12642
930.79	12475
930.894	12582
930.998	12490
931.103	12662
931.207	12323
931.311	12114
931.415	12057
931.519	11874
931.623	11718
