Data from test_V78500241_943.txt Node
Date: Fri Mar 25 15:48:20 CST 2022
User: usil
Spectrometer: V785-0024
Trigger mode: 0
Integration Time (sec): 4.000000E-1
Scans to average: 1
Nonlinearity correction enabled: false
Boxcar width: 0
Storing dark spectrum: false
XAxis mode: Wavelengths
Number of Pixels in Spectrum: 1024
>>>>>Begin Spectral Data<<<<<
801.071	28672
801.214	28565
801.356	28295
801.499	28192
801.641	28093
801.783	28211
801.926	28318
802.068	28158
802.211	28192
802.353	28105
802.496	27816
802.638	27869
802.78	27793
802.923	27747
803.065	27972
803.208	27861
803.35	27914
803.492	27983
803.635	28128
803.777	28032
803.919	28169
804.061	28363
804.204	28166
804.346	27972
804.488	28010
804.63	27972
804.773	28040
804.915	28166
805.057	28291
805.199	28063
805.341	28116
805.483	28261
805.626	28139
805.768	28226
805.91	28207
806.052	28162
806.194	28116
806.336	28401
806.478	28352
806.62	28341
806.762	28405
806.904	28417
807.046	28664
807.188	28573
807.33	28694
807.472	28713
807.614	28611
807.756	28744
807.898	28523
808.04	28557
808.182	28512
808.324	28542
808.465	28603
808.607	28687
808.749	28930
808.891	28923
809.033	29124
809.174	29025
809.316	28938
809.458	28942
809.6	28919
809.741	28991
809.883	29174
810.025	29189
810.166	29246
810.308	29258
810.45	29189
810.591	29193
810.733	28927
810.875	28881
811.016	28786
811.158	28835
811.299	29044
811.441	29071
811.582	29067
811.724	28896
811.865	28839
812.007	28938
812.148	29010
812.29	28923
812.431	29193
812.573	29288
812.714	29364
812.855	29425
812.997	29604
813.138	29703
813.279	29676
813.421	29604
813.562	29440
813.703	29402
813.845	29265
813.986	28919
814.127	28755
814.268	28706
814.41	28736
814.551	28740
814.692	28713
814.833	28653
814.974	28626
815.115	28782
815.256	28535
815.397	28523
815.539	28687
815.68	28466
815.821	28382
815.962	28470
816.103	28512
816.244	28443
816.385	28348
816.526	28291
816.666	27914
816.807	28006
816.948	28082
817.089	28109
817.23	28048
817.371	28078
817.512	27953
817.653	28067
817.793	27983
817.934	27937
818.075	27994
818.216	28078
818.356	27934
818.497	27892
818.638	27797
818.778	27854
818.919	27778
819.06	27869
819.2	27979
819.341	27991
819.481	27968
819.622	28185
819.762	28306
819.903	28341
820.043	28143
820.184	28051
820.324	28070
820.465	28090
820.605	28143
820.746	28131
820.886	28074
821.026	28044
821.167	28139
821.307	28067
821.447	28013
821.588	27831
821.728	27911
821.868	27701
822.008	27481
822.149	27431
822.289	27545
822.429	27348
822.569	27135
822.709	27028
822.849	26975
822.99	27017
823.13	27005
823.27	26883
823.41	26826
823.55	26788
823.69	26773
823.83	26807
823.97	26659
824.11	26625
824.25	26552
824.389	26541
824.529	26765
824.669	26716
824.809	26773
824.949	26716
825.089	26815
825.228	26617
825.368	26530
825.508	26492
825.648	26560
825.787	26583
825.927	26625
826.067	26473
826.206	26423
826.346	26594
826.485	26552
826.625	26457
826.765	26625
826.904	26522
827.044	26278
827.183	26351
827.323	26221
827.462	26309
827.601	26286
827.741	26130
827.88	26377
828.02	26092
828.159	26122
828.298	26218
828.437	26351
828.577	26168
828.716	26313
828.855	26119
828.994	25890
829.134	25978
829.273	26016
829.412	25898
829.551	25818
829.69	25947
829.829	25856
829.968	25966
830.107	25890
830.246	25909
830.385	25788
830.524	25818
830.663	25803
830.802	25605
830.941	25479
831.08	25514
831.219	25594
831.357	25586
831.496	25788
831.635	25529
831.774	25396
831.913	25358
832.051	25175
832.19	25289
832.329	25346
832.467	25324
832.606	25179
832.744	25209
832.883	25255
833.022	25080
833.16	25110
833.299	25301
833.437	25266
833.576	25278
833.714	25396
833.852	25240
833.991	25350
834.129	25312
834.267	25247
834.406	25278
834.544	25350
834.682	25282
834.821	25255
834.959	25479
835.097	25232
835.235	25339
835.373	25171
835.511	25301
835.65	25107
835.788	25217
835.926	24989
836.064	24996
836.202	24886
836.34	25084
836.478	25076
836.615	25122
836.753	25069
836.891	25168
837.029	25297
837.167	25046
837.305	25065
837.443	25053
837.58	24970
837.718	25000
837.856	24939
837.993	24844
838.131	24837
838.269	24700
838.406	24837
838.544	24768
838.681	24608
838.819	24597
838.956	24369
839.094	24285
839.231	24486
839.369	24528
839.506	24787
839.643	24620
839.781	24334
839.918	24270
840.055	24380
840.193	24384
840.33	24254
840.467	24228
840.604	24395
840.742	24578
840.879	24171
841.016	24228
841.153	24197
841.29	24441
841.427	24357
841.564	24304
841.701	24285
841.838	24171
841.975	24121
842.112	24125
842.249	24201
842.385	24110
842.522	24330
842.659	24026
842.796	24114
842.933	23935
843.069	23923
843.206	23954
843.343	24083
843.479	24102
843.616	24053
843.752	23779
843.889	23904
844.025	23973
844.162	23722
844.298	23821
844.435	23832
844.571	23874
844.708	23775
844.844	23992
844.98	23935
845.117	23897
845.253	23840
845.389	23623
845.525	23741
845.661	23630
845.798	23459
845.934	23566
846.07	23570
846.206	23619
846.342	23684
846.478	23520
846.614	23318
846.75	23212
846.886	23353
847.022	23307
847.158	23398
847.294	23178
847.429	23239
847.565	23216
847.701	23474
847.837	23067
847.972	23029
848.108	23033
848.244	23041
848.379	22953
848.515	22710
848.65	22866
848.786	22843
848.921	22908
849.057	22991
849.192	22892
849.328	22847
849.463	22923
849.598	22812
849.734	22710
849.869	22736
850.004	22584
850.14	22622
850.275	22569
850.41	22436
850.545	22603
850.68	22493
850.815	22603
850.95	22500
851.085	22801
851.22	22691
851.355	22546
851.49	22637
851.625	22569
851.76	22615
851.895	22554
852.03	22554
852.165	22679
852.299	22721
852.434	22687
852.569	22580
852.703	22622
852.838	22634
852.973	22710
853.107	22615
853.242	22554
853.376	22527
853.511	22398
853.645	22451
853.78	22531
853.914	22500
854.048	22348
854.183	22280
854.317	22481
854.451	22615
854.585	22455
854.72	22531
854.854	22584
854.988	22272
855.122	22424
855.256	22459
855.39	22440
855.524	22417
855.658	22557
855.792	22554
855.926	22390
856.06	22413
856.194	22565
856.327	22322
856.461	22405
856.595	22375
856.729	22459
856.862	22550
856.996	22466
857.13	22352
857.263	22405
857.397	22535
857.53	22379
857.664	22451
857.797	22451
857.931	22561
858.064	22489
858.197	22523
858.331	22451
858.464	22341
858.597	22230
858.731	22318
858.864	22314
858.997	22382
859.13	22447
859.263	22398
859.396	22535
859.529	22352
859.662	22333
859.795	22314
859.928	22466
860.061	22584
860.194	22599
860.327	22523
860.46	22428
860.592	22592
860.725	22607
860.858	22554
860.99	22455
861.123	22352
861.256	22443
861.388	22428
861.521	23041
861.653	22226
861.786	22207
861.918	22287
862.05	22306
862.183	22325
862.315	22421
862.447	22341
862.58	22329
862.712	22211
862.844	22166
862.976	22253
863.108	22226
863.24	22390
863.372	22093
863.504	22105
863.636	22097
863.768	22090
863.9	22112
864.032	22067
864.164	22086
864.296	22238
864.428	22234
864.559	22177
864.691	22166
864.823	22147
864.954	22010
865.086	22276
865.217	21945
865.349	22021
865.48	22051
865.612	21983
865.743	22196
865.875	21960
866.006	22040
866.137	22055
866.269	22002
866.4	21979
866.531	21907
866.662	21964
866.793	21949
866.924	21968
867.055	21994
867.186	21941
867.317	21819
867.448	21888
867.579	21766
867.71	21762
867.841	21759
867.972	21968
868.103	21934
868.233	21934
868.364	21953
868.495	21888
868.625	22070
868.756	22314
868.886	22070
869.017	22059
869.147	22272
869.278	22238
869.408	22192
869.539	22139
869.669	22234
869.799	22249
869.929	22204
870.06	22268
870.19	22382
870.32	22402
870.45	22535
870.58	22436
870.71	22687
870.84	22706
870.97	22523
871.1	22531
871.23	22710
871.36	22740
871.489	22634
871.619	22793
871.749	22748
871.879	22786
872.008	22847
872.138	22862
872.267	22854
872.397	22592
872.526	22504
872.656	22588
872.785	22569
872.915	22786
873.044	22782
873.173	22744
873.303	22736
873.432	22797
873.561	22942
873.69	22797
873.819	22740
873.948	22850
874.077	22831
874.206	22733
874.335	22763
874.464	22942
874.593	22942
874.722	22919
874.851	23018
874.979	23075
875.108	23102
875.237	22965
875.365	23025
875.494	22972
875.623	23041
875.751	22938
875.88	23037
876.008	23113
876.136	23121
876.265	23254
876.393	23535
876.521	23417
876.65	23691
876.778	23387
876.906	23296
877.034	23296
877.162	23322
877.29	23212
877.418	23383
877.546	23471
877.674	23288
877.802	23379
877.93	23326
878.058	23231
878.185	23261
878.313	23273
878.441	23307
878.568	23170
878.696	23360
878.824	23387
878.951	23433
879.079	23623
879.206	23771
879.333	23551
879.461	23505
879.588	23474
879.715	23592
879.842	23490
879.97	23410
880.097	23239
880.224	23136
880.351	23121
880.478	23132
880.605	23086
880.732	23159
880.859	23299
880.986	23212
881.112	23155
881.239	23018
881.366	22820
881.493	22847
881.619	22717
881.746	22664
881.872	22752
881.999	22733
882.125	22634
882.252	22717
882.378	22668
882.505	22812
882.631	22535
882.757	22436
882.883	22527
883.01	22451
883.136	22322
883.262	22246
883.388	22147
883.514	22386
883.64	22398
883.766	22310
883.892	22105
884.018	22044
884.143	22226
884.269	22478
884.395	22196
884.52	22036
884.646	22044
884.772	21899
884.897	21979
885.023	22067
885.148	22154
885.274	22246
885.399	22067
885.524	21953
885.65	22040
885.775	22032
885.9	21991
886.025	22230
886.15	22082
886.275	21953
886.4	21895
886.525	21941
886.65	21968
886.775	21930
886.9	22135
887.025	22120
887.149	21945
887.274	21793
887.399	21876
887.523	21804
887.648	21739
887.773	21728
887.897	21778
888.021	21778
888.146	21648
888.27	21876
888.395	21823
888.519	21838
888.643	21930
888.767	21751
888.891	21793
889.015	21595
889.139	21606
889.263	21519
889.387	21705
889.511	21793
889.635	21644
889.759	21644
889.883	21606
890.006	21492
890.13	21694
890.254	21500
890.377	21428
890.501	21291
890.624	21245
890.748	21329
890.871	21154
890.995	21165
891.118	21104
891.241	21195
891.364	21154
891.488	21256
891.611	21180
891.734	21039
891.857	21066
891.98	21249
892.103	21085
892.226	21058
892.349	21009
892.471	20883
892.594	21127
892.717	21020
892.839	21161
892.962	21066
893.085	20933
893.207	21020
893.33	20925
893.452	20994
893.575	20944
893.697	20937
893.819	21195
893.941	21173
894.064	21203
894.186	20971
894.308	20857
894.43	20956
894.552	21032
894.674	21028
894.796	21032
894.918	20887
895.04	21070
895.161	20990
895.283	20975
895.405	20910
895.526	21024
895.648	20952
895.769	20925
895.891	21020
896.012	21051
896.134	20941
896.255	21024
896.376	20994
896.498	21051
896.619	21131
896.74	20899
896.861	21013
896.982	21287
897.103	21526
897.224	21272
897.345	21214
897.466	21176
897.587	21154
897.708	21370
897.828	21272
897.949	21161
898.07	21077
898.19	21089
898.311	21237
898.431	21176
898.552	21157
898.672	21256
898.792	21287
898.913	21272
899.033	21142
899.153	21093
899.273	20948
899.393	20948
899.513	20941
899.633	20967
899.753	20941
899.873	20853
899.993	20944
900.113	20857
900.232	20785
900.352	20769
900.472	20804
900.591	20659
900.711	20777
900.83	20648
900.95	20777
901.069	20720
901.189	20674
901.308	20366
901.427	20259
901.546	20294
901.665	20328
901.784	20267
901.904	20161
902.023	20016
902.141	19833
902.26	19879
902.379	19890
902.498	19818
902.617	19677
902.735	19689
902.854	19864
902.973	19727
903.091	19521
903.21	19525
903.328	19445
903.446	19301
903.565	19228
903.683	19206
903.801	19107
903.919	19221
904.038	19103
904.156	19027
904.274	19103
904.392	18875
904.51	19050
904.627	18989
904.745	18966
904.863	19038
904.981	18928
905.098	18540
905.216	18688
905.334	18661
905.451	18772
905.569	18616
905.686	18620
905.803	18589
905.921	18395
906.038	18517
906.155	18521
906.272	18372
906.389	18384
906.506	18228
906.623	18228
906.74	18167
906.857	18060
906.974	18087
907.091	18292
907.208	18315
907.324	18251
907.441	18015
907.557	17935
907.674	17878
907.79	17767
907.907	17821
908.023	17923
908.139	18003
908.256	17828
908.372	17745
908.488	17775
908.604	17703
908.72	17512
908.836	17611
908.952	17570
909.068	17562
909.184	17600
909.3	17570
909.415	17573
909.531	17627
909.647	17277
909.762	17258
909.878	17345
909.993	17322
910.108	17261
910.224	17269
910.339	17318
910.454	17204
910.57	17147
910.685	17189
910.8	17368
910.915	17303
911.03	17060
911.145	16965
911.259	16976
911.374	16915
911.489	16774
911.604	16763
911.718	16672
911.833	16584
911.947	16546
912.062	16516
912.176	16649
912.291	16637
912.405	16573
912.519	16911
912.633	16782
912.748	16713
912.862	16573
912.976	16462
913.09	16371
913.204	16413
913.318	16405
913.431	16481
913.545	16603
913.659	16531
913.772	16390
913.886	16329
914	16188
914.113	16348
914.226	16424
914.34	16310
914.453	16093
914.566	16234
914.68	16109
914.793	15972
914.906	15907
915.019	15846
915.132	15838
915.245	15766
915.358	15895
915.47	15854
915.583	15831
915.696	15819
915.809	15953
915.921	15884
916.034	15861
916.146	15728
916.259	15671
916.371	15823
916.483	15759
916.595	15644
916.708	15557
916.82	15561
916.932	15652
917.044	15488
917.156	15515
917.268	15431
917.38	15443
917.491	15428
917.603	15382
917.715	15515
917.826	15610
917.938	15462
918.049	15374
918.161	15355
918.272	15485
918.384	15454
918.495	15252
918.606	15192
918.717	15116
918.828	15252
918.939	15245
919.05	15077
919.161	15188
919.272	14921
919.383	15001
919.494	15272
919.604	15359
919.715	15192
919.826	15047
919.936	15157
920.047	15165
920.157	15161
920.267	15218
920.378	15070
920.488	15005
920.598	15340
920.708	15507
920.818	15272
920.928	15241
921.038	15317
921.148	15393
921.258	15055
921.368	15062
921.477	14895
921.587	14834
921.697	14739
921.806	14902
921.916	14617
922.025	14632
922.134	14438
922.244	14396
922.353	14598
922.462	14347
922.571	14305
922.68	14229
922.789	14096
922.898	14054
923.007	14088
923.116	14126
923.224	14111
923.333	14119
923.442	13974
923.55	14020
923.659	14016
923.767	13997
923.876	13906
923.984	14024
924.092	13883
924.201	13890
924.309	13784
924.417	13765
924.525	13742
924.633	13765
924.741	14735
924.849	13639
924.956	13681
925.064	13537
925.172	13540
925.279	13491
925.387	13464
925.494	13457
925.602	13597
925.709	13533
925.816	13430
925.924	13441
926.031	13506
926.138	13407
926.245	13483
926.352	13384
926.459	13514
926.566	13480
926.673	13377
926.779	13221
926.886	13225
926.993	13160
927.099	13107
927.206	13034
927.312	13091
927.419	13038
927.525	13061
927.631	13038
927.737	12996
927.843	12943
927.95	12722
928.056	12894
928.162	12886
928.267	12894
928.373	13411
928.479	12871
928.585	12719
928.69	12726
928.796	12890
928.901	12673
929.007	12620
929.112	12703
929.218	12753
929.323	12642
929.428	12623
929.533	12688
929.638	12456
929.743	12589
929.848	12570
929.953	12513
930.058	12437
930.163	12281
930.267	12190
930.372	12380
930.477	12175
930.581	12380
930.685	12308
930.79	12117
930.894	12201
930.998	12072
931.103	12220
931.207	11870
931.311	11828
931.415	11688
931.519	11535
931.623	11474
