Data from test_V78500241_1552.txt Node
Date: Fri Mar 25 15:52:33 CST 2022
User: usil
Spectrometer: V785-0024
Trigger mode: 0
Integration Time (sec): 4.000000E-1
Scans to average: 1
Nonlinearity correction enabled: false
Boxcar width: 0
Storing dark spectrum: false
XAxis mode: Wavelengths
Number of Pixels in Spectrum: 1024
>>>>>Begin Spectral Data<<<<<
801.071	27789
801.214	27629
801.356	27587
801.499	27523
801.641	27241
801.783	27268
801.926	27325
802.068	27298
802.211	27184
802.353	27146
802.496	27077
802.638	27047
802.78	26956
802.923	26811
803.065	26864
803.208	26895
803.35	26960
803.492	27135
803.635	27135
803.777	26899
803.919	27108
804.061	27401
804.204	27180
804.346	27188
804.488	26990
804.63	27024
804.773	26967
804.915	27222
805.057	27321
805.199	27055
805.341	27039
805.483	27310
805.626	27264
805.768	27169
805.91	27211
806.052	27332
806.194	27249
806.336	27511
806.478	27252
806.62	27218
806.762	27218
806.904	27526
807.046	27880
807.188	27682
807.33	27667
807.472	27625
807.614	27633
807.756	27519
807.898	27561
808.04	27530
808.182	27458
808.324	27557
808.465	27515
808.607	27736
808.749	27838
808.891	28021
809.033	27994
809.174	27907
809.316	27949
809.458	27903
809.6	27778
809.741	28051
809.883	28093
810.025	28147
810.166	28040
810.308	28249
810.45	28158
810.591	28090
810.733	27937
810.875	27899
811.016	27671
811.158	27622
811.299	27994
811.441	28055
811.582	28048
811.724	27766
811.865	27663
812.007	27785
812.148	27770
812.29	27914
812.431	28128
812.573	28048
812.714	28215
812.855	28295
812.997	28497
813.138	28546
813.279	28371
813.421	28409
813.562	28211
813.703	28223
813.845	28147
813.986	27865
814.127	27660
814.268	27583
814.41	27545
814.551	27595
814.692	27679
814.833	27408
814.974	27534
815.115	27614
815.256	27359
815.397	27302
815.539	27370
815.68	27272
815.821	27393
815.962	27294
816.103	27138
816.244	27249
816.385	27096
816.526	27135
816.666	27028
816.807	26849
816.948	26868
817.089	26895
817.23	26921
817.371	26925
817.512	26769
817.653	26819
817.793	26746
817.934	26880
818.075	26834
818.216	26849
818.356	26724
818.497	26826
818.638	26663
818.778	26564
818.919	26514
819.06	26644
819.2	26705
819.341	26788
819.481	26727
819.622	26994
819.762	27161
819.903	26975
820.043	26933
820.184	26902
820.324	26952
820.465	27001
820.605	26853
820.746	26937
820.886	26826
821.026	26918
821.167	26872
821.307	26899
821.447	26891
821.588	26765
821.728	26575
821.868	26389
822.008	26225
822.149	26301
822.289	26199
822.429	26161
822.569	25772
822.709	25928
822.849	25689
822.99	25795
823.13	25753
823.27	25620
823.41	25613
823.55	25438
823.69	25518
823.83	25689
823.97	25597
824.11	25430
824.25	25392
824.389	25388
824.529	25586
824.669	25384
824.809	25548
824.949	25578
825.089	25407
825.228	25392
825.368	25274
825.508	25202
825.648	25331
825.787	25343
825.927	25324
826.067	25343
826.206	25304
826.346	25358
826.485	25251
826.625	25285
826.765	25316
826.904	25316
827.044	25065
827.183	25065
827.323	24920
827.462	24951
827.601	25034
827.741	25023
827.88	25126
828.02	24791
828.159	24924
828.298	24973
828.437	24973
828.577	24973
828.716	25145
828.855	24833
828.994	24681
829.134	24825
829.273	24749
829.412	24677
829.551	24757
829.69	24703
829.829	24711
829.968	24776
830.107	24791
830.246	24726
830.385	24544
830.524	24574
830.663	24578
830.802	24452
830.941	24350
831.08	24232
831.219	24395
831.357	24391
831.496	24536
831.635	24247
831.774	24167
831.913	24190
832.051	24045
832.19	24045
832.329	24140
832.467	24110
832.606	23958
832.744	23916
832.883	23939
833.022	23847
833.16	23874
833.299	23828
833.437	23935
833.576	24136
833.714	23946
833.852	23927
833.991	24117
834.129	24079
834.267	24125
834.406	24034
834.544	24117
834.682	23973
834.821	23965
834.959	24190
835.097	23980
835.235	24136
835.373	23999
835.511	24011
835.65	23798
835.788	23786
835.926	23729
836.064	23695
836.202	23672
836.34	23859
836.478	23882
836.615	23824
836.753	23923
836.891	23870
837.029	23821
837.167	23775
837.305	23798
837.443	23760
837.58	23710
837.718	23680
837.856	23680
837.993	23722
838.131	23535
838.269	23596
838.406	23581
838.544	23531
838.681	23303
838.819	23261
838.956	23162
839.094	23105
839.231	23265
839.369	23239
839.506	23577
839.643	23474
839.781	23193
839.918	23181
840.055	23113
840.193	23223
840.33	23102
840.467	23025
840.604	23254
840.742	23379
840.879	22934
841.016	22877
841.153	23052
841.29	23181
841.427	23132
841.564	23170
841.701	23090
841.838	23075
841.975	22984
842.112	22984
842.249	22961
842.385	22942
842.522	23025
842.659	22934
842.796	22793
842.933	22778
843.069	22790
843.206	22713
843.343	22885
843.479	22828
843.616	22850
843.752	22592
843.889	22615
844.025	22843
844.162	22561
844.298	22767
844.435	22664
844.571	22565
844.708	22603
844.844	22615
844.98	22869
845.117	22801
845.253	22618
845.389	22432
845.525	22592
845.661	22504
845.798	22337
845.934	22356
846.07	22284
846.206	22394
846.342	22447
846.478	22341
846.614	22082
846.75	22029
846.886	22044
847.022	22169
847.158	22074
847.294	22135
847.429	22188
847.565	22101
847.701	22329
847.837	21850
847.972	21831
848.108	21892
848.244	21945
848.379	21690
848.515	21660
848.65	21561
848.786	21781
848.921	21701
849.057	21804
849.192	21724
849.328	21766
849.463	21682
849.598	21526
849.734	21545
849.869	21523
850.004	21466
850.14	21408
850.275	21466
850.41	21485
850.545	21485
850.68	21435
850.815	21389
850.95	21386
851.085	21618
851.22	21580
851.355	21351
851.49	21374
851.625	21340
851.76	21382
851.895	21329
852.03	21374
852.165	21405
852.299	21306
852.434	21614
852.569	21485
852.703	21313
852.838	21500
852.973	21492
853.107	21530
853.242	21367
853.376	21165
853.511	21264
853.645	21268
853.78	21454
853.914	21260
854.048	21222
854.183	21199
854.317	21351
854.451	21332
854.585	21241
854.72	21249
854.854	21439
854.988	21154
855.122	21321
855.256	21226
855.39	21199
855.524	21310
855.658	21351
855.792	21424
855.926	21321
856.06	21272
856.194	21241
856.327	21203
856.461	21195
856.595	21268
856.729	21279
856.862	21370
856.996	21382
857.13	21302
857.263	21374
857.397	21355
857.53	21112
857.664	21405
857.797	21302
857.931	21321
858.064	21203
858.197	21443
858.331	21173
858.464	21336
858.597	21169
858.731	21176
858.864	21233
858.997	21310
859.13	21237
859.263	21283
859.396	21344
859.529	21283
859.662	21176
859.795	21207
859.928	21241
860.061	21439
860.194	21473
860.327	21321
860.46	21325
860.592	21389
860.725	21408
860.858	21424
860.99	21237
861.123	21165
861.256	21165
861.388	21214
861.521	21804
861.653	21154
861.786	20998
861.918	21028
862.05	21245
862.183	21142
862.315	21184
862.447	21207
862.58	21264
862.712	20963
862.844	20975
862.976	20986
863.108	21074
863.24	21477
863.372	20914
863.504	21020
863.636	21017
863.768	21017
863.9	21093
864.032	20902
864.164	20979
864.296	21001
864.428	21028
864.559	21070
864.691	21062
864.823	21017
864.954	20967
865.086	20948
865.217	20864
865.349	20769
865.48	20933
865.612	20937
865.743	20971
865.875	20891
866.006	20868
866.137	20792
866.269	20861
866.4	20910
866.531	20785
866.662	20807
866.793	20838
866.924	20842
867.055	20811
867.186	20941
867.317	20830
867.448	20746
867.579	20823
867.71	20765
867.841	20659
867.972	20819
868.103	20819
868.233	20819
868.364	20746
868.495	20914
868.625	20986
868.756	21127
868.886	21081
869.017	21085
869.147	21100
869.278	21169
869.408	20979
869.539	21176
869.669	21119
869.799	21051
869.929	21252
870.06	21260
870.19	21477
870.32	21275
870.45	21405
870.58	21462
870.71	21500
870.84	21534
870.97	21542
871.1	21291
871.23	21519
871.36	21644
871.489	21564
871.619	21606
871.749	21610
871.879	21686
872.008	21785
872.138	21595
872.267	21614
872.397	21519
872.526	21545
872.656	21488
872.785	21511
872.915	21610
873.044	21762
873.173	21599
873.303	21854
873.432	21648
873.561	21724
873.69	21629
873.819	21705
873.948	21686
874.077	21637
874.206	21591
874.335	21644
874.464	21618
874.593	21991
874.722	21907
874.851	21994
874.979	21949
875.108	21941
875.237	21892
875.365	21838
875.494	21835
875.623	21861
875.751	21945
875.88	21835
876.008	22010
876.136	22173
876.265	22284
876.393	22497
876.521	22405
876.65	22432
876.778	22310
876.906	22276
877.034	22211
877.162	22249
877.29	22109
877.418	22246
877.546	22352
877.674	22162
877.802	22173
877.93	22116
878.058	22200
878.185	22234
878.313	22211
878.441	22185
878.568	22063
878.696	22192
878.824	22219
878.951	22440
879.079	22341
879.206	22565
879.333	22348
879.461	22295
879.588	22398
879.715	22341
879.842	22405
879.97	22424
880.097	22116
880.224	22082
880.351	22067
880.478	22059
880.605	22109
880.732	22006
880.859	22234
880.986	22029
881.112	22158
881.239	21937
881.366	21827
881.493	21819
881.619	21641
881.746	21781
881.872	21656
881.999	21629
882.125	21496
882.252	21762
882.378	21656
882.505	21762
882.631	21515
882.757	21313
882.883	21340
883.01	21348
883.136	21256
883.262	21127
883.388	21058
883.514	21393
883.64	21275
883.766	21264
883.892	21070
884.018	21218
884.143	21252
884.269	21439
884.395	21089
884.52	20937
884.646	20948
884.772	20857
884.897	20971
885.023	20971
885.148	21039
885.274	21180
885.399	21066
885.524	20937
885.65	21043
885.775	20956
885.9	20849
886.025	21100
886.15	20982
886.275	21001
886.4	20910
886.525	20937
886.65	20800
886.775	20948
886.9	21093
887.025	21077
887.149	20872
887.274	20769
887.399	20754
887.523	20769
887.648	20807
887.773	20575
887.897	20758
888.021	20857
888.146	20648
888.27	20811
888.395	20849
888.519	20758
888.643	20720
888.767	20906
888.891	20689
889.015	20606
889.139	20617
889.263	20568
889.387	20640
889.511	20678
889.635	20739
889.759	20499
889.883	20530
890.006	20530
890.13	20629
890.254	20507
890.377	20499
890.501	20305
890.624	20301
890.748	20362
890.871	20218
890.995	20065
891.118	20081
891.241	20138
891.364	20077
891.488	20195
891.611	20183
891.734	20263
891.857	20153
891.98	20119
892.103	20233
892.226	20077
892.349	20024
892.471	20027
892.594	19959
892.717	20008
892.839	20020
892.962	20012
893.085	20142
893.207	19959
893.33	19871
893.452	19986
893.575	20103
893.697	19963
893.819	20187
893.941	20138
894.064	20164
894.186	20020
894.308	19997
894.43	20069
894.552	20046
894.674	20138
894.796	19898
894.918	19940
895.04	19970
895.161	20100
895.283	20001
895.405	19936
895.526	20039
895.648	19993
895.769	20065
895.891	20077
896.012	20122
896.134	20073
896.255	20062
896.376	19944
896.498	19997
896.619	20069
896.74	19959
896.861	20054
896.982	20332
897.103	20511
897.224	20343
897.345	20206
897.466	20199
897.587	20294
897.708	20484
897.828	20233
897.949	20248
898.07	20161
898.19	20180
898.311	20294
898.431	20343
898.552	20286
898.672	20301
898.792	20195
898.913	20221
899.033	20202
899.153	20031
899.273	20088
899.393	20054
899.513	20054
899.633	20027
899.753	19940
899.873	20008
899.993	20031
900.113	19913
900.232	19917
900.352	19852
900.472	19875
900.591	19826
900.711	19811
900.83	19871
900.95	19894
901.069	19822
901.189	19624
901.308	19453
901.427	19350
901.546	19373
901.665	19422
901.784	19430
901.904	19240
902.023	19152
902.141	18973
902.26	18996
902.379	18962
902.498	18932
902.617	18913
902.735	18871
902.854	18848
902.973	18734
903.091	18566
903.21	18658
903.328	18540
903.446	18448
903.565	18388
903.683	18498
903.801	18194
903.919	18315
904.038	18266
904.156	18110
904.274	18311
904.392	18030
904.51	18045
904.627	17999
904.745	18117
904.863	18144
904.981	17832
905.098	17836
905.216	17771
905.334	17908
905.451	17847
905.569	17809
905.686	17783
905.803	17798
905.921	17733
906.038	17642
906.155	17608
906.272	17478
906.389	17516
906.506	17349
906.623	17296
906.74	17330
906.857	17242
906.974	17208
907.091	17463
907.208	17448
907.324	17372
907.441	17254
907.557	17052
907.674	16965
907.79	17006
907.907	17067
908.023	16995
908.139	17045
908.256	16961
908.372	16904
908.488	16938
908.604	16908
908.72	16664
908.836	16835
908.952	16679
909.068	16782
909.184	16877
909.3	16713
909.415	16729
909.531	16782
909.647	16565
909.762	16561
909.878	16527
909.993	16382
910.108	16432
910.224	16497
910.339	16470
910.454	16333
910.57	16299
910.685	16249
910.8	16489
910.915	16280
911.03	16272
911.145	16078
911.259	16059
911.374	16120
911.489	16040
911.604	15960
911.718	15876
911.833	15816
911.947	15861
912.062	15778
912.176	15816
912.291	15964
912.405	15823
912.519	15937
912.633	15945
912.748	15831
912.862	15732
912.976	15618
913.09	15504
913.204	15720
913.318	15660
913.431	15675
913.545	15705
913.659	15709
913.772	15576
913.886	15488
914	15370
914.113	15507
914.226	15606
914.34	15515
914.453	15283
914.566	15428
914.68	15302
914.793	15226
914.906	15142
915.019	15100
915.132	14963
915.245	15024
915.358	15024
915.47	14979
915.583	15024
915.696	15024
915.809	15077
915.921	15195
916.034	14979
916.146	14952
916.259	14849
916.371	15017
916.483	14986
916.595	14815
916.708	14918
916.82	14887
916.932	14804
917.044	14830
917.156	14902
917.268	14667
917.38	14819
917.491	14651
917.603	14701
917.715	14823
917.826	14880
917.938	14701
918.049	14507
918.161	14712
918.272	14781
918.384	14758
918.495	14522
918.606	14488
918.717	14431
918.828	14526
918.939	14507
919.05	14320
919.161	14476
919.272	14244
919.383	14298
919.494	14511
919.604	14651
919.715	14434
919.826	14218
919.936	14434
920.047	14389
920.157	14454
920.267	14587
920.378	14393
920.488	14324
920.598	14640
920.708	14697
920.818	14537
920.928	14541
921.038	14659
921.148	14762
921.258	14389
921.368	14275
921.477	14278
921.587	14123
921.697	13963
921.806	14180
921.916	14020
922.025	13875
922.134	13776
922.244	13811
922.353	13860
922.462	13776
922.571	13620
922.68	13480
922.789	13476
922.898	13502
923.007	13384
923.116	13514
923.224	13472
923.333	13396
923.442	13335
923.55	13324
923.659	13422
923.767	13278
923.876	13187
923.984	13384
924.092	13240
924.201	13221
924.309	13107
924.417	13198
924.525	13202
924.633	13129
924.741	14043
924.849	12962
924.956	13118
925.064	12947
925.172	12867
925.279	12871
925.387	12871
925.494	12825
925.602	13004
925.709	12894
925.816	12776
925.924	12871
926.031	12951
926.138	12753
926.245	12821
926.352	12726
926.459	12886
926.566	12947
926.673	12840
926.779	12601
926.886	12612
926.993	12559
927.099	12513
927.206	12414
927.312	12437
927.419	12593
927.525	12490
927.631	12429
927.737	12334
927.843	12247
927.95	12133
928.056	12228
928.162	12277
928.267	12357
928.373	12886
928.479	12323
928.585	12098
928.69	12266
928.796	12262
928.901	12136
929.007	12041
929.112	12015
929.218	12106
929.323	12034
929.428	12079
929.533	12155
929.638	11939
929.743	11965
929.848	12011
929.953	11901
930.058	11874
930.163	11661
930.267	11737
930.372	11893
930.477	11726
930.581	11851
930.685	11794
930.79	11630
930.894	11589
930.998	11543
931.103	11710
931.207	11353
931.311	11231
931.415	11178
931.519	10980
931.623	10972
