Data from test_V78500241_1276.txt Node
Date: Fri Mar 25 15:50:38 CST 2022
User: usil
Spectrometer: V785-0024
Trigger mode: 0
Integration Time (sec): 4.000000E-1
Scans to average: 1
Nonlinearity correction enabled: false
Boxcar width: 0
Storing dark spectrum: false
XAxis mode: Wavelengths
Number of Pixels in Spectrum: 1024
>>>>>Begin Spectral Data<<<<<
801.071	28303
801.214	28128
801.356	27945
801.499	27778
801.641	27808
801.783	27736
801.926	27850
802.068	27755
802.211	27720
802.353	27720
802.496	27496
802.638	27519
802.78	27485
802.923	27397
803.065	27447
803.208	27256
803.35	27416
803.492	27507
803.635	27797
803.777	27496
803.919	27644
804.061	27979
804.204	27713
804.346	27614
804.488	27648
804.63	27622
804.773	27572
804.915	27652
805.057	27778
805.199	27667
805.341	27625
805.483	27835
805.626	27694
805.768	27739
805.91	27819
806.052	27964
806.194	27660
806.336	28025
806.478	27755
806.62	27892
806.762	28017
806.904	28139
807.046	28356
807.188	28234
807.33	28314
807.472	28371
807.614	28344
807.756	28162
807.898	28192
808.04	28040
808.182	28029
808.324	28223
808.465	28310
808.607	28417
808.749	28451
808.891	28698
809.033	28542
809.174	28694
809.316	28459
809.458	28500
809.6	28489
809.741	28546
809.883	28580
810.025	28805
810.166	28850
810.308	28797
810.45	28698
810.591	28736
810.733	28493
810.875	28565
811.016	28470
811.158	28295
811.299	28653
811.441	28641
811.582	28622
811.724	28622
811.865	28462
812.007	28466
812.148	28478
812.29	28466
812.431	28675
812.573	28866
812.714	28976
812.855	29003
812.997	29060
813.138	29208
813.279	29037
813.421	29083
813.562	28980
813.703	28782
813.845	28679
813.986	28542
814.127	28265
814.268	28200
814.41	28230
814.551	28238
814.692	28352
814.833	28242
814.974	28188
815.115	28306
815.256	28055
815.397	28101
815.539	28036
815.68	27941
815.821	27907
815.962	27842
816.103	28021
816.244	27857
816.385	27728
816.526	27747
816.666	27622
816.807	27530
816.948	27534
817.089	27675
817.23	27462
817.371	27553
817.512	27500
817.653	27454
817.793	27454
817.934	27450
818.075	27545
818.216	27454
818.356	27420
818.497	27283
818.638	27313
818.778	27123
818.919	27245
819.06	27173
819.2	27344
819.341	27424
819.481	27576
819.622	27637
819.762	27831
819.903	27701
820.043	27701
820.184	27705
820.324	27542
820.465	27599
820.605	27747
820.746	27572
820.886	27496
821.026	27534
821.167	27504
821.307	27553
821.447	27416
821.588	27397
821.728	27245
821.868	27058
822.008	27001
822.149	27001
822.289	26937
822.429	26746
822.569	26613
822.709	26743
822.849	26568
822.99	26415
823.13	26484
823.27	26446
823.41	26324
823.55	26191
823.69	26103
823.83	26298
823.97	26305
824.11	26149
824.25	26111
824.389	26202
824.529	26161
824.669	26062
824.809	26214
824.949	26286
825.089	26111
825.228	26309
825.368	25955
825.508	25970
825.648	25993
825.787	26111
825.927	25963
826.067	25784
826.206	25986
826.346	26122
826.485	25997
826.625	25879
826.765	26069
826.904	25932
827.044	25845
827.183	25696
827.323	25715
827.462	25788
827.601	25753
827.741	25719
827.88	25693
828.02	25586
828.159	25647
828.298	25628
828.437	25712
828.577	25693
828.716	25727
828.855	25510
828.994	25225
829.134	25441
829.273	25514
829.412	25278
829.551	25282
829.69	25495
829.829	25377
829.968	25384
830.107	25502
830.246	25381
830.385	25343
830.524	25289
830.663	25259
830.802	25118
830.941	25057
831.08	25023
831.219	25023
831.357	25065
831.496	25228
831.635	24878
831.774	24848
831.913	24871
832.051	24856
832.19	24787
832.329	24840
832.467	24654
832.606	24536
832.744	24604
832.883	24738
833.022	24654
833.16	24787
833.299	24681
833.437	24692
833.576	24578
833.714	24768
833.852	24703
833.991	24829
834.129	24859
834.267	24696
834.406	24757
834.544	24810
834.682	24734
834.821	24650
834.959	24909
835.097	24658
835.235	24707
835.373	24722
835.511	24665
835.65	24612
835.788	24627
835.926	24517
836.064	24247
836.202	24414
836.34	24414
836.478	24631
836.615	24502
836.753	24509
836.891	24532
837.029	24582
837.167	24498
837.305	24441
837.443	24517
837.58	24338
837.718	24384
837.856	24395
837.993	24353
838.131	24342
838.269	24311
838.406	24304
838.544	24201
838.681	24087
838.819	23996
838.956	23726
839.094	23817
839.231	23847
839.369	24076
839.506	24273
839.643	24186
839.781	23916
839.918	23764
840.055	23904
840.193	23714
840.33	23939
840.467	23794
840.604	23802
840.742	24015
840.879	23589
841.016	23695
841.153	23802
841.29	23923
841.427	23608
841.564	23786
841.701	23737
841.838	23764
841.975	23642
842.112	23756
842.249	23703
842.385	23516
842.522	23699
842.659	23482
842.796	23619
842.933	23482
843.069	23429
843.206	23406
843.343	23691
843.479	23604
843.616	23395
843.752	23246
843.889	23307
844.025	23353
844.162	23216
844.298	23311
844.435	23315
844.571	23178
844.708	23455
844.844	23459
844.98	23273
845.117	23436
845.253	23162
845.389	23178
845.525	23189
845.661	23155
845.798	23071
845.934	23113
846.07	22869
846.206	23086
846.342	23102
846.478	22965
846.614	22877
846.75	22816
846.886	22759
847.022	22694
847.158	22847
847.294	22641
847.429	22752
847.565	22694
847.701	22904
847.837	22485
847.972	22322
848.108	22508
848.244	22599
848.379	22417
848.515	22303
848.65	22379
848.786	22344
848.921	22284
849.057	22386
849.192	22386
849.328	22299
849.463	22428
849.598	22280
849.734	22181
849.869	22215
850.004	22246
850.14	22188
850.275	22192
850.41	22040
850.545	22185
850.68	22131
850.815	22295
850.95	22120
851.085	22287
851.22	22249
851.355	22120
851.49	22029
851.625	22147
851.76	22154
851.895	22070
852.03	22010
852.165	22154
852.299	22211
852.434	22261
852.569	22090
852.703	22166
852.838	22185
852.973	22295
853.107	22158
853.242	22025
853.376	21934
853.511	21819
853.645	21888
853.78	22082
853.914	21972
854.048	21941
854.183	21876
854.317	21975
854.451	21991
854.585	22025
854.72	21915
854.854	21953
854.988	21899
855.122	21873
855.256	21717
855.39	21953
855.524	21998
855.658	21857
855.792	21975
855.926	21876
856.06	21911
856.194	21873
856.327	21930
856.461	21778
856.595	21816
856.729	22040
856.862	21956
856.996	21926
857.13	21873
857.263	21918
857.397	21956
857.53	21945
857.664	21884
857.797	22010
857.931	22044
858.064	21994
858.197	22063
858.331	22010
858.464	21842
858.597	21819
858.731	21835
858.864	21907
858.997	21895
859.13	21941
859.263	21937
859.396	21945
859.529	21899
859.662	21728
859.795	21793
859.928	21876
860.061	22032
860.194	22112
860.327	21975
860.46	22010
860.592	22162
860.725	22048
860.858	22044
860.99	21964
861.123	21869
861.256	21884
861.388	21930
861.521	22573
861.653	21781
861.786	21816
861.918	21675
862.05	21816
862.183	21842
862.315	21846
862.447	21895
862.58	21808
862.712	21633
862.844	21583
862.976	21759
863.108	21603
863.24	22082
863.372	21595
863.504	21591
863.636	21553
863.768	21618
863.9	21660
864.032	21488
864.164	21606
864.296	21663
864.428	21652
864.559	21698
864.691	21618
864.823	21648
864.954	21568
865.086	21549
865.217	21568
865.349	21450
865.48	21561
865.612	21561
865.743	21526
865.875	21420
866.006	21488
866.137	21580
866.269	21389
866.4	21572
866.531	21466
866.662	21424
866.793	21412
866.924	21401
867.055	21504
867.186	21561
867.317	21325
867.448	21351
867.579	21336
867.71	21336
867.841	21302
867.972	21466
868.103	21481
868.233	21469
868.364	21492
868.495	21515
868.625	21694
868.756	21709
868.886	21515
869.017	21755
869.147	21720
869.278	21804
869.408	21705
869.539	21637
869.669	21747
869.799	21660
869.929	21781
870.06	21759
870.19	22032
870.32	21964
870.45	22025
870.58	22219
870.71	22147
870.84	22097
870.97	22078
871.1	22135
871.23	22238
871.36	22200
871.489	22147
871.619	22177
871.749	22280
871.879	22303
872.008	22367
872.138	22200
872.267	22272
872.397	22128
872.526	22158
872.656	21994
872.785	22131
872.915	22402
873.044	22405
873.173	22329
873.303	22409
873.432	22424
873.561	22299
873.69	22238
873.819	22379
873.948	22535
874.077	22276
874.206	22234
874.335	22249
874.464	22481
874.593	22516
874.722	22538
874.851	22550
874.979	22557
875.108	22573
875.237	22443
875.365	22341
875.494	22386
875.623	22569
875.751	22478
875.88	22516
876.008	22668
876.136	22618
876.265	22892
876.393	23041
876.521	23037
876.65	22976
876.778	22972
876.906	22927
877.034	22828
877.162	22858
877.29	22767
877.418	22980
877.546	22816
877.674	22889
877.802	22809
877.93	22763
878.058	22748
878.185	22824
878.313	22687
878.441	22927
878.568	22683
878.696	22740
878.824	22915
878.951	23003
879.079	22961
879.206	23128
879.333	22999
879.461	22892
879.588	22923
879.715	23140
879.842	23079
879.97	22881
880.097	22717
880.224	22588
880.351	22694
880.478	22797
880.605	22550
880.732	22721
880.859	22847
880.986	22733
881.112	22634
881.239	22607
881.366	22341
881.493	22257
881.619	22314
881.746	22261
881.872	22341
881.999	22120
882.125	22249
882.252	22246
882.378	22234
882.505	22405
882.631	22204
882.757	21998
882.883	21991
883.01	21994
883.136	21876
883.262	21797
883.388	21682
883.514	22090
883.64	22025
883.766	21755
883.892	21724
884.018	21770
884.143	21915
884.269	21861
884.395	21656
884.52	21462
884.646	21538
884.772	21523
884.897	21523
885.023	21595
885.148	21633
885.274	21816
885.399	21709
885.524	21648
885.65	21572
885.775	21610
885.9	21545
886.025	21572
886.15	21633
886.275	21538
886.4	21538
886.525	21515
886.65	21526
886.775	21405
886.9	21580
887.025	21747
887.149	21496
887.274	21386
887.399	21370
887.523	21256
887.648	21405
887.773	21260
887.897	21306
888.021	21500
888.146	21241
888.27	21294
888.395	21336
888.519	21313
888.643	21420
888.767	21408
888.891	21211
889.015	21169
889.139	21180
889.263	21116
889.387	21199
889.511	21302
889.635	21173
889.759	21001
889.883	21195
890.006	21116
890.13	21241
890.254	21055
890.377	20914
890.501	20880
890.624	20849
890.748	20872
890.871	20754
890.995	20598
891.118	20518
891.241	20682
891.364	20705
891.488	20796
891.611	20743
891.734	20632
891.857	20765
891.98	20689
892.103	20754
892.226	20712
892.349	20556
892.471	20473
892.594	20587
892.717	20644
892.839	20552
892.962	20526
893.085	20686
893.207	20552
893.33	20484
893.452	20541
893.575	20613
893.697	20598
893.819	20693
893.941	20720
894.064	20792
894.186	20499
894.308	20503
894.43	20598
894.552	20705
894.674	20655
894.796	20537
894.918	20454
895.04	20537
895.161	20617
895.283	20560
895.405	20522
895.526	20674
895.648	20564
895.769	20526
895.891	20545
896.012	20632
896.134	20499
896.255	20602
896.376	20560
896.498	20590
896.619	20617
896.74	20571
896.861	20667
896.982	20872
897.103	21036
897.224	20826
897.345	20842
897.466	20746
897.587	20777
897.708	20906
897.828	20853
897.949	20663
898.07	20655
898.19	20765
898.311	20815
898.431	20754
898.552	20697
898.672	20952
898.792	20880
898.913	20838
899.033	20659
899.153	20571
899.273	20461
899.393	20568
899.513	20606
899.633	20575
899.753	20575
899.873	20454
899.993	20560
900.113	20450
900.232	20511
900.352	20457
900.472	20412
900.591	20313
900.711	20328
900.83	20225
900.95	20442
901.069	20427
901.189	20107
901.308	20027
901.427	19890
901.546	19921
901.665	19830
901.784	19913
901.904	19689
902.023	19734
902.141	19487
902.26	19426
902.379	19415
902.498	19438
902.617	19320
902.735	19457
902.854	19343
902.973	19225
903.091	19091
903.21	19107
903.328	19053
903.446	18985
903.565	18905
903.683	18924
903.801	18852
903.919	18787
904.038	18844
904.156	18688
904.274	18639
904.392	18593
904.51	18597
904.627	18547
904.745	18639
904.863	18582
904.981	18517
905.098	18330
905.216	18251
905.334	18429
905.451	18323
905.569	18308
905.686	18369
905.803	18315
905.921	18121
906.038	18289
906.155	18194
906.272	17946
906.389	18026
906.506	17843
906.623	17824
906.74	17851
906.857	17649
906.974	17657
907.091	17817
907.208	17878
907.324	17836
907.441	17726
907.557	17535
907.674	17497
907.79	17551
907.907	17490
908.023	17611
908.139	17573
908.256	17493
908.372	17421
908.488	17349
908.604	17231
908.72	17261
908.836	17208
908.952	17090
909.068	17181
909.184	17341
909.3	17185
909.415	17212
909.531	17204
909.647	16976
909.762	16995
909.878	16877
909.993	16961
910.108	16881
910.224	17010
910.339	16915
910.454	16736
910.57	16744
910.685	16683
910.8	17037
910.915	16843
911.03	16733
911.145	16561
911.259	16478
911.374	16584
911.489	16432
911.604	16375
911.718	16325
911.833	16226
911.947	16246
912.062	16128
912.176	16253
912.291	16204
912.405	16367
912.519	16504
912.633	16424
912.748	16322
912.862	16276
912.976	16055
913.09	15945
913.204	16044
913.318	16025
913.431	16204
913.545	16147
913.659	16131
913.772	16093
913.886	15865
914	15960
914.113	15911
914.226	16002
914.34	15895
914.453	15709
914.566	15876
914.68	15713
914.793	15709
914.906	15477
915.019	15557
915.132	15367
915.245	15382
915.358	15553
915.47	15454
915.583	15408
915.696	15515
915.809	15443
915.921	15614
916.034	15386
916.146	15401
916.259	15378
916.371	15466
916.483	15378
916.595	15306
916.708	15386
916.82	15336
916.932	15203
917.044	15237
917.156	15199
917.268	15211
917.38	15146
917.491	15100
917.603	15089
917.715	15203
917.826	15154
917.938	15028
918.049	14998
918.161	15146
918.272	15093
918.384	15230
918.495	15020
918.606	14785
918.717	14811
918.828	14868
918.939	14929
919.05	14762
919.161	14823
919.272	14640
919.383	14693
919.494	14872
919.604	15005
919.715	14906
919.826	14788
919.936	14792
920.047	14887
920.157	14785
920.267	14986
920.378	14743
920.488	14689
920.598	15009
920.708	15161
920.818	14963
920.928	14941
921.038	15013
921.148	15047
921.258	14769
921.368	14686
921.477	14598
921.587	14575
921.697	14355
921.806	14575
921.916	14404
922.025	14267
922.134	14092
922.244	14221
922.353	14244
922.462	14092
922.571	13993
922.68	13803
922.789	13795
922.898	13955
923.007	13746
923.116	13887
923.224	13841
923.333	13769
923.442	13685
923.55	13636
923.659	13719
923.767	13582
923.876	13590
923.984	13685
924.092	13525
924.201	13563
924.309	13601
924.417	13597
924.525	13502
924.633	13563
924.741	14442
924.849	13301
924.956	13403
925.064	13228
925.172	13183
925.279	13187
925.387	13190
925.494	13301
925.602	13358
925.709	13240
925.816	13118
925.924	13095
926.031	13270
926.138	13145
926.245	13183
926.352	13122
926.459	13190
926.566	13240
926.673	13057
926.779	13042
926.886	12886
926.993	12745
927.099	12867
927.206	12692
927.312	12631
927.419	12757
927.525	12760
927.631	12764
927.737	12711
927.843	12593
927.95	12502
928.056	12601
928.162	12639
928.267	12620
928.373	13278
928.479	12681
928.585	12452
928.69	12597
928.796	12654
928.901	12483
929.007	12277
929.112	12407
929.218	12422
929.323	12357
929.428	12330
929.533	12433
929.638	12251
929.743	12308
929.848	12300
929.953	12205
930.058	12175
930.163	11969
930.267	12015
930.372	12178
930.477	11973
930.581	12232
930.685	12045
930.79	11893
930.894	11961
930.998	11798
931.103	12057
931.207	11703
931.311	11638
931.415	11406
931.519	11334
931.623	11280
