Data from test_V78500241_2600.txt Node
Date: Fri Mar 25 15:59:48 CST 2022
User: usil
Spectrometer: V785-0024
Trigger mode: 0
Integration Time (sec): 4.000000E-1
Scans to average: 1
Nonlinearity correction enabled: false
Boxcar width: 0
Storing dark spectrum: false
XAxis mode: Wavelengths
Number of Pixels in Spectrum: 1024
>>>>>Begin Spectral Data<<<<<
801.071	28615
801.214	28778
801.356	28417
801.499	28280
801.641	28303
801.783	28291
801.926	28371
802.068	28261
802.211	28207
802.353	28204
802.496	28147
802.638	28002
802.78	28059
802.923	27918
803.065	27873
803.208	27884
803.35	28169
803.492	28128
803.635	28150
803.777	28120
803.919	28314
804.061	28367
804.204	28265
804.346	28158
804.488	28021
804.63	28344
804.773	28147
804.915	28249
805.057	28303
805.199	28185
805.341	28337
805.483	28432
805.626	28382
805.768	28261
805.91	28424
806.052	28470
806.194	28291
806.336	28599
806.478	28360
806.62	28352
806.762	28523
806.904	28584
807.046	28854
807.188	28820
807.33	28812
807.472	28900
807.614	28828
807.756	28850
807.898	28698
808.04	28584
808.182	28607
808.324	28744
808.465	28725
808.607	28908
808.749	29231
808.891	29143
809.033	29212
809.174	29197
809.316	29166
809.458	29003
809.6	28949
809.741	29197
809.883	29246
810.025	29258
810.166	29318
810.308	29433
810.45	29345
810.591	29337
810.733	29174
810.875	29090
811.016	28965
811.158	29075
811.299	29223
811.441	29162
811.582	29220
811.724	29064
811.865	28999
812.007	29098
812.148	29094
812.29	29159
812.431	29212
812.573	29387
812.714	29577
812.855	29585
812.997	29646
813.138	29935
813.279	29771
813.421	29512
813.562	29592
813.703	29258
813.845	29299
813.986	29143
814.127	28843
814.268	28812
814.41	28763
814.551	28755
814.692	28923
814.833	28854
814.974	28778
815.115	28831
815.256	28755
815.397	28721
815.539	28672
815.68	28626
815.821	28470
815.962	28660
816.103	28592
816.244	28451
816.385	28379
816.526	28295
816.666	28204
816.807	28105
816.948	28112
817.089	28109
817.23	28181
817.371	28017
817.512	28116
817.653	28116
817.793	28036
817.934	28135
818.075	28112
818.216	28192
818.356	28040
818.497	28051
818.638	27873
818.778	27823
818.919	27876
819.06	27914
819.2	28006
819.341	28185
819.481	28051
819.622	28348
819.762	28337
819.903	28421
820.043	28344
820.184	28128
820.324	28253
820.465	28356
820.605	28299
820.746	28253
820.886	27991
821.026	28226
821.167	28207
821.307	28230
821.447	28242
821.588	28040
821.728	27876
821.868	27827
822.008	27606
822.149	27591
822.289	27633
822.429	27458
822.569	27195
822.709	27298
822.849	27176
822.99	27154
823.13	27055
823.27	27024
823.41	26944
823.55	26830
823.69	26925
823.83	26880
823.97	26906
824.11	26632
824.25	26583
824.389	26667
824.529	26845
824.669	26644
824.809	26918
824.949	26842
825.089	26731
825.228	26823
825.368	26625
825.508	26507
825.648	26625
825.787	26693
825.927	26606
826.067	26530
826.206	26499
826.346	26556
826.485	26514
826.625	26598
826.765	26758
826.904	26682
827.044	26412
827.183	26320
827.323	26305
827.462	26473
827.601	26332
827.741	26206
827.88	26377
828.02	26282
828.159	26301
828.298	26332
828.437	26267
828.577	26309
828.716	26537
828.855	26351
828.994	26081
829.134	25989
829.273	26096
829.412	26012
829.551	25955
829.69	25883
829.829	26001
829.968	26077
830.107	25955
830.246	26069
830.385	25887
830.524	25970
830.663	25841
830.802	25731
830.941	25563
831.08	25468
831.219	25609
831.357	25791
831.496	25742
831.635	25704
831.774	25575
831.913	25544
832.051	25514
832.19	25335
832.329	25483
832.467	25419
832.606	25327
832.744	25304
832.883	25312
833.022	25255
833.16	25297
833.299	25244
833.437	25263
833.576	25384
833.714	25411
833.852	25354
833.991	25415
834.129	25293
834.267	25487
834.406	25343
834.544	25422
834.682	25403
834.821	25343
834.959	25483
835.097	25255
835.235	25369
835.373	25339
835.511	25343
835.65	25293
835.788	25190
835.926	25110
836.064	25027
836.202	24989
836.34	25156
836.478	25236
836.615	25103
836.753	25202
836.891	25255
837.029	25266
837.167	25023
837.305	25103
837.443	25004
837.58	25027
837.718	24943
837.856	25050
837.993	25015
838.131	25042
838.269	24817
838.406	24772
838.544	24760
838.681	24544
838.819	24623
838.956	24563
839.094	24395
839.231	24589
839.369	24715
839.506	24783
839.643	24745
839.781	24486
839.918	24551
840.055	24521
840.193	24502
840.33	24422
840.467	24399
840.604	24456
840.742	24665
840.879	24334
841.016	24270
841.153	24338
841.29	24464
841.427	24194
841.564	24369
841.701	24304
841.838	24327
841.975	24190
842.112	24342
842.249	24232
842.385	24171
842.522	24289
842.659	24167
842.796	24205
842.933	24121
843.069	24140
843.206	24106
843.343	24152
843.479	24152
843.616	24140
843.752	23988
843.889	23984
844.025	24057
844.162	23855
844.298	23942
844.435	23935
844.571	23832
844.708	23973
844.844	24003
844.98	24098
845.117	23996
845.253	23805
845.389	23752
845.525	23897
845.661	23794
845.798	23577
845.934	23665
846.07	23573
846.206	23714
846.342	23718
846.478	23642
846.614	23440
846.75	23379
846.886	23356
847.022	23402
847.158	23395
847.294	23372
847.429	23425
847.565	23337
847.701	23615
847.837	23041
847.972	23162
848.108	23197
848.244	23166
848.379	22949
848.515	22976
848.65	22885
848.786	22942
848.921	22927
849.057	23128
849.192	22995
849.328	22961
849.463	22991
849.598	22904
849.734	22915
849.869	22877
850.004	22672
850.14	22885
850.275	22649
850.41	22694
850.545	22641
850.68	22637
850.815	22599
850.95	22565
851.085	22828
851.22	22812
851.355	22801
851.49	22679
851.625	22672
851.76	22679
851.895	22554
852.03	22489
852.165	22710
852.299	22812
852.434	22786
852.569	22869
852.703	22767
852.838	22683
852.973	22869
853.107	22911
853.242	22733
853.376	22443
853.511	22538
853.645	22474
853.78	22611
853.914	22550
854.048	22565
854.183	22447
854.317	22550
854.451	22744
854.585	22611
854.72	22508
854.854	22660
854.988	22489
855.122	22561
855.256	22344
855.39	22588
855.524	22733
855.658	22584
855.792	22523
855.926	22512
856.06	22615
856.194	22592
856.327	22653
856.461	22481
856.595	22451
856.729	22634
856.862	22645
856.996	22660
857.13	22497
857.263	22656
857.397	22607
857.53	22489
857.664	22584
857.797	22603
857.931	22729
858.064	22542
858.197	22656
858.331	22569
858.464	22535
858.597	22413
858.731	22428
858.864	22535
858.997	22622
859.13	22607
859.263	22531
859.396	22554
859.529	22573
859.662	22561
859.795	22428
859.928	22455
860.061	22641
860.194	22607
860.327	22421
860.46	22672
860.592	22694
860.725	22664
860.858	22523
860.99	22664
861.123	22504
861.256	22466
861.388	22516
861.521	23239
861.653	22303
861.786	22310
861.918	22310
862.05	22455
862.183	22516
862.315	22527
862.447	22470
862.58	22432
862.712	22310
862.844	22226
862.976	22192
863.108	22284
863.24	22687
863.372	22207
863.504	22310
863.636	22204
863.768	22356
863.9	22188
864.032	22234
864.164	22238
864.296	22356
864.428	22360
864.559	22333
864.691	22329
864.823	22382
864.954	22272
865.086	22143
865.217	22200
865.349	22082
865.48	22249
865.612	22200
865.743	22314
865.875	22124
866.006	22105
866.137	22086
866.269	22158
866.4	22192
866.531	22029
866.662	22086
866.793	22063
866.924	22154
867.055	22223
867.186	22082
867.317	21998
867.448	21915
867.579	22116
867.71	22032
867.841	22086
867.972	22101
868.103	22097
868.233	22048
868.364	22082
868.495	22158
868.625	22344
868.756	22405
868.886	22238
869.017	22310
869.147	22352
869.278	22443
869.408	22318
869.539	22303
869.669	22314
869.799	22375
869.929	22481
870.06	22466
870.19	22637
870.32	22630
870.45	22679
870.58	22847
870.71	22672
870.84	22797
870.97	22641
871.1	22733
871.23	22946
871.36	22881
871.489	22850
871.619	22877
871.749	22915
871.879	22927
872.008	23113
872.138	23033
872.267	23014
872.397	22850
872.526	22763
872.656	22786
872.785	22763
872.915	23075
873.044	22980
873.173	22854
873.303	23098
873.432	22915
873.561	23048
873.69	22892
873.819	22991
873.948	22919
874.077	22961
874.206	22934
874.335	22980
874.464	23075
874.593	23140
874.722	23079
874.851	23166
874.979	23254
875.108	23178
875.237	23136
875.365	23136
875.494	23166
875.623	23124
875.751	23155
875.88	23128
876.008	23269
876.136	23356
876.265	23459
876.393	23680
876.521	23615
876.65	23661
876.778	23646
876.906	23501
877.034	23463
877.162	23657
877.29	23478
877.418	23490
877.546	23452
877.674	23467
877.802	23592
877.93	23444
878.058	23482
878.185	23398
878.313	23440
878.441	23543
878.568	23311
878.696	23467
878.824	23539
878.951	23570
879.079	23680
879.206	23623
879.333	23786
879.461	23562
879.588	23596
879.715	23471
879.842	23733
879.97	23661
880.097	23425
880.224	23379
880.351	23455
880.478	23231
880.605	23235
880.732	23208
880.859	23531
880.986	23296
881.112	23330
881.239	23185
881.366	23052
881.493	22839
881.619	22938
881.746	22881
881.872	22881
881.999	22771
882.125	22725
882.252	22828
882.378	22927
882.505	22877
882.631	22725
882.757	22577
882.883	22713
883.01	22580
883.136	22436
883.262	22390
883.388	22322
883.514	22592
883.64	22500
883.766	22386
883.892	22337
884.018	22375
884.143	22310
884.269	22554
884.395	22192
884.52	22059
884.646	22234
884.772	22086
884.897	22021
885.023	22204
885.148	22276
885.274	22398
885.399	22291
885.524	22154
885.65	22215
885.775	22135
885.9	22204
886.025	22291
886.15	22291
886.275	22166
886.4	22074
886.525	22166
886.65	22097
886.775	22048
886.9	22253
887.025	22204
887.149	22048
887.274	21949
887.399	21937
887.523	22013
887.648	21804
887.773	21823
887.897	22105
888.021	21979
888.146	21804
888.27	21937
888.395	22029
888.519	21930
888.643	22051
888.767	21945
888.891	21835
889.015	21644
889.139	21823
889.263	21732
889.387	21797
889.511	21884
889.635	21884
889.759	21599
889.883	21709
890.006	21720
890.13	21679
890.254	21713
890.377	21682
890.501	21412
890.624	21458
890.748	21458
890.871	21412
890.995	21294
891.118	21351
891.241	21367
891.364	21370
891.488	21424
891.611	21268
891.734	21283
891.857	21367
891.98	21386
892.103	21233
892.226	21264
892.349	21272
892.471	21093
892.594	21131
892.717	21112
892.839	21127
892.962	21226
893.085	21169
893.207	21138
893.33	20982
893.452	21123
893.575	21112
893.697	21127
893.819	21275
893.941	21306
894.064	21233
894.186	21142
894.308	21131
894.43	21203
894.552	21386
894.674	21222
894.796	21051
894.918	21226
895.04	21085
895.161	21283
895.283	21211
895.405	21154
895.526	21195
895.648	21058
895.769	21077
895.891	21184
896.012	21268
896.134	21184
896.255	21157
896.376	20971
896.498	21135
896.619	21142
896.74	21119
896.861	21081
896.982	21291
897.103	21629
897.224	21344
897.345	21340
897.466	21298
897.587	21329
897.708	21481
897.828	21344
897.949	21294
898.07	21245
898.19	21298
898.311	21363
898.431	21325
898.552	21249
898.672	21386
898.792	21443
898.913	21241
899.033	21173
899.153	21195
899.273	20933
899.393	21070
899.513	21192
899.633	21051
899.753	21058
899.873	21020
899.993	21135
900.113	20990
900.232	21165
900.352	20948
900.472	20804
900.591	20731
900.711	20883
900.83	20819
900.95	20853
901.069	20975
901.189	20720
901.308	20469
901.427	20381
901.546	20457
901.665	20385
901.784	20442
901.904	20195
902.023	20301
902.141	19982
902.26	19928
902.379	19951
902.498	19921
902.617	19791
902.735	19917
902.854	19864
902.973	19856
903.091	19651
903.21	19594
903.328	19544
903.446	19533
903.565	19381
903.683	19324
903.801	19327
903.919	19430
904.038	19304
904.156	19069
904.274	19190
904.392	19080
904.51	19076
904.627	19046
904.745	19084
904.863	19110
904.981	18935
905.098	18726
905.216	18760
905.334	18932
905.451	18696
905.569	18798
905.686	18810
905.803	18825
905.921	18604
906.038	18612
906.155	18635
906.272	18536
906.389	18395
906.506	18346
906.623	18342
906.74	18380
906.857	18197
906.974	18323
907.091	18426
907.208	18285
907.324	18418
907.441	18174
907.557	18079
907.674	18079
907.79	17946
907.907	17904
908.023	18041
908.139	18148
908.256	17904
908.372	17817
908.488	17828
908.604	17828
908.72	17668
908.836	17779
908.952	17623
909.068	17687
909.184	17882
909.3	17684
909.415	17805
909.531	17676
909.647	17395
909.762	17368
909.878	17433
909.993	17379
910.108	17330
910.224	17334
910.339	17463
910.454	17185
910.57	17284
910.685	17166
910.8	17455
910.915	17448
911.03	17204
911.145	17014
911.259	17071
911.374	17079
911.489	16980
911.604	16816
911.718	16759
911.833	16820
911.947	16565
912.062	16561
912.176	16748
912.291	16755
912.405	16698
912.519	16915
912.633	16915
912.748	16771
912.862	16725
912.976	16459
913.09	16535
913.204	16432
913.318	16641
913.431	16645
913.545	16607
913.659	16615
913.772	16489
913.886	16382
914	16363
914.113	16402
914.226	16462
914.34	16398
914.453	16185
914.566	16310
914.68	16333
914.793	16131
914.906	16006
915.019	15926
915.132	15846
915.245	15903
915.358	15892
915.47	15918
915.583	15903
915.696	15930
915.809	15968
915.921	16067
916.034	15804
916.146	15800
916.259	15743
916.371	15892
916.483	15945
916.595	15713
916.708	15728
916.82	15755
916.932	15770
917.044	15755
917.156	15690
917.268	15500
917.38	15606
917.491	15481
917.603	15538
917.715	15591
917.826	15686
917.938	15469
918.049	15439
918.161	15435
918.272	15591
918.384	15443
918.495	15515
918.606	15378
918.717	15298
918.828	15412
918.939	15283
919.05	15165
919.161	15283
919.272	15036
919.383	15157
919.494	15214
919.604	15401
919.715	15313
919.826	15142
919.936	15230
920.047	15332
920.157	15222
920.267	15348
920.378	15211
920.488	15157
920.598	15363
920.708	15511
920.818	15310
920.928	15420
921.038	15564
921.148	15469
921.258	15237
921.368	15108
921.477	14963
921.587	14948
921.697	14826
921.806	14975
921.916	14845
922.025	14594
922.134	14594
922.244	14587
922.353	14613
922.462	14374
922.571	14355
922.68	14240
922.789	14214
922.898	14183
923.007	14240
923.116	14183
923.224	14138
923.333	14199
923.442	14043
923.55	14031
923.659	14008
923.767	14065
923.876	14001
923.984	14062
924.092	13959
924.201	14001
924.309	13871
924.417	13959
924.525	13845
924.633	13826
924.741	14815
924.849	13761
924.956	13871
925.064	13616
925.172	13525
925.279	13597
925.387	13620
925.494	13586
925.602	13753
925.709	13613
925.816	13453
925.924	13552
926.031	13624
926.138	13540
926.245	13499
926.352	13422
926.459	13655
926.566	13647
926.673	13449
926.779	13365
926.886	13293
926.993	13183
927.099	13133
927.206	13156
927.312	13061
927.419	13217
927.525	13145
927.631	13129
927.737	12901
927.843	13019
927.95	12817
928.056	12947
928.162	12954
928.267	13072
928.373	13529
928.479	13015
928.585	12734
928.69	12863
928.796	12886
928.901	12825
929.007	12608
929.112	12768
929.218	12715
929.323	12673
929.428	12722
929.533	12783
929.638	12559
929.743	12597
929.848	12635
929.953	12623
930.058	12536
930.163	12304
930.267	12403
930.372	12441
930.477	12209
930.581	12536
930.685	12395
930.79	12254
930.894	12159
930.998	12209
931.103	12311
931.207	12045
931.311	11866
931.415	11821
931.519	11592
931.623	11528
