Data from test_V78500241_2654.txt Node
Date: Fri Mar 25 16:00:11 CST 2022
User: usil
Spectrometer: V785-0024
Trigger mode: 0
Integration Time (sec): 4.000000E-1
Scans to average: 1
Nonlinearity correction enabled: false
Boxcar width: 0
Storing dark spectrum: false
XAxis mode: Wavelengths
Number of Pixels in Spectrum: 1024
>>>>>Begin Spectral Data<<<<<
801.071	28554
801.214	28459
801.356	28363
801.499	28124
801.641	28196
801.783	28135
801.926	28344
802.068	28112
802.211	28200
802.353	28112
802.496	27899
802.638	27892
802.78	27876
802.923	27869
803.065	27511
803.208	27941
803.35	27888
803.492	27941
803.635	28181
803.777	28002
803.919	28177
804.061	28382
804.204	28177
804.346	27956
804.488	28051
804.63	27968
804.773	28074
804.915	28223
805.057	28360
805.199	28192
805.341	28242
805.483	28322
805.626	28310
805.768	28086
805.91	28360
806.052	28261
806.194	28139
806.336	28356
806.478	28337
806.62	28318
806.762	28325
806.904	28611
807.046	28805
807.188	28683
807.33	28615
807.472	28930
807.614	28645
807.756	28687
807.898	28675
808.04	28493
808.182	28577
808.324	28649
808.465	28596
808.607	28900
808.749	28949
808.891	28949
809.033	29265
809.174	28972
809.316	28858
809.458	28843
809.6	28908
809.741	29033
809.883	29033
810.025	29242
810.166	29341
810.308	29322
810.45	29185
810.591	29227
810.733	29010
810.875	28946
811.016	28706
811.158	28896
811.299	29098
811.441	29136
811.582	29174
811.724	28888
811.865	28896
812.007	28888
812.148	28904
812.29	28995
812.431	29246
812.573	29322
812.714	29429
812.855	29501
812.997	29566
813.138	29786
813.279	29676
813.421	29505
813.562	29429
813.703	29296
813.845	29124
813.986	28854
814.127	28767
814.268	28725
814.41	28721
814.551	28733
814.692	28577
814.833	28630
814.974	28694
815.115	28622
815.256	28443
815.397	28432
815.539	28493
815.68	28516
815.821	28382
815.962	28493
816.103	28546
816.244	28238
816.385	28230
816.526	28131
816.666	28048
816.807	27994
816.948	27914
817.089	28074
817.23	28032
817.371	28051
817.512	27918
817.653	27918
817.793	27956
817.934	27907
818.075	27987
818.216	27854
818.356	27869
818.497	27892
818.638	27656
818.778	27770
818.919	27679
819.06	27846
819.2	27861
819.341	28086
819.481	27895
819.622	28051
819.762	28215
819.903	28192
820.043	28207
820.184	28067
820.324	28093
820.465	28120
820.605	28154
820.746	28074
820.886	27827
821.026	28150
821.167	28078
821.307	28139
821.447	28067
821.588	27846
821.728	27797
821.868	27648
822.008	27450
822.149	27523
822.289	27511
822.429	27192
822.569	27165
822.709	27222
822.849	26872
822.99	26895
823.13	26979
823.27	26944
823.41	26705
823.55	26640
823.69	26686
823.83	26876
823.97	26640
824.11	26583
824.25	26587
824.389	26583
824.529	26712
824.669	26632
824.809	26701
824.949	26708
825.089	26743
825.228	26727
825.368	26609
825.508	26492
825.648	26427
825.787	26606
825.927	26549
826.067	26594
826.206	26488
826.346	26617
826.485	26541
826.625	26484
826.765	26693
826.904	26533
827.044	26191
827.183	26263
827.323	26191
827.462	26278
827.601	26176
827.741	26187
827.88	26225
828.02	26153
828.159	26301
828.298	26077
828.437	26126
828.577	26062
828.716	26278
828.855	26081
828.994	25909
829.134	25814
829.273	25803
829.412	25822
829.551	25845
829.69	25879
829.829	25978
829.968	25909
830.107	25951
830.246	25795
830.385	25982
830.524	25769
830.663	25776
830.802	25635
830.941	25419
831.08	25362
831.219	25575
831.357	25540
831.496	25575
831.635	25491
831.774	25381
831.913	25419
832.051	25152
832.19	25316
832.329	25304
832.467	25110
832.606	25038
832.744	25118
832.883	25206
833.022	25023
833.16	25148
833.299	25179
833.437	25217
833.576	25190
833.714	25213
833.852	25388
833.991	25244
834.129	25251
834.267	25362
834.406	25236
834.544	25232
834.682	25247
834.821	25091
834.959	25350
835.097	25004
835.235	25148
835.373	25034
835.511	25304
835.65	25042
835.788	25129
835.926	24977
836.064	24844
836.202	24863
836.34	24962
836.478	25187
836.615	25072
836.753	24966
836.891	25187
837.029	25118
837.167	24886
837.305	25012
837.443	24989
837.58	24806
837.718	24939
837.856	24970
837.993	24768
838.131	24871
838.269	24741
838.406	24764
838.544	24814
838.681	24517
838.819	24479
838.956	24448
839.094	24289
839.231	24437
839.369	24608
839.506	24650
839.643	24620
839.781	24369
839.918	24308
840.055	24429
840.193	24304
840.33	24327
840.467	24292
840.604	24251
840.742	24521
840.879	23999
841.016	24224
841.153	24133
841.29	24285
841.427	24254
841.564	24254
841.701	24273
841.838	24247
841.975	24057
842.112	24159
842.249	23973
842.385	24038
842.522	24277
842.659	24026
842.796	23935
842.933	23931
843.069	23965
843.206	23912
843.343	23935
843.479	23988
843.616	23863
843.752	23840
843.889	23836
844.025	23878
844.162	23817
844.298	23882
844.435	23699
844.571	23653
844.708	23779
844.844	24007
844.98	23790
845.117	23988
845.253	23859
845.389	23695
845.525	23646
845.661	23665
845.798	23444
845.934	23566
846.07	23543
846.206	23478
846.342	23531
846.478	23524
846.614	23254
846.75	23200
846.886	23254
847.022	23391
847.158	23216
847.294	23113
847.429	23341
847.565	23159
847.701	23505
847.837	22919
847.972	22885
848.108	23067
848.244	22946
848.379	22927
848.515	22942
848.65	22778
848.786	22698
848.921	22915
849.057	22961
849.192	22908
849.328	22919
849.463	22774
849.598	22767
849.734	22668
849.869	22603
850.004	22599
850.14	22592
850.275	22675
850.41	22554
850.545	22519
850.68	22531
850.815	22470
850.95	22687
851.085	22649
851.22	22755
851.355	22656
851.49	22497
851.625	22611
851.76	22615
851.895	22497
852.03	22557
852.165	22672
852.299	22599
852.434	22668
852.569	22607
852.703	22603
852.838	22653
852.973	22816
853.107	22622
853.242	22580
853.376	22413
853.511	22284
853.645	22360
853.78	22470
853.914	22432
854.048	22459
854.183	22394
854.317	22421
854.451	22550
854.585	22436
854.72	22360
854.854	22440
854.988	22379
855.122	22466
855.256	22215
855.39	22428
855.524	22470
855.658	22443
855.792	22474
855.926	22421
856.06	22443
856.194	22409
856.327	22299
856.461	22303
856.595	22341
856.729	22443
856.862	22504
856.996	22398
857.13	22287
857.263	22512
857.397	22512
857.53	22356
857.664	22436
857.797	22512
857.931	22443
858.064	22440
858.197	22535
858.331	22234
858.464	22360
858.597	22226
858.731	22390
858.864	22379
858.997	22337
859.13	22402
859.263	22409
859.396	22421
859.529	22337
859.662	22424
859.795	22398
859.928	22390
860.061	22474
860.194	22561
860.327	22459
860.46	22360
860.592	22443
860.725	22512
860.858	22538
860.99	22466
861.123	22379
861.256	22382
861.388	22360
861.521	23094
861.653	22306
861.786	22173
861.918	22219
862.05	22185
862.183	22295
862.315	22341
862.447	22375
862.58	22329
862.712	22143
862.844	22025
862.976	22131
863.108	22188
863.24	22455
863.372	22128
863.504	22135
863.636	22143
863.768	22074
863.9	21991
864.032	21930
864.164	22124
864.296	22154
864.428	22196
864.559	22078
864.691	22101
864.823	22101
864.954	22093
865.086	22044
865.217	22021
865.349	22013
865.48	22044
865.612	21964
865.743	22074
865.875	21987
866.006	21949
866.137	21987
866.269	22029
866.4	21880
866.531	21835
866.662	21842
866.793	21968
866.924	21888
867.055	21994
867.186	21873
867.317	21918
867.448	21846
867.579	21873
867.71	21850
867.841	21797
867.972	21895
868.103	22002
868.233	22006
868.364	21888
868.495	21956
868.625	22173
868.756	22215
868.886	22109
869.017	22162
869.147	22341
869.278	22299
869.408	22139
869.539	22128
869.669	22188
869.799	22246
869.929	22246
870.06	22249
870.19	22481
870.32	22405
870.45	22398
870.58	22538
870.71	22675
870.84	22653
870.97	22596
871.1	22485
871.23	22752
871.36	22691
871.489	22607
871.619	22744
871.749	22637
871.879	22850
872.008	22877
872.138	22736
872.267	22767
872.397	22717
872.526	22664
872.656	22592
872.785	22584
872.915	22554
873.044	22759
873.173	22885
873.303	22755
873.432	22831
873.561	22949
873.69	22824
873.819	22809
873.948	22881
874.077	22816
874.206	22721
874.335	22634
874.464	22812
874.593	23006
874.722	22904
874.851	22919
874.979	23056
875.108	22892
875.237	22934
875.365	22820
875.494	22965
875.623	23090
875.751	22892
875.88	22976
876.008	23090
876.136	23060
876.265	23269
876.393	23528
876.521	23539
876.65	23490
876.778	23425
876.906	23467
877.034	23318
877.162	23318
877.29	23326
877.418	23341
877.546	23383
877.674	23296
877.802	23292
877.93	23311
878.058	23231
878.185	23208
878.313	23296
878.441	23227
878.568	23178
878.696	23391
878.824	23258
878.951	23406
879.079	23414
879.206	23524
879.333	23463
879.461	23425
879.588	23345
879.715	23573
879.842	23589
879.97	23421
880.097	23185
880.224	23178
880.351	23220
880.478	23098
880.605	23159
880.732	23235
880.859	23280
880.986	23132
881.112	23197
881.239	22999
881.366	22805
881.493	22854
881.619	22752
881.746	22797
881.872	22626
881.999	22656
882.125	22668
882.252	22706
882.378	22713
882.505	22698
882.631	22577
882.757	22325
882.883	22519
883.01	22371
883.136	22352
883.262	22303
883.388	22246
883.514	22466
883.64	22489
883.766	22287
883.892	22124
884.018	22169
884.143	22394
884.269	22421
884.395	21998
884.52	22006
884.646	22124
884.772	21915
884.897	21998
885.023	22048
885.148	22154
885.274	22181
885.399	22150
885.524	22010
885.65	22101
885.775	22021
885.9	21949
886.025	22166
886.15	22105
886.275	22006
886.4	21865
886.525	21972
886.65	21888
886.775	21846
886.9	22010
887.025	22234
887.149	22021
887.274	21857
887.399	21804
887.523	21652
887.648	21679
887.773	21857
887.897	21831
888.021	21785
888.146	21637
888.27	21899
888.395	21797
888.519	21850
888.643	21736
888.767	21785
888.891	21679
889.015	21549
889.139	21599
889.263	21492
889.387	21781
889.511	21682
889.635	21633
889.759	21557
889.883	21500
890.006	21637
890.13	21682
890.254	21523
890.377	21435
890.501	21447
890.624	21336
890.748	21469
890.871	21211
890.995	21081
891.118	21093
891.241	21066
891.364	21043
891.488	21264
891.611	21096
891.734	20994
891.857	21150
891.98	21108
892.103	21146
892.226	21058
892.349	21020
892.471	21089
892.594	20994
892.717	21028
892.839	21005
892.962	21104
893.085	21089
893.207	20960
893.33	20929
893.452	20868
893.575	20994
893.697	20925
893.819	21275
893.941	21207
894.064	21207
894.186	20925
894.308	20902
894.43	21131
894.552	21157
894.674	20994
894.796	20948
894.918	20883
895.04	20975
895.161	21062
895.283	21005
895.405	20819
895.526	21043
895.648	21047
895.769	20994
895.891	21058
896.012	21116
896.134	21123
896.255	21089
896.376	20990
896.498	21032
896.619	21036
896.74	20956
896.861	21096
896.982	21283
897.103	21332
897.224	21203
897.345	21226
897.466	21195
897.587	21184
897.708	21367
897.828	21150
897.949	21195
898.07	20925
898.19	21100
898.311	21180
898.431	21062
898.552	21039
898.672	21310
898.792	21195
898.913	21264
899.033	21119
899.153	20990
899.273	21013
899.393	20906
899.513	21085
899.633	20937
899.753	20948
899.873	20864
899.993	20876
900.113	20990
900.232	20849
900.352	20891
900.472	20857
900.591	20594
900.711	20727
900.83	20590
900.95	20667
901.069	20632
901.189	20571
901.308	20294
901.427	20168
901.546	20339
901.665	20366
901.784	20301
901.904	20145
902.023	20058
902.141	19780
902.26	19769
902.379	19788
902.498	19715
902.617	19746
902.735	19841
902.854	19700
902.973	19639
903.091	19491
903.21	19441
903.328	19419
903.446	19202
903.565	19171
903.683	19289
903.801	19187
903.919	19194
904.038	19221
904.156	19065
904.274	19095
904.392	19031
904.51	19050
904.627	18909
904.745	19034
904.863	18951
904.981	18840
905.098	18749
905.216	18559
905.334	18658
905.451	18730
905.569	18620
905.686	18787
905.803	18502
905.921	18380
906.038	18616
906.155	18418
906.272	18304
906.389	18330
906.506	18133
906.623	18300
906.74	18163
906.857	18076
906.974	18034
907.091	18281
907.208	18281
907.324	18140
907.441	18041
907.557	18068
907.674	17824
907.79	17954
907.907	17809
908.023	17878
908.139	17882
908.256	17790
908.372	17737
908.488	17714
908.604	17657
908.72	17520
908.836	17615
908.952	17634
909.068	17634
909.184	17703
909.3	17646
909.415	17547
909.531	17570
909.647	17360
909.762	17364
909.878	17356
909.993	17326
910.108	17227
910.224	17227
910.339	17174
910.454	17140
910.57	17151
910.685	16976
910.8	17292
910.915	17181
911.03	17067
911.145	16892
911.259	16873
911.374	16889
911.489	16862
911.604	16729
911.718	16649
911.833	16687
911.947	16485
912.062	16459
912.176	16596
912.291	16565
912.405	16561
912.519	16831
912.633	16805
912.748	16546
912.862	16607
912.976	16474
913.09	16287
913.204	16360
913.318	16466
913.431	16462
913.545	16500
913.659	16645
913.772	16325
913.886	16382
914	16223
914.113	16249
914.226	16325
914.34	16265
914.453	16154
914.566	16280
914.68	16055
914.793	15968
914.906	15926
915.019	15835
915.132	15804
915.245	15705
915.358	15857
915.47	15804
915.583	15797
915.696	15808
915.809	15972
915.921	15861
916.034	15774
916.146	15675
916.259	15656
916.371	15759
916.483	15827
916.595	15595
916.708	15644
916.82	15625
916.932	15530
917.044	15557
917.156	15530
917.268	15428
917.38	15439
917.491	15382
917.603	15492
917.715	15447
917.826	15439
917.938	15359
918.049	15203
918.161	15412
918.272	15618
918.384	15530
918.495	15355
918.606	15150
918.717	15195
918.828	15150
918.939	15199
919.05	15100
919.161	15127
919.272	14823
919.383	14960
919.494	15218
919.604	15389
919.715	15188
919.826	15043
919.936	15150
920.047	15165
920.157	15051
920.267	15272
920.378	15207
920.488	15093
920.598	15374
920.708	15515
920.818	15218
920.928	15249
921.038	15454
921.148	15416
921.258	15070
921.368	14937
921.477	14857
921.587	14861
921.697	14720
921.806	14842
921.916	14625
922.025	14552
922.134	14522
922.244	14434
922.353	14492
922.462	14400
922.571	14336
922.68	14142
922.789	14046
922.898	14058
923.007	14035
923.116	14191
923.224	14115
923.333	14092
923.442	13921
923.55	13894
923.659	13951
923.767	14092
923.876	13868
923.984	13879
924.092	13871
924.201	13887
924.309	13894
924.417	13879
924.525	13750
924.633	13795
924.741	14625
924.849	13533
924.956	13674
925.064	13594
925.172	13445
925.279	13525
925.387	13548
925.494	13453
925.602	13563
925.709	13556
925.816	13381
925.924	13464
926.031	13597
926.138	13392
926.245	13480
926.352	13362
926.459	13548
926.566	13506
926.673	13350
926.779	13304
926.886	13209
926.993	13126
927.099	13095
927.206	13091
927.312	12996
927.419	13015
927.525	13103
927.631	13107
927.737	12951
927.843	12916
927.95	12776
928.056	12757
928.162	12867
928.267	12833
928.373	13483
928.479	12947
928.585	12623
928.69	12817
928.796	12745
928.901	12711
929.007	12608
929.112	12738
929.218	12662
929.323	12593
929.428	12574
929.533	12642
929.638	12464
929.743	12540
929.848	12551
929.953	12464
930.058	12410
930.163	12262
930.267	12220
930.372	12433
930.477	12235
930.581	12452
930.685	12247
930.79	12117
930.894	12190
930.998	12095
931.103	12205
931.207	11851
931.311	11847
931.415	11680
931.519	11501
931.623	11360
