Data from test_V78500241_1482.txt Node
Date: Fri Mar 25 15:52:04 CST 2022
User: usil
Spectrometer: V785-0024
Trigger mode: 0
Integration Time (sec): 4.000000E-1
Scans to average: 1
Nonlinearity correction enabled: false
Boxcar width: 0
Storing dark spectrum: false
XAxis mode: Wavelengths
Number of Pixels in Spectrum: 1024
>>>>>Begin Spectral Data<<<<<
801.071	27930
801.214	27930
801.356	27549
801.499	27622
801.641	27466
801.783	27420
801.926	27549
802.068	27287
802.211	27538
802.353	27321
802.496	27066
802.638	27131
802.78	27131
802.923	27142
803.065	27013
803.208	26960
803.35	27161
803.492	27180
803.635	27447
803.777	27180
803.919	27256
804.061	27587
804.204	27405
804.346	27192
804.488	27306
804.63	27249
804.773	27142
804.915	27374
805.057	27443
805.199	27306
805.341	27427
805.483	27420
805.626	27496
805.768	27169
805.91	27393
806.052	27488
806.194	27325
806.336	27568
806.478	27424
806.62	27481
806.762	27511
806.904	27770
807.046	27873
807.188	27960
807.33	27960
807.472	27903
807.614	27812
807.756	27865
807.898	27846
808.04	27755
808.182	27781
808.324	27679
808.465	27888
808.607	28017
808.749	28029
808.891	28120
809.033	28131
809.174	28112
809.316	28055
809.458	28166
809.6	28063
809.741	28086
809.883	28147
810.025	28401
810.166	28386
810.308	28390
810.45	28360
810.591	28242
810.733	28109
810.875	28078
811.016	27884
811.158	27953
811.299	28101
811.441	28200
811.582	28276
811.724	28234
811.865	28139
812.007	28055
812.148	28059
812.29	28124
812.431	28287
812.573	28436
812.714	28481
812.855	28512
812.997	28702
813.138	28755
813.279	28694
813.421	28618
813.562	28500
813.703	28333
813.845	28192
813.986	28074
814.127	27895
814.268	27827
814.41	27873
814.551	27728
814.692	27823
814.833	27667
814.974	27694
815.115	27724
815.256	27656
815.397	27603
815.539	27663
815.68	27637
815.821	27450
815.962	27728
816.103	27572
816.244	27416
816.385	27386
816.526	27249
816.666	27039
816.807	27176
816.948	27077
817.089	27161
817.23	26994
817.371	27093
817.512	27032
817.653	27077
817.793	26902
817.934	27024
818.075	27074
818.216	27039
818.356	27005
818.497	26979
818.638	26807
818.778	26902
818.919	26777
819.06	26960
819.2	26883
819.341	27074
819.481	26960
819.622	27157
819.762	27378
819.903	27325
820.043	27241
820.184	27192
820.324	27321
820.465	27070
820.605	27142
820.746	27161
820.886	27127
821.026	27138
821.167	27188
821.307	27207
821.447	27104
821.588	26887
821.728	26948
821.868	26765
822.008	26511
822.149	26415
822.289	26571
822.429	26278
822.569	26229
822.709	26031
822.849	25993
822.99	26130
823.13	26046
823.27	26001
823.41	25837
823.55	25731
823.69	25936
823.83	25814
823.97	25807
824.11	25647
824.25	25666
824.389	25609
824.529	25662
824.669	25639
824.809	25830
824.949	25833
825.089	25769
825.228	25670
825.368	25441
825.508	25677
825.648	25563
825.787	25605
825.927	25556
826.067	25597
826.206	25544
826.346	25597
826.485	25552
826.625	25457
826.765	25525
826.904	25597
827.044	25270
827.183	25289
827.323	25251
827.462	25320
827.601	25331
827.741	25194
827.88	25126
828.02	25137
828.159	25244
828.298	25335
828.437	25396
828.577	25175
828.716	25244
828.855	25240
828.994	24916
829.134	25027
829.273	25027
829.412	24985
829.551	24886
829.69	24871
829.829	24882
829.968	25034
830.107	25019
830.246	25046
830.385	24928
830.524	24852
830.663	24745
830.802	24669
830.941	24566
831.08	24502
831.219	24692
831.357	24589
831.496	24738
831.635	24483
831.774	24544
831.913	24448
832.051	24304
832.19	24429
832.329	24422
832.467	24292
832.606	24262
832.744	24209
832.883	24300
833.022	24117
833.16	24216
833.299	24121
833.437	24186
833.576	24235
833.714	24254
833.852	24330
833.991	24422
834.129	24437
834.267	24372
834.406	24399
834.544	24273
834.682	24194
834.821	24292
834.959	24441
835.097	24079
835.235	24235
835.373	24254
835.511	24159
835.65	24098
835.788	24216
835.926	24022
836.064	23916
836.202	23946
836.34	24091
836.478	24136
836.615	24220
836.753	24114
836.891	24072
837.029	24171
837.167	24087
837.305	23961
837.443	23980
837.58	24003
837.718	24034
837.856	23950
837.993	23889
838.131	24018
838.269	23813
838.406	23901
838.544	23783
838.681	23554
838.819	23509
838.956	23414
839.094	23315
839.231	23444
839.369	23680
839.506	23748
839.643	23699
839.781	23372
839.918	23406
840.055	23501
840.193	23330
840.33	23379
840.467	23223
840.604	23368
840.742	23649
840.879	23239
841.016	23197
841.153	23079
841.29	23444
841.427	23383
841.564	23379
841.701	23345
841.838	23277
841.975	23269
842.112	23280
842.249	23223
842.385	23029
842.522	23383
842.659	23220
842.796	23033
842.933	23048
843.069	22999
843.206	23029
843.343	23216
843.479	23071
843.616	23105
843.752	22885
843.889	22869
844.025	23048
844.162	22934
844.298	23056
844.435	22915
844.571	22961
844.708	22915
844.844	22877
844.98	22942
845.117	22930
845.253	22885
845.389	22626
845.525	22717
845.661	22611
845.798	22630
845.934	22637
846.07	22523
846.206	22713
846.342	22691
846.478	22554
846.614	22424
846.75	22253
846.886	22329
847.022	22329
847.158	22356
847.294	22242
847.429	22310
847.565	22390
847.701	22668
847.837	22059
847.972	22070
848.108	22185
848.244	22139
848.379	21903
848.515	21880
848.65	21895
848.786	21983
848.921	22044
849.057	21998
849.192	21956
849.328	21964
849.463	21934
849.598	21979
849.734	21907
849.869	21850
850.004	21663
850.14	21755
850.275	21705
850.41	21690
850.545	21572
850.68	21637
850.815	21622
850.95	21663
851.085	21918
851.22	21884
851.355	21717
851.49	21762
851.625	21641
851.76	21690
851.895	21473
852.03	21583
852.165	21705
852.299	21762
852.434	21778
852.569	21679
852.703	21698
852.838	21568
852.973	21698
853.107	21781
853.242	21671
853.376	21549
853.511	21367
853.645	21458
853.78	21530
853.914	21488
854.048	21416
854.183	21496
854.317	21576
854.451	21652
854.585	21488
854.72	21488
854.854	21523
854.988	21488
855.122	21519
855.256	21431
855.39	21507
855.524	21507
855.658	21576
855.792	21507
855.926	21428
856.06	21488
856.194	21686
856.327	21526
856.461	21435
856.595	21435
856.729	21420
856.862	21663
856.996	21481
857.13	21561
857.263	21618
857.397	21679
857.53	21488
857.664	21462
857.797	21622
857.931	21507
858.064	21530
858.197	21724
858.331	21496
858.464	21359
858.597	21298
858.731	21545
858.864	21401
858.997	21591
859.13	21549
859.263	21641
859.396	21526
859.529	21447
859.662	21492
859.795	21545
859.928	21545
860.061	21686
860.194	21629
860.327	21561
860.46	21473
860.592	21717
860.725	21770
860.858	21595
860.99	21496
861.123	21420
861.256	21439
861.388	21447
861.521	22059
861.653	21393
861.786	21317
861.918	21252
862.05	21488
862.183	21420
862.315	21473
862.447	21496
862.58	21424
862.712	21272
862.844	21222
862.976	21332
863.108	21310
863.24	21766
863.372	21131
863.504	21283
863.636	21184
863.768	21272
863.9	21287
864.032	21256
864.164	21161
864.296	21340
864.428	21370
864.559	21348
864.691	21313
864.823	21233
864.954	21306
865.086	21173
865.217	21230
865.349	21146
865.48	21188
865.612	21161
865.743	21344
865.875	21169
866.006	21017
866.137	21146
866.269	21142
866.4	21108
866.531	21154
866.662	21070
866.793	21116
866.924	20975
867.055	21116
867.186	21009
867.317	21032
867.448	21043
867.579	21081
867.71	21032
867.841	20975
867.972	21039
868.103	21176
868.233	21020
868.364	21009
868.495	21020
868.625	21192
868.756	21405
868.886	21264
869.017	21260
869.147	21359
869.278	21454
869.408	21382
869.539	21325
869.669	21412
869.799	21462
869.929	21412
870.06	21355
870.19	21614
870.32	21614
870.45	21823
870.58	21747
870.71	21876
870.84	21785
870.97	21679
871.1	21625
871.23	21979
871.36	21812
871.489	21759
871.619	21975
871.749	21827
871.879	21903
872.008	21930
872.138	21911
872.267	21827
872.397	21816
872.526	21800
872.656	21846
872.785	21797
872.915	21949
873.044	21945
873.173	21888
873.303	21941
873.432	21998
873.561	21937
873.69	21888
873.819	21949
873.948	21945
874.077	21915
874.206	21854
874.335	21880
874.464	22105
874.593	22246
874.722	22162
874.851	22299
874.979	22242
875.108	22287
875.237	22162
875.365	22013
875.494	22257
875.623	22154
875.751	22063
875.88	22230
876.008	22459
876.136	22310
876.265	22687
876.393	22691
876.521	22713
876.65	22618
876.778	22618
876.906	22508
877.034	22455
877.162	22645
877.29	22538
877.418	22573
877.546	22485
877.674	22565
877.802	22489
877.93	22580
878.058	22394
878.185	22455
878.313	22447
878.441	22542
878.568	22367
878.696	22535
878.824	22451
878.951	22588
879.079	22668
879.206	22713
879.333	22656
879.461	22527
879.588	22713
879.715	22653
879.842	22805
879.97	22478
880.097	22287
880.224	22253
880.351	22409
880.478	22417
880.605	22291
880.732	22337
880.859	22504
880.986	22344
881.112	22398
881.239	22196
881.366	22128
881.493	22067
881.619	21888
881.746	21922
881.872	21857
881.999	21838
882.125	21880
882.252	21842
882.378	21880
882.505	22082
882.631	21743
882.757	21656
882.883	21774
883.01	21747
883.136	21663
883.262	21382
883.388	21428
883.514	21568
883.64	21690
883.766	21424
883.892	21386
884.018	21374
884.143	21519
884.269	21545
884.395	21340
884.52	21302
884.646	21355
884.772	21161
884.897	21161
885.023	21291
885.148	21351
885.274	21367
885.399	21344
885.524	21291
885.65	21272
885.775	21237
885.9	21127
886.025	21401
886.15	21351
886.275	21188
886.4	21188
886.525	21211
886.65	21218
886.775	21188
886.9	21431
887.025	21481
887.149	21131
887.274	21142
887.399	21047
887.523	20929
887.648	20952
887.773	21005
887.897	21093
888.021	21051
888.146	20952
888.27	21214
888.395	21036
888.519	21074
888.643	21104
888.767	21119
888.891	20899
889.015	20880
889.139	20902
889.263	20762
889.387	20918
889.511	21001
889.635	20861
889.759	20887
889.883	20765
890.006	20811
890.13	20845
890.254	20758
890.377	20602
890.501	20644
890.624	20571
890.748	20526
890.871	20423
890.995	20282
891.118	20328
891.241	20362
891.364	20305
891.488	20476
891.611	20450
891.734	20336
891.857	20442
891.98	20370
892.103	20347
892.226	20370
892.349	20271
892.471	20263
892.594	20294
892.717	20278
892.839	20206
892.962	20305
893.085	20294
893.207	20343
893.33	20027
893.452	20142
893.575	20412
893.697	20366
893.819	20301
893.941	20476
894.064	20499
894.186	20240
894.308	20164
894.43	20282
894.552	20469
894.674	20328
894.796	20122
894.918	20176
895.04	20271
895.161	20370
895.283	20233
895.405	20195
895.526	20286
895.648	20157
895.769	20336
895.891	20286
896.012	20434
896.134	20263
896.255	20259
896.376	20278
896.498	20324
896.619	20301
896.74	20248
896.861	20317
896.982	20541
897.103	20678
897.224	20613
897.345	20415
897.466	20419
897.587	20541
897.708	20621
897.828	20438
897.949	20362
898.07	20252
898.19	20461
898.311	20412
898.431	20370
898.552	20450
898.672	20446
898.792	20571
898.913	20499
899.033	20374
899.153	20237
899.273	20149
899.393	20187
899.513	20225
899.633	20157
899.753	20313
899.873	20237
899.993	20309
900.113	20278
900.232	20286
900.352	20122
900.472	20172
900.591	19993
900.711	20062
900.83	20088
900.95	20100
901.069	20145
901.189	19864
901.308	19681
901.427	19578
901.546	19597
901.665	19582
901.784	19556
901.904	19411
902.023	19502
902.141	19141
902.26	19141
902.379	19209
902.498	19160
902.617	19122
902.735	19194
902.854	19084
902.973	18920
903.091	18806
903.21	18798
903.328	18840
903.446	18703
903.565	18631
903.683	18601
903.801	18414
903.919	18544
904.038	18486
904.156	18285
904.274	18327
904.392	18357
904.51	18315
904.627	18372
904.745	18414
904.863	18304
904.981	18068
905.098	17984
905.216	18060
905.334	18152
905.451	17950
905.569	17893
905.686	18045
905.803	18007
905.921	17703
906.038	17889
906.155	17786
906.272	17608
906.389	17790
906.506	17455
906.623	17570
906.74	17455
906.857	17379
906.974	17421
907.091	17699
907.208	17672
907.324	17592
907.441	17345
907.557	17330
907.674	17288
907.79	17223
907.907	17246
908.023	17197
908.139	17277
908.256	17239
908.372	17197
908.488	17003
908.604	16987
908.72	16915
908.836	16965
908.952	16934
909.068	17014
909.184	17067
909.3	17014
909.415	16972
909.531	16885
909.647	16752
909.762	16698
909.878	16675
909.993	16713
910.108	16618
910.224	16656
910.339	16508
910.454	16580
910.57	16516
910.685	16466
910.8	16580
910.915	16649
911.03	16356
911.145	16375
911.259	16253
911.374	16341
911.489	16181
911.604	16078
911.718	16067
911.833	16055
911.947	16040
912.062	15907
912.176	16013
912.291	15975
912.405	15941
912.519	16154
912.633	16207
912.748	16147
912.862	15964
912.976	15831
913.09	15682
913.204	15781
913.318	15854
913.431	15926
913.545	15972
913.659	15926
913.772	15667
913.886	15644
914	15732
914.113	15739
914.226	15717
914.34	15682
914.453	15431
914.566	15622
914.68	15530
914.793	15458
914.906	15370
915.019	15272
915.132	15135
915.245	15203
915.358	15207
915.47	15241
915.583	15180
915.696	15184
915.809	15454
915.921	15370
916.034	15142
916.146	15195
916.259	15039
916.371	15135
916.483	15211
916.595	15036
916.708	15077
916.82	15089
916.932	14975
917.044	15047
917.156	15039
917.268	14849
917.38	14906
917.491	14918
917.603	14906
917.715	14990
917.826	14998
917.938	14899
918.049	14701
918.161	14842
918.272	14941
918.384	14990
918.495	14781
918.606	14670
918.717	14590
918.828	14648
918.939	14644
919.05	14518
919.161	14613
919.272	14374
919.383	14476
919.494	14712
919.604	14902
919.715	14610
919.826	14541
919.936	14625
920.047	14648
920.157	14522
920.267	14746
920.378	14640
920.488	14613
920.598	14765
920.708	14921
920.818	14720
920.928	14746
921.038	14876
921.148	14796
921.258	14594
921.368	14434
921.477	14351
921.587	14267
921.697	14142
921.806	14313
921.916	14145
922.025	14077
922.134	14027
922.244	13928
922.353	14058
922.462	13879
922.571	13898
922.68	13643
922.789	13597
922.898	13586
923.007	13567
923.116	13639
923.224	13628
923.333	13620
923.442	13373
923.55	13430
923.659	13453
923.767	13495
923.876	13392
923.984	13491
924.092	13285
924.201	13426
924.309	13346
924.417	13392
924.525	13346
924.633	13217
924.741	14210
924.849	13042
924.956	13236
925.064	13145
925.172	12871
925.279	13015
925.387	12966
925.494	13019
925.602	13118
925.709	13050
925.816	12875
925.924	12993
926.031	13088
926.138	12947
926.245	13069
926.352	12863
926.459	13099
926.566	13034
926.673	13038
926.779	12764
926.886	12783
926.993	12734
927.099	12604
927.206	12593
927.312	12601
927.419	12669
927.525	12525
927.631	12604
927.737	12452
927.843	12483
927.95	12281
928.056	12319
928.162	12471
928.267	12388
928.373	13114
928.479	12601
928.585	12254
928.69	12399
928.796	12475
928.901	12300
929.007	12140
929.112	12334
929.218	12277
929.323	12136
929.428	12247
929.533	12216
929.638	12102
929.743	12152
929.848	12102
929.953	12064
930.058	12076
930.163	11802
930.267	11851
930.372	12015
930.477	11809
930.581	12030
930.685	11863
930.79	11741
930.894	11794
930.998	11824
931.103	11870
931.207	11558
931.311	11467
931.415	11368
931.519	11227
931.623	11105
