Data from test_V78500241_1319.txt Node
Date: Fri Mar 25 15:50:56 CST 2022
User: usil
Spectrometer: V785-0024
Trigger mode: 0
Integration Time (sec): 4.000000E-1
Scans to average: 1
Nonlinearity correction enabled: false
Boxcar width: 0
Storing dark spectrum: false
XAxis mode: Wavelengths
Number of Pixels in Spectrum: 1024
>>>>>Begin Spectral Data<<<<<
801.071	28074
801.214	27895
801.356	27789
801.499	27690
801.641	27534
801.783	27587
801.926	27652
802.068	27656
802.211	27416
802.353	27431
802.496	27378
802.638	27275
802.78	27233
802.923	27104
803.065	27199
803.208	27180
803.35	27241
803.492	27283
803.635	27329
803.777	27336
803.919	27530
804.061	27816
804.204	27488
804.346	27389
804.488	27439
804.63	27545
804.773	27454
804.915	27488
805.057	27485
805.199	27329
805.341	27427
805.483	27542
805.626	27591
805.768	27561
805.91	27523
806.052	27644
806.194	27496
806.336	27732
806.478	27747
806.62	27698
806.762	27880
806.904	27808
807.046	28036
807.188	28059
807.33	27949
807.472	28112
807.614	28021
807.756	27994
807.898	27888
808.04	27861
808.182	27850
808.324	27972
808.465	28112
808.607	27983
808.749	28169
808.891	28341
809.033	28455
809.174	28253
809.316	28177
809.458	28363
809.6	28181
809.741	28386
809.883	28375
810.025	28508
810.166	28656
810.308	28577
810.45	28504
810.591	28432
810.733	28226
810.875	28344
811.016	28204
811.158	28147
811.299	28348
811.441	28390
811.582	28310
811.724	28272
811.865	28341
812.007	28314
812.148	28268
812.29	28375
812.431	28371
812.573	28577
812.714	28603
812.855	28702
812.997	28877
813.138	28942
813.279	28790
813.421	28748
813.562	28634
813.703	28508
813.845	28432
813.986	28074
814.127	28044
814.268	27979
814.41	27949
814.551	27903
814.692	28055
814.833	27857
814.974	27888
815.115	27949
815.256	27785
815.397	27861
815.539	27686
815.68	27682
815.821	27591
815.962	27762
816.103	27751
816.244	27599
816.385	27496
816.526	27534
816.666	27272
816.807	27207
816.948	27321
817.089	27382
817.23	27203
817.371	27169
817.512	27329
817.653	27176
817.793	27119
817.934	27340
818.075	27302
818.216	27245
818.356	27260
818.497	27055
818.638	26906
818.778	26864
818.919	27020
819.06	27066
819.2	27180
819.341	27211
819.481	27226
819.622	27424
819.762	27511
819.903	27553
820.043	27473
820.184	27355
820.324	27291
820.465	27382
820.605	27298
820.746	27329
820.886	27336
821.026	27275
821.167	27249
821.307	27450
821.447	27252
821.588	27127
821.728	26967
821.868	26914
822.008	26697
822.149	26712
822.289	26659
822.429	26457
822.569	26370
822.709	26370
822.849	26073
822.99	26206
823.13	26317
823.27	26161
823.41	26081
823.55	26046
823.69	26157
823.83	26005
823.97	25959
824.11	25879
824.25	25864
824.389	25917
824.529	25978
824.669	25978
824.809	25959
824.949	25944
825.089	25993
825.228	25814
825.368	25814
825.508	25704
825.648	25799
825.787	25913
825.927	25784
826.067	25803
826.206	25712
826.346	25769
826.485	25635
826.625	25761
826.765	25753
826.904	25791
827.044	25502
827.183	25537
827.323	25407
827.462	25438
827.601	25396
827.741	25464
827.88	25578
828.02	25198
828.159	25358
828.298	25453
828.437	25556
828.577	25331
828.716	25559
828.855	25255
828.994	25164
829.134	25114
829.273	25209
829.412	25187
829.551	25148
829.69	25137
829.829	25175
829.968	25251
830.107	25122
830.246	25110
830.385	25107
830.524	25065
830.663	24928
830.802	24840
830.941	24688
831.08	24856
831.219	24802
831.357	24825
831.496	24916
831.635	24730
831.774	24688
831.913	24635
832.051	24494
832.19	24498
832.329	24582
832.467	24620
832.606	24464
832.744	24334
832.883	24574
833.022	24426
833.16	24350
833.299	24471
833.437	24498
833.576	24608
833.714	24544
833.852	24460
833.991	24502
834.129	24620
834.267	24509
834.406	24574
834.544	24532
834.682	24407
834.821	24498
834.959	24589
835.097	24437
835.235	24494
835.373	24418
835.511	24372
835.65	24407
835.788	24376
835.926	24144
836.064	24159
836.202	24243
836.34	24239
836.478	24498
836.615	24311
836.753	24315
836.891	24350
837.029	24327
837.167	24186
837.305	24228
837.443	24144
837.58	24224
837.718	24205
837.856	24076
837.993	24091
838.131	24209
838.269	23977
838.406	24041
838.544	24087
838.681	23878
838.819	23623
838.956	23714
839.094	23615
839.231	23722
839.369	23866
839.506	24015
839.643	23847
839.781	23558
839.918	23467
840.055	23608
840.193	23512
840.33	23539
840.467	23611
840.604	23589
840.742	23771
840.879	23417
841.016	23452
841.153	23452
841.29	23703
841.427	23467
841.564	23699
841.701	23516
841.838	23395
841.975	23512
842.112	23391
842.249	23364
842.385	23261
842.522	23455
842.659	23398
842.796	23330
842.933	23227
843.069	23239
843.206	23235
843.343	23296
843.479	23254
843.616	23212
843.752	23071
843.889	23162
844.025	23212
844.162	22968
844.298	23132
844.435	23064
844.571	23048
844.708	23064
844.844	23212
844.98	23242
845.117	23147
845.253	23014
845.389	22881
845.525	22801
845.661	22866
845.798	22675
845.934	22801
846.07	22805
846.206	22908
846.342	22889
846.478	22797
846.614	22622
846.75	22333
846.886	22424
847.022	22668
847.158	22649
847.294	22497
847.429	22451
847.565	22554
847.701	22831
847.837	22192
847.972	22207
848.108	22173
848.244	22329
848.379	22063
848.515	22109
848.65	22029
848.786	22139
848.921	22158
849.057	22253
849.192	22154
849.328	22090
849.463	22093
849.598	22086
849.734	21983
849.869	22086
850.004	21873
850.14	21774
850.275	21918
850.41	21846
850.545	21781
850.68	21869
850.815	21899
850.95	21789
851.085	22017
851.22	22002
851.355	21915
851.49	21876
851.625	21838
851.76	21880
851.895	21823
852.03	21759
852.165	21873
852.299	21892
852.434	21972
852.569	21915
852.703	22074
852.838	21907
852.973	21956
853.107	21873
853.242	21812
853.376	21580
853.511	21466
853.645	21587
853.78	21846
853.914	21793
854.048	21675
854.183	21576
854.317	21633
854.451	21831
854.585	21846
854.72	21625
854.854	21724
854.988	21629
855.122	21675
855.256	21458
855.39	21667
855.524	21686
855.658	21778
855.792	21762
855.926	21759
856.06	21781
856.194	21629
856.327	21679
856.461	21709
856.595	21583
856.729	21671
856.862	21823
856.996	21751
857.13	21793
857.263	21934
857.397	21899
857.53	21675
857.664	21690
857.797	21755
857.931	21736
858.064	21717
858.197	21819
858.331	21759
858.464	21587
858.597	21595
858.731	21705
858.864	21538
858.997	21671
859.13	21583
859.263	21755
859.396	21762
859.529	21606
859.662	21705
859.795	21667
859.928	21755
860.061	21960
860.194	21949
860.327	21793
860.46	21720
860.592	21755
860.725	21930
860.858	21816
860.99	21793
861.123	21644
861.256	21713
861.388	21762
861.521	22447
861.653	21511
861.786	21523
861.918	21549
862.05	21629
862.183	21625
862.315	21610
862.447	21629
862.58	21599
862.712	21329
862.844	21401
862.976	21439
863.108	21393
863.24	21762
863.372	21351
863.504	21462
863.636	21329
863.768	21492
863.9	21405
864.032	21275
864.164	21416
864.296	21435
864.428	21538
864.559	21431
864.691	21504
864.823	21378
864.954	21317
865.086	21477
865.217	21344
865.349	21306
865.48	21291
865.612	21241
865.743	21408
865.875	21348
866.006	21294
866.137	21298
866.269	21222
866.4	21310
866.531	21268
866.662	21260
866.793	21264
866.924	21131
867.055	21260
867.186	21112
867.317	21344
867.448	21116
867.579	21180
867.71	21325
867.841	21199
867.972	21192
868.103	21176
868.233	21138
868.364	21260
868.495	21275
868.625	21519
868.756	21469
868.886	21405
869.017	21534
869.147	21526
869.278	21515
869.408	21469
869.539	21485
869.669	21507
869.799	21549
869.929	21576
870.06	21534
870.19	21846
870.32	21823
870.45	21895
870.58	21975
870.71	21941
870.84	22032
870.97	21816
871.1	21934
871.23	21960
871.36	22013
871.489	21972
871.619	21937
871.749	22029
871.879	22090
872.008	22173
872.138	21960
872.267	22040
872.397	21915
872.526	21857
872.656	21892
872.785	21892
872.915	22082
873.044	22131
873.173	22120
873.303	22021
873.432	22196
873.561	22173
873.69	21934
873.819	22185
873.948	22185
874.077	22162
874.206	22120
874.335	22177
874.464	22280
874.593	22207
874.722	22211
874.851	22421
874.979	22436
875.108	22409
875.237	22287
875.365	22158
875.494	22314
875.623	22386
875.751	22234
875.88	22303
876.008	22432
876.136	22538
876.265	22679
876.393	22809
876.521	22713
876.65	22729
876.778	22778
876.906	22554
877.034	22599
877.162	22691
877.29	22535
877.418	22584
877.546	22778
877.674	22668
877.802	22554
877.93	22618
878.058	22698
878.185	22554
878.313	22668
878.441	22691
878.568	22417
878.696	22615
878.824	22702
878.951	22694
879.079	22915
879.206	22828
879.333	22778
879.461	22694
879.588	22771
879.715	22797
879.842	22908
879.97	22664
880.097	22504
880.224	22516
880.351	22599
880.478	22500
880.605	22443
880.732	22516
880.859	22675
880.986	22512
881.112	22580
881.239	22268
881.366	22185
881.493	22128
881.619	22029
881.746	22169
881.872	22063
881.999	21975
882.125	21979
882.252	22135
882.378	22055
882.505	22192
882.631	21880
882.757	21819
882.883	21766
883.01	21660
883.136	21755
883.262	21622
883.388	21488
883.514	21694
883.64	21789
883.766	21576
883.892	21477
884.018	21583
884.143	21576
884.269	21759
884.395	21477
884.52	21321
884.646	21408
884.772	21302
884.897	21348
885.023	21416
885.148	21435
885.274	21652
885.399	21450
885.524	21359
885.65	21405
885.775	21291
885.9	21272
886.025	21542
886.15	21485
886.275	21374
886.4	21249
886.525	21283
886.65	21260
886.775	21351
886.9	21405
887.025	21553
887.149	21485
887.274	21123
887.399	21119
887.523	21237
887.648	21161
887.773	20998
887.897	21195
888.021	21100
888.146	21119
888.27	21298
888.395	21123
888.519	21180
888.643	21104
888.767	21192
888.891	21157
889.015	20921
889.139	20910
889.263	20971
889.387	21116
889.511	21123
889.635	21020
889.759	20929
889.883	20982
890.006	20994
890.13	21005
890.254	20743
890.377	20857
890.501	20674
890.624	20522
890.748	20743
890.871	20571
890.995	20522
891.118	20404
891.241	20552
891.364	20564
891.488	20632
891.611	20404
891.734	20537
891.857	20530
891.98	20598
892.103	20629
892.226	20454
892.349	20404
892.471	20301
892.594	20450
892.717	20408
892.839	20263
892.962	20488
893.085	20389
893.207	20396
893.33	20256
893.452	20404
893.575	20408
893.697	20309
893.819	20575
893.941	20545
894.064	20514
894.186	20476
894.308	20282
894.43	20389
894.552	20533
894.674	20431
894.796	20328
894.918	20408
895.04	20286
895.161	20549
895.283	20389
895.405	20317
895.526	20454
895.648	20271
895.769	20434
895.891	20362
896.012	20476
896.134	20465
896.255	20381
896.376	20320
896.498	20366
896.619	20461
896.74	20427
896.861	20457
896.982	20758
897.103	20887
897.224	20693
897.345	20533
897.466	20549
897.587	20552
897.708	20785
897.828	20598
897.949	20632
898.07	20419
898.19	20575
898.311	20613
898.431	20533
898.552	20606
898.672	20602
898.792	20693
898.913	20625
899.033	20503
899.153	20408
899.273	20294
899.393	20252
899.513	20423
899.633	20366
899.753	20366
899.873	20301
899.993	20454
900.113	20214
900.232	20324
900.352	20282
900.472	20149
900.591	20122
900.711	20138
900.83	20138
900.95	20309
901.069	20210
901.189	20103
901.308	19928
901.427	19605
901.546	19776
901.665	19696
901.784	19769
901.904	19575
902.023	19438
902.141	19316
902.26	19236
902.379	19274
902.498	19301
902.617	19236
902.735	19175
902.854	19274
902.973	19004
903.091	18909
903.21	18954
903.328	18875
903.446	18817
903.565	18688
903.683	18700
903.801	18604
903.919	18646
904.038	18608
904.156	18441
904.274	18441
904.392	18498
904.51	18513
904.627	18391
904.745	18467
904.863	18410
904.981	18239
905.098	18209
905.216	18152
905.334	18251
905.451	18232
905.569	18038
905.686	18102
905.803	18220
905.921	17893
906.038	18129
906.155	17939
906.272	17813
906.389	17798
906.506	17611
906.623	17687
906.74	17703
906.857	17554
906.974	17570
907.091	17604
907.208	17828
907.324	17619
907.441	17528
907.557	17334
907.674	17299
907.79	17330
907.907	17299
908.023	17444
908.139	17387
908.256	17410
908.372	17178
908.488	17212
908.604	17147
908.72	17109
908.836	17014
908.952	16968
909.068	17090
909.184	17189
909.3	17010
909.415	17075
909.531	16991
909.647	16782
909.762	16782
909.878	16641
909.993	16831
910.108	16797
910.224	16816
910.339	16675
910.454	16596
910.57	16649
910.685	16550
910.8	16717
910.915	16706
911.03	16634
911.145	16569
911.259	16455
911.374	16500
911.489	16299
911.604	16291
911.718	16204
911.833	16067
911.947	16002
912.062	15964
912.176	16082
912.291	16139
912.405	16101
912.519	16371
912.633	16261
912.748	16211
912.862	16128
912.976	15884
913.09	15831
913.204	15918
913.318	15911
913.431	16002
913.545	16036
913.659	15983
913.772	15915
913.886	15770
914	15724
914.113	15804
914.226	15854
914.34	15751
914.453	15618
914.566	15720
914.68	15618
914.793	15545
914.906	15374
915.019	15408
915.132	15291
915.245	15393
915.358	15405
915.47	15302
915.583	15321
915.696	15298
915.809	15428
915.921	15500
916.034	15355
916.146	15245
916.259	15245
916.371	15310
916.483	15275
916.595	15241
916.708	15207
916.82	15161
916.932	15131
917.044	15097
917.156	15058
917.268	14960
917.38	14960
917.491	14925
917.603	14963
917.715	15108
917.826	15116
917.938	14948
918.049	14921
918.161	15039
918.272	15024
918.384	15043
918.495	15024
918.606	14739
918.717	14689
918.828	14838
918.939	14800
919.05	14678
919.161	14735
919.272	14533
919.383	14655
919.494	14807
919.604	14910
919.715	14807
919.826	14792
919.936	14708
920.047	14792
920.157	14773
920.267	14971
920.378	14670
920.488	14621
920.598	14807
920.708	15142
920.818	14876
920.928	14876
921.038	15066
921.148	14967
921.258	14682
921.368	14602
921.477	14575
921.587	14488
921.697	14305
921.806	14518
921.916	14347
922.025	14202
922.134	14153
922.244	13989
922.353	14172
922.462	14050
922.571	13963
922.68	13738
922.789	13761
922.898	13750
923.007	13734
923.116	13814
923.224	13685
923.333	13712
923.442	13552
923.55	13525
923.659	13499
923.767	13590
923.876	13480
923.984	13575
924.092	13525
924.201	13537
924.309	13411
924.417	13491
924.525	13403
924.633	13400
924.741	14404
924.849	13175
924.956	13308
925.064	13187
925.172	13122
925.279	13091
925.387	13209
925.494	13118
925.602	13228
925.709	13171
925.816	13118
925.924	13145
926.031	13194
926.138	13183
926.245	13129
926.352	12951
926.459	13175
926.566	13126
926.673	13053
926.779	12913
926.886	12943
926.993	12715
927.099	12764
927.206	12684
927.312	12623
927.419	12764
927.525	12726
927.631	12745
927.737	12582
927.843	12639
927.95	12494
928.056	12578
928.162	12570
928.267	12585
928.373	13072
928.479	12639
928.585	12361
928.69	12513
928.796	12551
928.901	12338
929.007	12289
929.112	12422
929.218	12304
929.323	12369
929.428	12273
929.533	12365
929.638	12148
929.743	12194
929.848	12243
929.953	12163
930.058	12087
930.163	11923
930.267	11942
930.372	12076
930.477	11950
930.581	12155
930.685	11950
930.79	11855
930.894	11741
930.998	11813
931.103	11794
931.207	11543
931.311	11501
931.415	11337
931.519	11227
931.623	11239
