Data from test_V78500241_3192.txt Node
Date: Fri Mar 25 16:03:54 CST 2022
User: usil
Spectrometer: V785-0024
Trigger mode: 0
Integration Time (sec): 4.000000E-1
Scans to average: 1
Nonlinearity correction enabled: false
Boxcar width: 0
Storing dark spectrum: false
XAxis mode: Wavelengths
Number of Pixels in Spectrum: 1024
>>>>>Begin Spectral Data<<<<<
801.071	28413
801.214	28386
801.356	28230
801.499	28070
801.641	28002
801.783	28055
801.926	28048
802.068	28029
802.211	27937
802.353	27778
802.496	27751
802.638	27819
802.78	27781
802.923	27610
803.065	27576
803.208	27660
803.35	27743
803.492	27907
803.635	27857
803.777	27766
803.919	27991
804.061	28097
804.204	28048
804.346	27892
804.488	27880
804.63	27842
804.773	27857
804.915	27960
805.057	28105
805.199	27987
805.341	28135
805.483	27991
805.626	28101
805.768	28006
805.91	27968
806.052	28131
806.194	28070
806.336	28223
806.478	28177
806.62	28097
806.762	28135
806.904	28474
807.046	28641
807.188	28565
807.33	28626
807.472	28554
807.614	28348
807.756	28493
807.898	28451
808.04	28352
808.182	28405
808.324	28470
808.465	28500
808.607	28634
808.749	28809
808.891	28900
809.033	28888
809.174	28850
809.316	28771
809.458	28706
809.6	28675
809.741	28904
809.883	28786
810.025	28999
810.166	29041
810.308	28953
810.45	28965
810.591	28900
810.733	28816
810.875	28824
811.016	28786
811.158	28717
811.299	28835
811.441	28965
811.582	28953
811.724	28755
811.865	28885
812.007	28793
812.148	28790
812.29	28687
812.431	28923
812.573	28995
812.714	29200
812.855	29132
812.997	29463
813.138	29615
813.279	29345
813.421	29254
813.562	29254
813.703	29086
813.845	29109
813.986	28854
814.127	28561
814.268	28462
814.41	28535
814.551	28371
814.692	28538
814.833	28299
814.974	28497
815.115	28542
815.256	28280
815.397	28371
815.539	28242
815.68	28299
815.821	28314
815.962	28287
816.103	28367
816.244	28112
816.385	28116
816.526	28139
816.666	27850
816.807	27816
816.948	27857
817.089	27892
817.23	27629
817.371	27717
817.512	27755
817.653	27686
817.793	27774
817.934	27781
818.075	27759
818.216	27819
818.356	27675
818.497	27671
818.638	27603
818.778	27462
818.919	27629
819.06	27568
819.2	27827
819.341	27797
819.481	27797
819.622	27899
819.762	28162
819.903	28101
820.043	27945
820.184	28010
820.324	27930
820.465	27941
820.605	27975
820.746	27930
820.886	27835
821.026	27857
821.167	27922
821.307	27903
821.447	27766
821.588	27762
821.728	27583
821.868	27439
822.008	27473
822.149	27230
822.289	27249
822.429	27001
822.569	26963
822.709	26990
822.849	26823
822.99	26811
823.13	26830
823.27	26587
823.41	26678
823.55	26530
823.69	26549
823.83	26693
823.97	26564
824.11	26332
824.25	26438
824.389	26309
824.529	26545
824.669	26507
824.809	26644
824.949	26587
825.089	26644
825.228	26442
825.368	26438
825.508	26351
825.648	26248
825.787	26214
825.927	26385
826.067	26202
826.206	26290
826.346	26431
826.485	26282
826.625	26088
826.765	26427
826.904	26396
827.044	26043
827.183	26058
827.323	26039
827.462	26081
827.601	26046
827.741	25982
827.88	26024
828.02	25902
828.159	25925
828.298	26100
828.437	26130
828.577	25966
828.716	26233
828.855	25864
828.994	25799
829.134	25757
829.273	25772
829.412	25712
829.551	25578
829.69	25708
829.829	25628
829.968	25628
830.107	25750
830.246	25670
830.385	25582
830.524	25460
830.663	25502
830.802	25464
830.941	25350
831.08	25331
831.219	25266
831.357	25350
831.496	25491
831.635	25297
831.774	25244
831.913	25236
832.051	25053
832.19	25084
832.329	24939
832.467	25019
832.606	24856
832.744	24928
832.883	24970
833.022	24863
833.16	25000
833.299	24924
833.437	24939
833.576	25190
833.714	25004
833.852	25076
833.991	25145
834.129	25164
834.267	25084
834.406	24932
834.544	25008
834.682	25107
834.821	25072
834.959	25255
835.097	24966
835.235	25065
835.373	24913
835.511	25050
835.65	24996
835.788	24890
835.926	24772
836.064	24566
836.202	24829
836.34	24859
836.478	24973
836.615	24700
836.753	24806
836.891	24947
837.029	24920
837.167	24829
837.305	24764
837.443	24890
837.58	24726
837.718	24814
837.856	24745
837.993	24665
838.131	24760
838.269	24650
838.406	24566
838.544	24513
838.681	24391
838.819	24285
838.956	24098
839.094	24178
839.231	24213
839.369	24350
839.506	24551
839.643	24479
839.781	24216
839.918	24224
840.055	24060
840.193	24140
840.33	23904
840.467	24083
840.604	24026
840.742	24311
840.879	24091
841.016	23885
841.153	23950
841.29	24110
841.427	23961
841.564	24083
841.701	24102
841.838	23950
841.975	24076
842.112	24011
842.249	23912
842.385	23893
842.522	24076
842.659	23859
842.796	23965
842.933	23771
843.069	23901
843.206	23767
843.343	23863
843.479	23954
843.616	23821
843.752	23543
843.889	23707
844.025	23737
844.162	23562
844.298	23539
844.435	23653
844.571	23646
844.708	23630
844.844	23771
844.98	23665
845.117	23779
845.253	23433
845.389	23410
845.525	23566
845.661	23573
845.798	23299
845.934	23341
846.07	23216
846.206	23391
846.342	23467
846.478	23353
846.614	23147
846.75	22991
846.886	23067
847.022	23083
847.158	23128
847.294	23128
847.429	23083
847.565	22980
847.701	23334
847.837	22725
847.972	22748
848.108	22854
848.244	22820
848.379	22653
848.515	22626
848.65	22535
848.786	22721
848.921	22641
849.057	22755
849.192	22740
849.328	22675
849.463	22660
849.598	22664
849.734	22386
849.869	22565
850.004	22512
850.14	22284
850.275	22554
850.41	22257
850.545	22314
850.68	22485
850.815	22519
850.95	22428
851.085	22653
851.22	22413
851.355	22375
851.49	22284
851.625	22485
851.76	22432
851.895	22470
852.03	22322
852.165	22481
852.299	22436
852.434	22493
852.569	22421
852.703	22455
852.838	22428
852.973	22478
853.107	22485
853.242	22310
853.376	22207
853.511	22143
853.645	22242
853.78	22337
853.914	22181
854.048	22238
854.183	22173
854.317	22196
854.451	22428
854.585	22379
854.72	22147
854.854	22207
854.988	22196
855.122	22253
855.256	22131
855.39	22230
855.524	22303
855.658	22185
855.792	22295
855.926	22207
856.06	22268
856.194	22287
856.327	22158
856.461	22169
856.595	22200
856.729	22303
856.862	22341
856.996	22276
857.13	22234
857.263	22352
857.397	22390
857.53	22363
857.664	22272
857.797	22268
857.931	22234
858.064	22310
858.197	22360
858.331	22177
858.464	22131
858.597	22246
858.731	22219
858.864	22215
858.997	22280
859.13	22135
859.263	22261
859.396	22154
859.529	22322
859.662	22166
859.795	22090
859.928	22238
860.061	22417
860.194	22466
860.327	22344
860.46	22249
860.592	22341
860.725	22352
860.858	22417
860.99	22295
861.123	22048
861.256	22166
861.388	22284
861.521	22972
861.653	22200
861.786	22032
861.918	21903
862.05	22013
862.183	22177
862.315	22131
862.447	22265
862.58	22063
862.712	22051
862.844	21945
862.976	22036
863.108	22002
863.24	22341
863.372	21861
863.504	21956
863.636	21953
863.768	22086
863.9	21926
864.032	21926
864.164	21899
864.296	21964
864.428	21972
864.559	21865
864.691	22067
864.823	21945
864.954	21968
865.086	21956
865.217	21698
865.349	21816
865.48	21857
865.612	21850
865.743	22006
865.875	21857
866.006	21759
866.137	21808
866.269	21724
866.4	21846
866.531	21793
866.662	21686
866.793	21762
866.924	21713
867.055	21762
867.186	21835
867.317	21728
867.448	21728
867.579	21793
867.71	21614
867.841	21728
867.972	21808
868.103	21728
868.233	21743
868.364	21766
868.495	21770
868.625	22017
868.756	22158
868.886	21934
869.017	21998
869.147	22234
869.278	22070
869.408	22013
869.539	22090
869.669	22112
869.799	22048
869.929	22223
870.06	22078
870.19	22348
870.32	22287
870.45	22432
870.58	22303
870.71	22519
870.84	22523
870.97	22462
871.1	22432
871.23	22622
871.36	22653
871.489	22504
871.619	22569
871.749	22546
871.879	22561
872.008	22725
872.138	22554
872.267	22557
872.397	22466
872.526	22485
872.656	22523
872.785	22497
872.915	22664
873.044	22630
873.173	22615
873.303	22634
873.432	22557
873.561	22793
873.69	22710
873.819	22713
873.948	22626
874.077	22691
874.206	22675
874.335	22702
874.464	22668
874.593	22713
874.722	22767
874.851	22816
874.979	22816
875.108	22915
875.237	22835
875.365	22759
875.494	22877
875.623	22999
875.751	22809
875.88	22839
876.008	23056
876.136	23018
876.265	23242
876.393	23334
876.521	23353
876.65	23395
876.778	23296
876.906	23128
877.034	23147
877.162	23208
877.29	23102
877.418	23216
877.546	23178
877.674	23273
877.802	23235
877.93	23269
878.058	23231
878.185	22927
878.313	23113
878.441	23083
878.568	23003
878.696	23121
878.824	23166
878.951	23269
879.079	23421
879.206	23535
879.333	23345
879.461	23208
879.588	23239
879.715	23353
879.842	23570
879.97	23273
880.097	23102
880.224	22938
880.351	23086
880.478	23022
880.605	22930
880.732	23071
880.859	23220
880.986	22805
881.112	22968
881.239	22740
881.366	22717
881.493	22729
881.619	22557
881.746	22497
881.872	22542
881.999	22481
882.125	22596
882.252	22538
882.378	22451
882.505	22637
882.631	22405
882.757	22341
882.883	22318
883.01	22261
883.136	22265
883.262	22135
883.388	22086
883.514	22394
883.64	22196
883.766	22086
883.892	21911
884.018	22013
884.143	22074
884.269	22215
884.395	21998
884.52	21903
884.646	21861
884.772	21865
884.897	21747
885.023	21918
885.148	22006
885.274	22006
885.399	22013
885.524	21846
885.65	22093
885.775	21994
885.9	21899
886.025	22006
886.15	22013
886.275	21800
886.4	21728
886.525	21816
886.65	21762
886.775	21793
886.9	21956
887.025	22055
887.149	21766
887.274	21644
887.399	21686
887.523	21747
887.648	21587
887.773	21473
887.897	21743
888.021	21709
888.146	21591
888.27	21762
888.395	21709
888.519	21667
888.643	21660
888.767	21732
888.891	21595
889.015	21344
889.139	21549
889.263	21473
889.387	21545
889.511	21667
889.635	21553
889.759	21408
889.883	21428
890.006	21466
890.13	21500
890.254	21340
890.377	21359
890.501	21150
890.624	21036
890.748	21245
890.871	21024
890.995	20906
891.118	21024
891.241	20990
891.364	21108
891.488	21043
891.611	21142
891.734	20979
891.857	21055
891.98	20982
892.103	21131
892.226	21108
892.349	20910
892.471	20701
892.594	20872
892.717	20952
892.839	20933
892.962	20929
893.085	21013
893.207	20933
893.33	20727
893.452	20792
893.575	20929
893.697	20902
893.819	20975
893.941	21058
894.064	21020
894.186	20868
894.308	20830
894.43	20998
894.552	20910
894.674	20864
894.796	20800
894.918	20785
895.04	20800
895.161	20868
895.283	20929
895.405	20807
895.526	20842
895.648	20845
895.769	20933
895.891	20937
896.012	21039
896.134	20929
896.255	20929
896.376	20781
896.498	20925
896.619	20826
896.74	20944
896.861	21020
896.982	21245
897.103	21252
897.224	21211
897.345	21081
897.466	21009
897.587	21028
897.708	21119
897.828	21093
897.949	20952
898.07	20960
898.19	21127
898.311	21058
898.431	21024
898.552	21146
898.672	21104
898.792	21123
898.913	21085
899.033	20937
899.153	20956
899.273	20754
899.393	20773
899.513	20834
899.633	20880
899.753	20834
899.873	20758
899.993	20906
900.113	20659
900.232	20807
900.352	20693
900.472	20659
900.591	20602
900.711	20541
900.83	20518
900.95	20644
901.069	20644
901.189	20473
901.308	20237
901.427	20240
901.546	20168
901.665	20195
901.784	20145
901.904	19947
902.023	19925
902.141	19738
902.26	19727
902.379	19845
902.498	19693
902.617	19548
902.735	19753
902.854	19613
902.973	19567
903.091	19331
903.21	19297
903.328	19339
903.446	19278
903.565	19190
903.683	19190
903.801	18977
903.919	19091
904.038	19034
904.156	18829
904.274	18970
904.392	18909
904.51	18825
904.627	18760
904.745	18882
904.863	18890
904.981	18650
905.098	18582
905.216	18475
905.334	18696
905.451	18604
905.569	18582
905.686	18696
905.803	18483
905.921	18369
906.038	18521
906.155	18338
906.272	18232
906.389	18152
906.506	18091
906.623	18079
906.74	18060
906.857	17984
906.974	17977
907.091	18197
907.208	18213
907.324	18060
907.441	17908
907.557	17786
907.674	17813
907.79	17707
907.907	17672
908.023	17737
908.139	17828
908.256	17722
908.372	17649
908.488	17623
908.604	17577
908.72	17459
908.836	17406
908.952	17474
909.068	17482
909.184	17547
909.3	17474
909.415	17528
909.531	17448
909.647	17254
909.762	17136
909.878	17185
909.993	17113
910.108	17102
910.224	17178
910.339	17048
910.454	17086
910.57	16911
910.685	16900
910.8	17162
910.915	17193
911.03	16965
911.145	16820
911.259	16862
911.374	16809
911.489	16596
911.604	16637
911.718	16531
911.833	16573
911.947	16440
912.062	16356
912.176	16500
912.291	16554
912.405	16531
912.519	16668
912.633	16687
912.748	16550
912.862	16588
912.976	16329
913.09	16242
913.204	16272
913.318	16379
913.431	16379
913.545	16516
913.659	16398
913.772	16207
913.886	16131
914	16173
914.113	16219
914.226	16261
914.34	16135
914.453	15964
914.566	16143
914.68	15960
914.793	15857
914.906	15857
915.019	15675
915.132	15709
915.245	15732
915.358	15599
915.47	15724
915.583	15743
915.696	15736
915.809	15808
915.921	15819
916.034	15614
916.146	15542
916.259	15675
916.371	15675
916.483	15644
916.595	15507
916.708	15534
916.82	15496
916.932	15435
917.044	15496
917.156	15526
917.268	15367
917.38	15313
917.491	15298
917.603	15268
917.715	15363
917.826	15523
917.938	15313
918.049	15264
918.161	15291
918.272	15519
918.384	15359
918.495	15237
918.606	15135
918.717	14944
918.828	15116
918.939	15085
919.05	14902
919.161	15047
919.272	14914
919.383	14998
919.494	15055
919.604	15218
919.715	15032
919.826	15062
919.936	14967
920.047	15108
920.157	15066
920.267	15287
920.378	15013
920.488	14994
920.598	15184
920.708	15332
920.818	15138
920.928	15104
921.038	15344
921.148	15237
921.258	15009
921.368	14952
921.477	14796
921.587	14781
921.697	14796
921.806	14773
921.916	14678
922.025	14484
922.134	14400
922.244	14336
922.353	14484
922.462	14343
922.571	14278
922.68	14119
922.789	14020
922.898	14005
923.007	14111
923.116	14054
923.224	14031
923.333	14001
923.442	13887
923.55	13875
923.659	13902
923.767	13890
923.876	13868
923.984	13841
924.092	13799
924.201	13799
924.309	13780
924.417	13765
924.525	13655
924.633	13738
924.741	14465
924.849	13518
924.956	13601
925.064	13480
925.172	13377
925.279	13438
925.387	13480
925.494	13445
925.602	13552
925.709	13369
925.816	13373
925.924	13369
926.031	13499
926.138	13358
926.245	13358
926.352	13316
926.459	13434
926.566	13430
926.673	13324
926.779	13228
926.886	13187
926.993	13000
927.099	13076
927.206	12985
927.312	12935
927.419	13080
927.525	12916
927.631	13019
927.737	12882
927.843	12772
927.95	12760
928.056	12764
928.162	12920
928.267	12867
928.373	13320
928.479	12897
928.585	12635
928.69	12760
928.796	12776
928.901	12631
929.007	12490
929.112	12646
929.218	12585
929.323	12483
929.428	12601
929.533	12604
929.638	12467
929.743	12506
929.848	12494
929.953	12407
930.058	12365
930.163	12110
930.267	12213
930.372	12369
930.477	12091
930.581	12323
930.685	12209
930.79	12041
930.894	12114
930.998	12003
931.103	12079
931.207	11710
931.311	11726
931.415	11691
931.519	11455
931.623	11452
