Data from test_V78500241_235.txt Node
Date: Fri Mar 25 15:43:25 CST 2022
User: usil
Spectrometer: V785-0024
Trigger mode: 0
Integration Time (sec): 4.000000E-1
Scans to average: 1
Nonlinearity correction enabled: false
Boxcar width: 0
Storing dark spectrum: false
XAxis mode: Wavelengths
Number of Pixels in Spectrum: 1024
>>>>>Begin Spectral Data<<<<<
801.071	29581
801.214	29627
801.356	29315
801.499	29273
801.641	29223
801.783	29155
801.926	29258
802.068	29113
802.211	29056
802.353	28858
802.496	28740
802.638	28862
802.78	28900
802.923	28691
803.065	28675
803.208	28660
803.35	28843
803.492	28949
803.635	29033
803.777	28717
803.919	29109
804.061	29174
804.204	29003
804.346	28968
804.488	28759
804.63	28790
804.773	28630
804.915	28919
805.057	28927
805.199	28896
805.341	29151
805.483	28999
805.626	28995
805.768	28946
805.91	28946
806.052	29064
806.194	28946
806.336	29147
806.478	29041
806.62	28949
806.762	29060
806.904	29322
807.046	29646
807.188	29459
807.33	29463
807.472	29623
807.614	29421
807.756	29269
807.898	29235
808.04	29284
808.182	29212
808.324	29109
808.465	29181
808.607	29372
808.749	29619
808.891	29760
809.033	29802
809.174	29684
809.316	29619
809.458	29509
809.6	29528
809.741	29672
809.883	29764
810.025	29923
810.166	29798
810.308	29935
810.45	29942
810.591	29855
810.733	29638
810.875	29646
811.016	29585
811.158	29474
811.299	29851
811.441	29824
811.582	29745
811.724	29657
811.865	29471
812.007	29611
812.148	29554
812.29	29528
812.431	29741
812.573	29901
812.714	30068
812.855	30106
812.997	30190
813.138	30243
813.279	30060
813.421	30068
813.562	29939
813.703	29882
813.845	29843
813.986	29448
814.127	29250
814.268	29170
814.41	29296
814.551	29353
814.692	29307
814.833	29105
814.974	29258
815.115	29174
815.256	28991
815.397	29010
815.539	29044
815.68	28957
815.821	28877
815.962	29041
816.103	28942
816.244	28953
816.385	28763
816.526	28618
816.666	28538
816.807	28325
816.948	28432
817.089	28698
817.23	28550
817.371	28413
817.512	28447
817.653	28325
817.793	28360
817.934	28382
818.075	28535
818.216	28497
818.356	28455
818.497	28348
818.638	28150
818.778	28074
818.919	28074
819.06	28207
819.2	28261
819.341	28390
819.481	28280
819.622	28367
819.762	28675
819.903	28653
820.043	28512
820.184	28622
820.324	28382
820.465	28489
820.605	28436
820.746	28535
820.886	28287
821.026	28382
821.167	28440
821.307	28557
821.447	28367
821.588	28272
821.728	28078
821.868	28013
822.008	27751
822.149	27785
822.289	27686
822.429	27545
822.569	27374
822.709	27348
822.849	27367
822.99	27310
823.13	27245
823.27	27195
823.41	27108
823.55	27009
823.69	27043
823.83	27119
823.97	27070
824.11	26906
824.25	26838
824.389	26800
824.529	26986
824.669	26880
824.809	26857
824.949	26845
825.089	26971
825.228	26838
825.368	26590
825.508	26845
825.648	26625
825.787	26823
825.927	26838
826.067	26800
826.206	26724
826.346	26769
826.485	26750
826.625	26746
826.765	26872
826.904	26758
827.044	26393
827.183	26590
827.323	26320
827.462	26400
827.601	26396
827.741	26385
827.88	26393
828.02	26168
828.159	26381
828.298	26275
828.437	26351
828.577	26313
828.716	26484
828.855	26183
828.994	26043
829.134	26267
829.273	26161
829.412	26050
829.551	25909
829.69	26035
829.829	25997
829.968	26096
830.107	26206
830.246	25997
830.385	25989
830.524	25890
830.663	25757
830.802	25822
830.941	25548
831.08	25571
831.219	25628
831.357	25525
831.496	25704
831.635	25499
831.774	25464
831.913	25586
832.051	25301
832.19	25301
832.329	25430
832.467	25396
832.606	25065
832.744	25190
832.883	25236
833.022	25129
833.16	25304
833.299	25362
833.437	25297
833.576	25221
833.714	25263
833.852	25373
833.991	25316
834.129	25369
834.267	25331
834.406	25145
834.544	25316
834.682	25213
834.821	25289
834.959	25403
835.097	25183
835.235	25293
835.373	25244
835.511	25228
835.65	25065
835.788	25000
835.926	24863
836.064	24757
836.202	24863
836.34	25129
836.478	25103
836.615	25004
836.753	25061
836.891	25076
837.029	25091
837.167	24863
837.305	24943
837.443	24985
837.58	24882
837.718	24935
837.856	24882
837.993	24844
838.131	24939
838.269	24623
838.406	24745
838.544	24612
838.681	24566
838.819	24505
838.956	24304
839.094	24315
839.231	24350
839.369	24441
839.506	24715
839.643	24513
839.781	24300
839.918	24289
840.055	24239
840.193	24403
840.33	24235
840.467	24239
840.604	24197
840.742	24483
840.879	24182
841.016	24095
841.153	24076
841.29	24330
841.427	24148
841.564	24034
841.701	24095
841.838	24125
841.975	24041
842.112	24194
842.249	23996
842.385	23893
842.522	24136
842.659	23984
842.796	23866
842.933	23790
843.069	23897
843.206	23851
843.343	23965
843.479	23908
843.616	23885
843.752	23653
843.889	23600
844.025	23695
844.162	23684
844.298	23657
844.435	23676
844.571	23482
844.708	23672
844.844	23828
844.98	23741
845.117	23786
845.253	23573
845.389	23482
845.525	23543
845.661	23531
845.798	23311
845.934	23417
846.07	23307
846.206	23322
846.342	23436
846.478	23273
846.614	23113
846.75	22904
846.886	22999
847.022	23003
847.158	23052
847.294	22976
847.429	22980
847.565	22949
847.701	23261
847.837	22687
847.972	22721
848.108	22877
848.244	22759
848.379	22713
848.515	22531
848.65	22645
848.786	22554
848.921	22573
849.057	22782
849.192	22694
849.328	22786
849.463	22668
849.598	22538
849.734	22485
849.869	22462
850.004	22481
850.14	22386
850.275	22341
850.41	22261
850.545	22344
850.68	22173
850.815	22375
850.95	22234
851.085	22538
851.22	22413
851.355	22257
851.49	22424
851.625	22322
851.76	22306
851.895	22188
852.03	22143
852.165	22295
852.299	22322
852.434	22394
852.569	22226
852.703	22306
852.838	22508
852.973	22417
853.107	22386
853.242	22200
853.376	22135
853.511	22029
853.645	22025
853.78	22325
853.914	22238
854.048	22166
854.183	21998
854.317	22188
854.451	22287
854.585	22257
854.72	22109
854.854	22154
854.988	22078
855.122	22166
855.256	21960
855.39	22166
855.524	22226
855.658	22181
855.792	22093
855.926	22150
856.06	22204
856.194	22158
856.327	22067
856.461	22040
856.595	21994
856.729	22112
856.862	22211
856.996	22082
857.13	22128
857.263	22177
857.397	22223
857.53	22036
857.664	22211
857.797	22051
857.931	22249
858.064	22112
858.197	22299
858.331	22051
858.464	22017
858.597	22013
858.731	22040
858.864	21975
858.997	22029
859.13	21934
859.263	22204
859.396	22185
859.529	22173
859.662	22063
859.795	21911
859.928	22055
860.061	22116
860.194	22253
860.327	22086
860.46	22078
860.592	22226
860.725	22169
860.858	22139
860.99	22093
861.123	21823
861.256	22002
861.388	22048
861.521	22691
861.653	21884
861.786	21865
861.918	21998
862.05	22044
862.183	22070
862.315	22082
862.447	22128
862.58	21907
862.712	21732
862.844	21819
862.976	21823
863.108	21736
863.24	22276
863.372	21747
863.504	21781
863.636	21804
863.768	21633
863.9	21686
864.032	21755
864.164	21800
864.296	21759
864.428	21774
864.559	21873
864.691	21781
864.823	21747
864.954	21759
865.086	21701
865.217	21561
865.349	21599
865.48	21682
865.612	21675
865.743	21880
865.875	21648
866.006	21538
866.137	21686
866.269	21644
866.4	21595
866.531	21519
866.662	21568
866.793	21583
866.924	21561
867.055	21466
867.186	21637
867.317	21538
867.448	21519
867.579	21549
867.71	21473
867.841	21561
867.972	21519
868.103	21515
868.233	21538
868.364	21545
868.495	21656
868.625	21903
868.756	21876
868.886	21724
869.017	21762
869.147	21755
869.278	21804
869.408	21816
869.539	21717
869.669	21857
869.799	21728
869.929	21960
870.06	21903
870.19	22017
870.32	22135
870.45	22086
870.58	22166
870.71	22436
870.84	22367
870.97	22097
871.1	22177
871.23	22325
871.36	22360
871.489	22105
871.619	22478
871.749	22348
871.879	22363
872.008	22436
872.138	22413
872.267	22352
872.397	22295
872.526	22226
872.656	22196
872.785	22246
872.915	22470
873.044	22455
873.173	22428
873.303	22527
873.432	22443
873.561	22557
873.69	22428
873.819	22386
873.948	22322
874.077	22356
874.206	22348
874.335	22447
874.464	22500
874.593	22565
874.722	22611
874.851	22748
874.979	22603
875.108	22790
875.237	22504
875.365	22630
875.494	22748
875.623	22710
875.751	22645
875.88	22599
876.008	22812
876.136	22797
876.265	23075
876.393	23102
876.521	23044
876.65	23178
876.778	22995
876.906	22934
877.034	22885
877.162	23086
877.29	22923
877.418	23018
877.546	23041
877.674	22995
877.802	22949
877.93	22915
878.058	22809
878.185	22877
878.313	22938
878.441	22911
878.568	22869
878.696	22828
878.824	22946
878.951	23041
879.079	23174
879.206	23315
879.333	23003
879.461	23048
879.588	23140
879.715	23174
879.842	23197
879.97	23132
880.097	22782
880.224	22797
880.351	22858
880.478	22869
880.605	22771
880.732	22900
880.859	23147
880.986	22774
881.112	22961
881.239	22710
881.366	22500
881.493	22531
881.619	22421
881.746	22409
881.872	22405
881.999	22284
882.125	22284
882.252	22398
882.378	22238
882.505	22474
882.631	22265
882.757	22112
882.883	22162
883.01	22082
883.136	22120
883.262	22059
883.388	21934
883.514	21994
883.64	22105
883.766	22063
883.892	21781
884.018	21941
884.143	22109
884.269	22063
884.395	21766
884.52	21637
884.646	21751
884.772	21625
884.897	21564
885.023	21736
885.148	21755
885.274	21808
885.399	21679
885.524	21663
885.65	21747
885.775	21736
885.9	21538
886.025	21903
886.15	21698
886.275	21660
886.4	21496
886.525	21671
886.65	21660
886.775	21515
886.9	21854
887.025	21876
887.149	21641
887.274	21542
887.399	21435
887.523	21458
887.648	21393
887.773	21382
887.897	21557
888.021	21439
888.146	21351
888.27	21462
888.395	21481
888.519	21408
888.643	21454
888.767	21367
888.891	21329
889.015	21184
889.139	21310
889.263	21169
889.387	21302
889.511	21435
889.635	21363
889.759	21252
889.883	21100
890.006	21325
890.13	21237
890.254	20986
890.377	21085
890.501	20899
890.624	20895
890.748	20971
890.871	20830
890.995	20804
891.118	20849
891.241	20815
891.364	20823
891.488	20861
891.611	20765
891.734	20792
891.857	20872
891.98	20800
892.103	20880
892.226	20731
892.349	20735
892.471	20571
892.594	20617
892.717	20777
892.839	20788
892.962	20629
893.085	20712
893.207	20575
893.33	20473
893.452	20712
893.575	20625
893.697	20636
893.819	20792
893.941	20853
894.064	20800
894.186	20705
894.308	20609
894.43	20807
894.552	20735
894.674	20914
894.796	20499
894.918	20617
895.04	20602
895.161	20769
895.283	20720
895.405	20503
895.526	20617
895.648	20689
895.769	20750
895.891	20762
896.012	20765
896.134	20788
896.255	20689
896.376	20762
896.498	20697
896.619	20746
896.74	20762
896.861	20743
896.982	21020
897.103	21146
897.224	21100
897.345	20876
897.466	20819
897.587	20887
897.708	21127
897.828	21047
897.949	20819
898.07	20838
898.19	20849
898.311	21009
898.431	20758
898.552	20826
898.672	20899
898.792	20979
898.913	20739
899.033	20712
899.153	20602
899.273	20613
899.393	20613
899.513	20564
899.633	20530
899.753	20541
899.873	20438
899.993	20670
900.113	20415
900.232	20450
900.352	20484
900.472	20465
900.591	20301
900.711	20381
900.83	20370
900.95	20480
901.069	20465
901.189	20199
901.308	20119
901.427	19906
901.546	19898
901.665	19947
901.784	20069
901.904	19795
902.023	19674
902.141	19369
902.26	19407
902.379	19476
902.498	19441
902.617	19384
902.735	19354
902.854	19419
902.973	19289
903.091	19141
903.21	19183
903.328	19031
903.446	19000
903.565	18894
903.683	18833
903.801	18749
903.919	18875
904.038	18738
904.156	18540
904.274	18734
904.392	18574
904.51	18673
904.627	18635
904.745	18719
904.863	18616
904.981	18380
905.098	18319
905.216	18270
905.334	18384
905.451	18323
905.569	18273
905.686	18342
905.803	18136
905.921	18178
906.038	18220
906.155	17999
906.272	18106
906.389	18091
906.506	17836
906.623	17897
906.74	17748
906.857	17767
906.974	17707
907.091	17870
907.208	17908
907.324	17786
907.441	17634
907.557	17684
907.674	17547
907.79	17360
907.907	17509
908.023	17433
908.139	17493
908.256	17455
908.372	17280
908.488	17364
908.604	17216
908.72	17242
908.836	17132
908.952	17193
909.068	17269
909.184	17292
909.3	17220
909.415	17235
909.531	17151
909.647	16896
909.762	16930
909.878	16847
909.993	16938
910.108	16873
910.224	16896
910.339	16934
910.454	16797
910.57	16656
910.685	16546
910.8	16854
910.915	16786
911.03	16538
911.145	16455
911.259	16516
911.374	16436
911.489	16436
911.604	16356
911.718	16162
911.833	16147
911.947	16029
912.062	16128
912.176	16219
912.291	16322
912.405	16249
912.519	16390
912.633	16329
912.748	16295
912.862	16215
912.976	15964
913.09	15800
913.204	15922
913.318	16032
913.431	16055
913.545	16067
913.659	16078
913.772	16002
913.886	15831
914	15854
914.113	15892
914.226	15953
914.34	15789
914.453	15709
914.566	15857
914.68	15591
914.793	15671
914.906	15564
915.019	15386
915.132	15408
915.245	15348
915.358	15462
915.47	15447
915.583	15389
915.696	15374
915.809	15545
915.921	15507
916.034	15329
916.146	15222
916.259	15169
916.371	15485
916.483	15302
916.595	15195
916.708	15230
916.82	15218
916.932	15089
917.044	15154
917.156	15146
917.268	15070
917.38	14975
917.491	15062
917.603	15062
917.715	15081
917.826	15066
917.938	14975
918.049	14804
918.161	15017
918.272	15051
918.384	15058
918.495	14986
918.606	14804
918.717	14746
918.828	14807
918.939	14918
919.05	14655
919.161	14705
919.272	14518
919.383	14541
919.494	14785
919.604	14929
919.715	14667
919.826	14617
919.936	14663
920.047	14792
920.157	14701
920.267	14826
920.378	14682
920.488	14678
920.598	14819
920.708	14994
920.818	14762
920.928	14769
921.038	14990
921.148	14921
921.258	14686
921.368	14518
921.477	14381
921.587	14385
921.697	14248
921.806	14351
921.916	14256
922.025	14126
922.134	14069
922.244	14115
922.353	14046
922.462	13955
922.571	13989
922.68	13746
922.789	13780
922.898	13742
923.007	13594
923.116	13757
923.224	13582
923.333	13647
923.442	13556
923.55	13567
923.659	13533
923.767	13510
923.876	13506
923.984	13453
924.092	13487
924.201	13502
924.309	13354
924.417	13419
924.525	13373
924.633	13388
924.741	14031
924.849	13293
924.956	13240
925.064	13198
925.172	12996
925.279	13164
925.387	13107
925.494	13206
925.602	13190
925.709	13088
925.816	13053
925.924	13008
926.031	13198
926.138	13023
926.245	13042
926.352	12954
926.459	13069
926.566	13084
926.673	12916
926.779	12901
926.886	12928
926.993	12703
927.099	12696
927.206	12635
927.312	12551
927.419	12722
927.525	12688
927.631	12658
927.737	12608
927.843	12486
927.95	12494
928.056	12471
928.162	12433
928.267	12502
928.373	13141
928.479	12540
928.585	12266
928.69	12429
928.796	12437
928.901	12350
929.007	12159
929.112	12281
929.218	12186
929.323	12228
929.428	12125
929.533	12258
929.638	12167
929.743	12076
929.848	12178
929.953	12098
930.058	11942
930.163	11870
930.267	11855
930.372	12026
930.477	11866
930.581	12087
930.685	11939
930.79	11665
930.894	11748
930.998	11642
931.103	11912
931.207	11509
931.311	11307
931.415	11330
931.519	11098
931.623	11075
