Data from test_V78500241_1662.txt Node
Date: Fri Mar 25 15:53:18 CST 2022
User: usil
Spectrometer: V785-0024
Trigger mode: 0
Integration Time (sec): 4.000000E-1
Scans to average: 1
Nonlinearity correction enabled: false
Boxcar width: 0
Storing dark spectrum: false
XAxis mode: Wavelengths
Number of Pixels in Spectrum: 1024
>>>>>Begin Spectral Data<<<<<
801.071	28348
801.214	28238
801.356	28044
801.499	28032
801.641	28051
801.783	27903
801.926	27945
802.068	27884
802.211	27736
802.353	27793
802.496	27618
802.638	27591
802.78	27500
802.923	27348
803.065	27443
803.208	27447
803.35	27618
803.492	27648
803.635	27705
803.777	27656
803.919	27865
804.061	28112
804.204	27819
804.346	27652
804.488	27686
804.63	27838
804.773	27641
804.915	27934
805.057	28017
805.199	27880
805.341	27808
805.483	27945
805.626	27945
805.768	27934
805.91	27968
806.052	28017
806.194	27831
806.336	28051
806.478	27869
806.62	27930
806.762	28143
806.904	28196
807.046	28546
807.188	28306
807.33	28341
807.472	28538
807.614	28375
807.756	28303
807.898	28230
808.04	28284
808.182	28070
808.324	28200
808.465	28337
808.607	28542
808.749	28603
808.891	28786
809.033	28653
809.174	28702
809.316	28557
809.458	28748
809.6	28462
809.741	28599
809.883	28626
810.025	28824
810.166	28801
810.308	28991
810.45	28850
810.591	28713
810.733	28733
810.875	28618
811.016	28542
811.158	28569
811.299	28786
811.441	28736
811.582	28691
811.724	28557
811.865	28550
812.007	28542
812.148	28569
812.29	28748
812.431	28858
812.573	29025
812.714	28961
812.855	29178
812.997	29307
813.138	29307
813.279	29337
813.421	29166
813.562	28961
813.703	28991
813.845	28809
813.986	28615
814.127	28485
814.268	28276
814.41	28382
814.551	28223
814.692	28322
814.833	28192
814.974	28135
815.115	28158
815.256	28013
815.397	28086
815.539	28162
815.68	28090
815.821	27956
815.962	28078
816.103	28010
816.244	28036
816.385	27880
816.526	27956
816.666	27663
816.807	27549
816.948	27637
817.089	27656
817.23	27637
817.371	27648
817.512	27500
817.653	27583
817.793	27530
817.934	27648
818.075	27507
818.216	27587
818.356	27481
818.497	27439
818.638	27321
818.778	27378
818.919	27310
819.06	27431
819.2	27420
819.341	27652
819.481	27542
819.622	27694
819.762	27831
819.903	27949
820.043	27816
820.184	27732
820.324	27880
820.465	27884
820.605	27785
820.746	27755
820.886	27644
821.026	27625
821.167	27599
821.307	27819
821.447	27705
821.588	27507
821.728	27507
821.868	27348
822.008	27077
822.149	27211
822.289	27032
822.429	26853
822.569	26693
822.709	26819
822.849	26758
822.99	26689
823.13	26503
823.27	26590
823.41	26434
823.55	26358
823.69	26446
823.83	26431
823.97	26324
824.11	26271
824.25	26218
824.389	26180
824.529	26271
824.669	26271
824.809	26351
824.949	26389
825.089	26362
825.228	26320
825.368	26100
825.508	26126
825.648	26126
825.787	26046
825.927	26130
826.067	25986
826.206	26005
826.346	26119
826.485	26225
826.625	26077
826.765	26062
826.904	26088
827.044	25936
827.183	25822
827.323	25700
827.462	25966
827.601	25750
827.741	25795
827.88	25879
828.02	25666
828.159	25799
828.298	25788
828.437	25898
828.577	25841
828.716	25837
828.855	25696
828.994	25548
829.134	25464
829.273	25548
829.412	25537
829.551	25525
829.69	25510
829.829	25635
829.968	25563
830.107	25609
830.246	25559
830.385	25479
830.524	25320
830.663	25335
830.802	25270
830.941	25099
831.08	25084
831.219	25209
831.357	25244
831.496	25354
831.635	25114
831.774	25217
831.913	25019
832.051	24932
832.19	24798
832.329	24985
832.467	24825
832.606	24802
832.744	24684
832.883	24726
833.022	24821
833.16	24852
833.299	24833
833.437	24722
833.576	24901
833.714	24992
833.852	24833
833.991	25000
834.129	25012
834.267	24943
834.406	24977
834.544	24848
834.682	24916
834.821	24772
834.959	25046
835.097	24760
835.235	24814
835.373	24973
835.511	24909
835.65	24719
835.788	24833
835.926	24688
836.064	24593
836.202	24597
836.34	24738
836.478	24905
836.615	24776
836.753	24821
836.891	24681
837.029	24722
837.167	24593
837.305	24711
837.443	24684
837.58	24566
837.718	24658
837.856	24650
837.993	24441
838.131	24437
838.269	24342
838.406	24254
838.544	24471
838.681	24285
838.819	24155
838.956	24030
839.094	24015
839.231	24159
839.369	24186
839.506	24422
839.643	24289
839.781	24034
839.918	23973
840.055	23961
840.193	23961
840.33	23965
840.467	23954
840.604	23889
840.742	24232
840.879	23748
841.016	23935
841.153	23695
841.29	24018
841.427	23912
841.564	23946
841.701	23965
841.838	23824
841.975	23775
842.112	23710
842.249	23691
842.385	23729
842.522	23870
842.659	23764
842.796	23604
842.933	23752
843.069	23653
843.206	23543
843.343	23638
843.479	23642
843.616	23649
843.752	23376
843.889	23467
844.025	23562
844.162	23330
844.298	23414
844.435	23410
844.571	23353
844.708	23345
844.844	23577
844.98	23680
845.117	23516
845.253	23345
845.389	23345
845.525	23349
845.661	23307
845.798	23151
845.934	23246
846.07	23128
846.206	23189
846.342	23296
846.478	23083
846.614	22930
846.75	22885
846.886	22809
847.022	22995
847.158	22957
847.294	22957
847.429	22995
847.565	22915
847.701	23105
847.837	22771
847.972	22596
848.108	22679
848.244	22656
848.379	22459
848.515	22421
848.65	22382
848.786	22428
848.921	22360
849.057	22592
849.192	22447
849.328	22398
849.463	22546
849.598	22375
849.734	22371
849.869	22360
850.004	22188
850.14	22314
850.275	22226
850.41	22215
850.545	22101
850.68	22280
850.815	22291
850.95	22257
851.085	22470
851.22	22314
851.355	22234
851.49	22173
851.625	22131
851.76	22196
851.895	22188
852.03	22185
852.165	22192
852.299	22276
852.434	22318
852.569	22268
852.703	22143
852.838	22394
852.973	22341
853.107	22280
853.242	22246
853.376	22090
853.511	21975
853.645	22002
853.78	22131
853.914	22116
854.048	22112
854.183	22013
854.317	22135
854.451	22265
854.585	22105
854.72	22029
854.854	22124
854.988	21956
855.122	22002
855.256	21991
855.39	21972
855.524	22124
855.658	22059
855.792	22086
855.926	22112
856.06	22048
856.194	22063
856.327	21991
856.461	22017
856.595	22006
856.729	22044
856.862	22257
856.996	22188
857.13	22074
857.263	22238
857.397	22112
857.53	22112
857.664	22109
857.797	21956
857.931	22139
858.064	22116
858.197	22124
858.331	22055
858.464	22109
858.597	21949
858.731	21937
858.864	22036
858.997	21975
859.13	22143
859.263	22112
859.396	22070
859.529	21846
859.662	21884
859.795	21987
859.928	22101
860.061	22181
860.194	22230
860.327	22131
860.46	22059
860.592	22135
860.725	22265
860.858	22177
860.99	22044
861.123	21972
861.256	21953
861.388	21975
861.521	22763
861.653	22013
861.786	21911
861.918	21823
862.05	21930
862.183	21979
862.315	21941
862.447	22150
862.58	21987
862.712	21770
862.844	21720
862.976	21876
863.108	21850
863.24	22188
863.372	21686
863.504	21751
863.636	21892
863.768	21842
863.9	21743
864.032	21736
864.164	21793
864.296	21728
864.428	21819
864.559	21922
864.691	21956
864.823	21793
864.954	21755
865.086	21762
865.217	21774
865.349	21603
865.48	21857
865.612	21644
865.743	21816
865.875	21660
866.006	21515
866.137	21641
866.269	21667
866.4	21705
866.531	21610
866.662	21637
866.793	21618
866.924	21656
867.055	21591
867.186	21618
867.317	21648
867.448	21477
867.579	21595
867.71	21500
867.841	21450
867.972	21637
868.103	21568
868.233	21538
868.364	21629
868.495	21717
868.625	21857
868.756	21918
868.886	21690
869.017	21682
869.147	21937
869.278	21907
869.408	21770
869.539	21907
869.669	21941
869.799	21884
869.929	21880
870.06	21956
870.19	22143
870.32	22097
870.45	22135
870.58	22265
870.71	22215
870.84	22329
870.97	22139
871.1	22211
871.23	22306
871.36	22462
871.489	22253
871.619	22325
871.749	22459
871.879	22394
872.008	22577
872.138	22382
872.267	22371
872.397	22272
872.526	22143
872.656	22204
872.785	22341
872.915	22390
873.044	22531
873.173	22432
873.303	22516
873.432	22580
873.561	22523
873.69	22455
873.819	22504
873.948	22523
874.077	22424
874.206	22318
874.335	22493
874.464	22694
874.593	22588
874.722	22641
874.851	22634
874.979	22630
875.108	22812
875.237	22713
875.365	22611
875.494	22546
875.623	22618
875.751	22668
875.88	22660
876.008	22755
876.136	22812
876.265	23018
876.393	23174
876.521	23151
876.65	23235
876.778	23056
876.906	22946
877.034	22934
877.162	22949
877.29	23044
877.418	23037
877.546	22995
877.674	23052
877.802	22949
877.93	23060
878.058	22961
878.185	22915
878.313	22869
878.441	22976
878.568	22850
878.696	22972
878.824	22976
878.951	23022
879.079	23094
879.206	23220
879.333	23140
879.461	22991
879.588	23143
879.715	23155
879.842	23136
879.97	22934
880.097	22873
880.224	22809
880.351	22862
880.478	22820
880.605	22767
880.732	22805
880.859	22999
880.986	22828
881.112	22839
881.239	22698
881.366	22622
881.493	22367
881.619	22421
881.746	22398
881.872	22481
881.999	22371
882.125	22318
882.252	22371
882.378	22379
882.505	22459
882.631	22234
882.757	22097
882.883	22101
883.01	22017
883.136	22006
883.262	21968
883.388	21842
883.514	22044
883.64	22013
883.766	21991
883.892	21846
884.018	21812
884.143	21991
884.269	22040
884.395	21854
884.52	21705
884.646	21842
884.772	21671
884.897	21568
885.023	21698
885.148	21781
885.274	21732
885.399	21857
885.524	21648
885.65	21686
885.775	21709
885.9	21759
886.025	21861
886.15	21850
886.275	21641
886.4	21610
886.525	21652
886.65	21679
886.775	21656
886.9	21808
887.025	21876
887.149	21610
887.274	21587
887.399	21511
887.523	21511
887.648	21428
887.773	21355
887.897	21656
888.021	21386
888.146	21405
888.27	21557
888.395	21580
888.519	21382
888.643	21591
888.767	21477
888.891	21370
889.015	21287
889.139	21283
889.263	21150
889.387	21272
889.511	21408
889.635	21424
889.759	21207
889.883	21256
890.006	21207
890.13	21329
890.254	21173
890.377	21195
890.501	20864
890.624	21047
890.748	21017
890.871	20925
890.995	20670
891.118	20861
891.241	20823
891.364	20880
891.488	20895
891.611	20819
891.734	20811
891.857	20883
891.98	20777
892.103	20826
892.226	20792
892.349	20769
892.471	20511
892.594	20636
892.717	20739
892.839	20727
892.962	20697
893.085	20811
893.207	20765
893.33	20651
893.452	20602
893.575	20724
893.697	20674
893.819	20906
893.941	20883
894.064	20906
894.186	20724
894.308	20617
894.43	20720
894.552	20872
894.674	20773
894.796	20514
894.918	20693
895.04	20587
895.161	20636
895.283	20781
895.405	20644
895.526	20632
895.648	20686
895.769	20587
895.891	20804
896.012	20811
896.134	20773
896.255	20750
896.376	20575
896.498	20655
896.619	20693
896.74	20720
896.861	20773
896.982	21104
897.103	21226
897.224	20823
897.345	20937
897.466	20918
897.587	20899
897.708	20967
897.828	20849
897.949	20792
898.07	20712
898.19	20781
898.311	21051
898.431	20830
898.552	20864
898.672	20963
898.792	20948
898.913	21001
899.033	20849
899.153	20678
899.273	20621
899.393	20716
899.513	20594
899.633	20583
899.753	20739
899.873	20503
899.993	20682
900.113	20530
900.232	20598
900.352	20533
900.472	20514
900.591	20511
900.711	20286
900.83	20313
900.95	20522
901.069	20415
901.189	20259
901.308	20103
901.427	20043
901.546	20001
901.665	20008
901.784	20001
901.904	19936
902.023	19769
902.141	19552
902.26	19533
902.379	19586
902.498	19540
902.617	19419
902.735	19575
902.854	19396
902.973	19411
903.091	19129
903.21	19244
903.328	19122
903.446	18962
903.565	19000
903.683	18932
903.801	18909
903.919	18939
904.038	18897
904.156	18684
904.274	18700
904.392	18802
904.51	18715
904.627	18715
904.745	18871
904.863	18772
904.981	18559
905.098	18414
905.216	18388
905.334	18422
905.451	18426
905.569	18380
905.686	18426
905.803	18441
905.921	18228
906.038	18289
906.155	18270
906.272	18106
906.389	18209
906.506	17973
906.623	17942
906.74	17916
906.857	17882
906.974	17870
907.091	17977
907.208	17999
907.324	17992
907.441	17771
907.557	17589
907.674	17668
907.79	17619
907.907	17581
908.023	17779
908.139	17729
908.256	17653
908.372	17528
908.488	17577
908.604	17452
908.72	17410
908.836	17356
908.952	17227
909.068	17318
909.184	17444
909.3	17406
909.415	17471
909.531	17345
909.647	17086
909.762	17113
909.878	17124
909.993	17124
910.108	17105
910.224	17048
910.339	17140
910.454	16934
910.57	16866
910.685	16816
910.8	17086
910.915	17052
911.03	16801
911.145	16637
911.259	16645
911.374	16588
911.489	16493
911.604	16542
911.718	16344
911.833	16325
911.947	16341
912.062	16246
912.176	16291
912.291	16409
912.405	16386
912.519	16500
912.633	16588
912.748	16432
912.862	16341
912.976	16147
913.09	16071
913.204	16226
913.318	16276
913.431	16306
913.545	16253
913.659	16223
913.772	16135
913.886	15987
914	16055
914.113	16097
914.226	16181
914.34	16067
914.453	15953
914.566	15972
914.68	15854
914.793	15797
914.906	15663
915.019	15599
915.132	15557
915.245	15610
915.358	15572
915.47	15648
915.583	15587
915.696	15572
915.809	15766
915.921	15717
916.034	15450
916.146	15538
916.259	15530
916.371	15473
916.483	15561
916.595	15519
916.708	15412
916.82	15405
916.932	15401
917.044	15363
917.156	15294
917.268	15222
917.38	15370
917.491	15340
917.603	15176
917.715	15165
917.826	15294
917.938	15112
918.049	15104
918.161	15157
918.272	15386
918.384	15332
918.495	15127
918.606	14952
918.717	14963
918.828	15020
918.939	15020
919.05	14944
919.161	14899
919.272	14754
919.383	14800
919.494	14948
919.604	15173
919.715	14941
919.826	14815
919.936	14956
920.047	14960
920.157	14952
920.267	15131
920.378	14982
920.488	14979
920.598	15116
920.708	15188
920.818	15051
920.928	15001
921.038	15222
921.148	15157
921.258	14853
921.368	14743
921.477	14754
921.587	14693
921.697	14465
921.806	14613
921.916	14560
922.025	14324
922.134	14290
922.244	14301
922.353	14347
922.462	14187
922.571	14210
922.68	13940
922.789	13894
922.898	14062
923.007	13871
923.116	13963
923.224	13906
923.333	13909
923.442	13784
923.55	13780
923.659	13860
923.767	13719
923.876	13715
923.984	13860
924.092	13594
924.201	13795
924.309	13620
924.417	13700
924.525	13590
924.633	13605
924.741	14332
924.849	13400
924.956	13525
925.064	13373
925.172	13384
925.279	13316
925.387	13289
925.494	13358
925.602	13434
925.709	13392
925.816	13255
925.924	13225
926.031	13312
926.138	13225
926.245	13301
926.352	13091
926.459	13358
926.566	13320
926.673	13057
926.779	13038
926.886	13053
926.993	12920
927.099	12886
927.206	12867
927.312	12825
927.419	12909
927.525	12894
927.631	12951
927.737	12738
927.843	12719
927.95	12696
928.056	12719
928.162	12715
928.267	12703
928.373	13354
928.479	12886
928.585	12528
928.69	12688
928.796	12681
928.901	12547
929.007	12456
929.112	12582
929.218	12566
929.323	12456
929.428	12414
929.533	12536
929.638	12414
929.743	12410
929.848	12490
929.953	12395
930.058	12247
930.163	12136
930.267	12152
930.372	12251
930.477	12007
930.581	12228
930.685	12110
930.79	11988
930.894	12038
930.998	11977
931.103	12163
931.207	11703
931.311	11619
931.415	11520
931.519	11360
931.623	11391
