Data from test_V78500241_294.txt Node
Date: Fri Mar 25 15:43:50 CST 2022
User: usil
Spectrometer: V785-0024
Trigger mode: 0
Integration Time (sec): 4.000000E-1
Scans to average: 1
Nonlinearity correction enabled: false
Boxcar width: 0
Storing dark spectrum: false
XAxis mode: Wavelengths
Number of Pixels in Spectrum: 1024
>>>>>Begin Spectral Data<<<<<
801.071	29421
801.214	29250
801.356	29151
801.499	29109
801.641	28995
801.783	28991
801.926	29155
802.068	29212
802.211	28904
802.353	28930
802.496	28828
802.638	28542
802.78	28778
802.923	28474
803.065	28550
803.208	28481
803.35	28622
803.492	28915
803.635	28816
803.777	28653
803.919	28869
804.061	29212
804.204	28934
804.346	28649
804.488	28721
804.63	28733
804.773	28561
804.915	28824
805.057	28965
805.199	28740
805.341	28961
805.483	28801
805.626	28980
805.768	28774
805.91	28752
806.052	28862
806.194	28752
806.336	29067
806.478	28961
806.62	28786
806.762	28930
806.904	29060
807.046	29395
807.188	29322
807.33	29277
807.472	29425
807.614	29353
807.756	29334
807.898	29060
808.04	28987
808.182	29029
808.324	28995
808.465	29067
808.607	29284
808.749	29334
808.891	29756
809.033	29573
809.174	29570
809.316	29463
809.458	29520
809.6	29524
809.741	29566
809.883	29505
810.025	29783
810.166	29737
810.308	29714
810.45	29627
810.591	29642
810.733	29478
810.875	29509
811.016	29372
811.158	29410
811.299	29615
811.441	29604
811.582	29516
811.724	29512
811.865	29421
812.007	29448
812.148	29497
812.29	29680
812.431	29714
812.573	29687
812.714	29832
812.855	30045
812.997	30133
813.138	30201
813.279	30095
813.421	30030
813.562	29946
813.703	29699
813.845	29520
813.986	29440
814.127	29208
814.268	29064
814.41	29124
814.551	29006
814.692	29208
814.833	29083
814.974	28915
815.115	29174
815.256	28850
815.397	28942
815.539	28866
815.68	28946
815.821	28934
815.962	28904
816.103	28911
816.244	28721
816.385	28721
816.526	28634
816.666	28310
816.807	28306
816.948	28523
817.089	28440
817.23	28409
817.371	28299
817.512	28398
817.653	28382
817.793	28249
817.934	28303
818.075	28344
818.216	28409
818.356	28166
818.497	28272
818.638	28074
818.778	27968
818.919	28067
819.06	27994
819.2	28211
819.341	28265
819.481	28230
819.622	28394
819.762	28592
819.903	28455
820.043	28497
820.184	28478
820.324	28196
820.465	28459
820.605	28284
820.746	28382
820.886	28268
821.026	28382
821.167	28310
821.307	28440
821.447	28135
821.588	28188
821.728	28044
821.868	27926
822.008	27743
822.149	27755
822.289	27728
822.429	27378
822.569	27504
822.709	27469
822.849	27291
822.99	27195
823.13	27142
823.27	27165
823.41	27028
823.55	27017
823.69	27161
823.83	27081
823.97	27024
824.11	26918
824.25	26697
824.389	26845
824.529	26804
824.669	26845
824.809	26910
824.949	27108
825.089	26952
825.228	26933
825.368	26819
825.508	26648
825.648	26708
825.787	26727
825.927	26716
826.067	26556
826.206	26640
826.346	26788
826.485	26781
826.625	26667
826.765	26746
826.904	26716
827.044	26476
827.183	26313
827.323	26358
827.462	26370
827.601	26366
827.741	26476
827.88	26286
828.02	26252
828.159	26259
828.298	26168
828.437	26427
828.577	26317
828.716	26263
828.855	26244
828.994	26084
829.134	26001
829.273	26069
829.412	25803
829.551	26020
829.69	26008
829.829	26012
829.968	26031
830.107	25947
830.246	25830
830.385	26020
830.524	25917
830.663	25845
830.802	25704
830.941	25616
831.08	25594
831.219	25639
831.357	25632
831.496	25818
831.635	25571
831.774	25514
831.913	25445
832.051	25255
832.19	25358
832.329	25251
832.467	25339
832.606	25107
832.744	25362
832.883	25297
833.022	25339
833.16	25209
833.299	25236
833.437	25259
833.576	25282
833.714	25320
833.852	25388
833.991	25225
834.129	25240
834.267	25377
834.406	25270
834.544	25190
834.682	25244
834.821	25209
834.959	25392
835.097	25034
835.235	25240
835.373	25152
835.511	25023
835.65	25122
835.788	25114
835.926	24897
836.064	24928
836.202	24875
836.34	25080
836.478	25175
836.615	24947
836.753	25046
836.891	25137
837.029	25053
837.167	24951
837.305	25076
837.443	24901
837.58	24932
837.718	24909
837.856	25008
837.993	24745
838.131	24833
838.269	24734
838.406	24772
838.544	24635
838.681	24479
838.819	24505
838.956	24334
839.094	24327
839.231	24384
839.369	24403
839.506	24654
839.643	24627
839.781	24353
839.918	24289
840.055	24365
840.193	24209
840.33	24205
840.467	24292
840.604	24182
840.742	24437
840.879	24076
841.016	24159
841.153	24011
841.29	24216
841.427	24167
841.564	24136
841.701	23980
841.838	24163
841.975	24072
842.112	24053
842.249	24022
842.385	23893
842.522	24205
842.659	23942
842.796	23840
842.933	23904
843.069	23798
843.206	23817
843.343	23954
843.479	23866
843.616	23836
843.752	23733
843.889	23790
844.025	23859
844.162	23573
844.298	23737
844.435	23615
844.571	23490
844.708	23737
844.844	23779
844.98	23741
845.117	23642
845.253	23581
845.389	23471
845.525	23524
845.661	23509
845.798	23265
845.934	23436
846.07	23341
846.206	23246
846.342	23326
846.478	23452
846.614	23174
846.75	22957
846.886	23037
847.022	23208
847.158	23140
847.294	23147
847.429	23109
847.565	23094
847.701	23372
847.837	22816
847.972	22660
848.108	22778
848.244	22930
848.379	22752
848.515	22615
848.65	22626
848.786	22611
848.921	22721
849.057	22736
849.192	22698
849.328	22698
849.463	22637
849.598	22542
849.734	22527
849.869	22535
850.004	22363
850.14	22310
850.275	22432
850.41	22341
850.545	22303
850.68	22325
850.815	22436
850.95	22238
851.085	22580
851.22	22451
851.355	22489
851.49	22398
851.625	22356
851.76	22265
851.895	22147
852.03	22265
852.165	22405
852.299	22421
852.434	22512
852.569	22390
852.703	22398
852.838	22371
852.973	22440
853.107	22413
853.242	22139
853.376	22215
853.511	22036
853.645	22158
853.78	22284
853.914	22200
854.048	22055
854.183	22181
854.317	22204
854.451	22249
854.585	22280
854.72	22204
854.854	22173
854.988	22044
855.122	22234
855.256	21937
855.39	22044
855.524	22188
855.658	22158
855.792	22143
855.926	22135
856.06	22234
856.194	22082
856.327	22097
856.461	22048
856.595	22147
856.729	22082
856.862	22207
856.996	22238
857.13	22090
857.263	22306
857.397	22261
857.53	22150
857.664	22177
857.797	22207
857.931	22310
858.064	22162
858.197	22207
858.331	22051
858.464	22006
858.597	21972
858.731	22101
858.864	22116
858.997	22128
859.13	22200
859.263	22131
859.396	22314
859.529	22067
859.662	22120
859.795	22067
859.928	22070
860.061	22166
860.194	22276
860.327	22074
860.46	22192
860.592	22215
860.725	22310
860.858	22181
860.99	22226
861.123	22002
861.256	22040
861.388	22162
861.521	22725
861.653	21922
861.786	22010
861.918	22070
862.05	22010
862.183	22021
862.315	22124
862.447	22158
862.58	22086
862.712	21720
862.844	21808
862.976	21873
863.108	21854
863.24	22097
863.372	21789
863.504	21747
863.636	21819
863.768	21903
863.9	21724
864.032	21660
864.164	21755
864.296	21751
864.428	21903
864.559	21713
864.691	21937
864.823	21827
864.954	21781
865.086	21743
865.217	21759
865.349	21523
865.48	21603
865.612	21603
865.743	21724
865.875	21682
866.006	21694
866.137	21644
866.269	21743
866.4	21637
866.531	21618
866.662	21610
866.793	21599
866.924	21629
867.055	21667
867.186	21644
867.317	21515
867.448	21473
867.579	21500
867.71	21473
867.841	21572
867.972	21637
868.103	21507
868.233	21549
868.364	21595
868.495	21827
868.625	21850
868.756	21816
868.886	21823
869.017	21770
869.147	21937
869.278	21876
869.408	21846
869.539	21785
869.669	21934
869.799	21884
869.929	21934
870.06	22040
870.19	22090
870.32	22166
870.45	22128
870.58	22177
870.71	22356
870.84	22265
870.97	22223
871.1	22341
871.23	22405
871.36	22379
871.489	22325
871.619	22390
871.749	22363
871.879	22527
872.008	22470
872.138	22478
872.267	22382
872.397	22306
872.526	22177
872.656	22314
872.785	22230
872.915	22478
873.044	22557
873.173	22535
873.303	22451
873.432	22462
873.561	22497
873.69	22497
873.819	22394
873.948	22535
874.077	22352
874.206	22356
874.335	22360
874.464	22424
874.593	22839
874.722	22744
874.851	22656
874.979	22733
875.108	22805
875.237	22588
875.365	22592
875.494	22622
875.623	22717
875.751	22710
875.88	22725
876.008	22713
876.136	22854
876.265	23075
876.393	23086
876.521	23162
876.65	23075
876.778	22999
876.906	22984
877.034	22847
877.162	22919
877.29	22930
877.418	23052
877.546	23064
877.674	23113
877.802	23090
877.93	23086
878.058	22938
878.185	22889
878.313	22949
878.441	23056
878.568	22847
878.696	22972
878.824	23151
878.951	23170
879.079	23223
879.206	23307
879.333	23143
879.461	23056
879.588	23140
879.715	23159
879.842	23315
879.97	23083
880.097	22843
880.224	22816
880.351	22869
880.478	23003
880.605	22717
880.732	22820
880.859	23029
880.986	22873
881.112	22896
881.239	22717
881.366	22592
881.493	22531
881.619	22325
881.746	22550
881.872	22417
881.999	22447
882.125	22481
882.252	22440
882.378	22379
882.505	22584
882.631	22306
882.757	22124
882.883	22147
883.01	22090
883.136	22078
883.262	21945
883.388	22010
883.514	22223
883.64	22074
883.766	22010
883.892	21838
884.018	21953
884.143	22135
884.269	22112
884.395	21800
884.52	21804
884.646	21736
884.772	21606
884.897	21572
885.023	21842
885.148	21800
885.274	21846
885.399	21865
885.524	21614
885.65	21682
885.775	21675
885.9	21648
886.025	21907
886.15	21808
886.275	21633
886.4	21625
886.525	21648
886.65	21793
886.775	21542
886.9	21816
887.025	21854
887.149	21557
887.274	21591
887.399	21504
887.523	21561
887.648	21374
887.773	21424
887.897	21466
888.021	21386
888.146	21443
888.27	21553
888.395	21454
888.519	21428
888.643	21496
888.767	21557
888.891	21439
889.015	21241
889.139	21329
889.263	21218
889.387	21420
889.511	21481
889.635	21500
889.759	21344
889.883	21150
890.006	21256
890.13	21306
890.254	21180
890.377	21036
890.501	21043
890.624	20857
890.748	21081
890.871	20902
890.995	20746
891.118	20743
891.241	20895
891.364	20792
891.488	20872
891.611	20735
891.734	20838
891.857	20899
891.98	20941
892.103	20933
892.226	20773
892.349	20708
892.471	20655
892.594	20807
892.717	20876
892.839	20663
892.962	20659
893.085	20777
893.207	20579
893.33	20644
893.452	20629
893.575	20815
893.697	20708
893.819	20899
893.941	20910
894.064	20925
894.186	20686
894.308	20594
894.43	20674
894.552	20868
894.674	20853
894.796	20556
894.918	20640
895.04	20701
895.161	20777
895.283	20689
895.405	20564
895.526	20686
895.648	20701
895.769	20686
895.891	20693
896.012	20781
896.134	20632
896.255	20682
896.376	20788
896.498	20750
896.619	20811
896.74	20785
896.861	20838
896.982	21176
897.103	21154
897.224	21074
897.345	20948
897.466	20864
897.587	20842
897.708	21135
897.828	20929
897.949	20883
898.07	20629
898.19	20956
898.311	20990
898.431	20811
898.552	20845
898.672	20880
898.792	20910
898.913	20902
899.033	20826
899.153	20705
899.273	20507
899.393	20640
899.513	20640
899.633	20617
899.753	20556
899.873	20476
899.993	20541
900.113	20587
900.232	20579
900.352	20499
900.472	20602
900.591	20332
900.711	20366
900.83	20347
900.95	20503
901.069	20408
901.189	20278
901.308	20149
901.427	19936
901.546	20084
901.665	20096
901.784	19955
901.904	19811
902.023	19734
902.141	19521
902.26	19472
902.379	19472
902.498	19544
902.617	19510
902.735	19559
902.854	19369
902.973	19358
903.091	19217
903.21	19095
903.328	19114
903.446	19050
903.565	18913
903.683	18943
903.801	18795
903.919	19023
904.038	18913
904.156	18589
904.274	18753
904.392	18639
904.51	18650
904.627	18623
904.745	18719
904.863	18696
904.981	18384
905.098	18376
905.216	18350
905.334	18410
905.451	18429
905.569	18311
905.686	18452
905.803	18289
905.921	18121
906.038	18243
906.155	18190
906.272	17961
906.389	18125
906.506	17866
906.623	17863
906.74	17912
906.857	17855
906.974	17737
907.091	17737
907.208	18011
907.324	17843
907.441	17737
907.557	17528
907.674	17505
907.79	17463
907.907	17532
908.023	17444
908.139	17551
908.256	17596
908.372	17482
908.488	17459
908.604	17277
908.72	17197
908.836	17227
908.952	17227
909.068	17322
909.184	17410
909.3	17273
909.415	17296
909.531	17296
909.647	16980
909.762	16919
909.878	16946
909.993	16972
910.108	16866
910.224	16942
910.339	17029
910.454	16866
910.57	16786
910.685	16778
910.8	16881
910.915	16828
911.03	16626
911.145	16504
911.259	16493
911.374	16462
911.489	16527
911.604	16405
911.718	16318
911.833	16303
911.947	16173
912.062	16147
912.176	16268
912.291	16246
912.405	16306
912.519	16409
912.633	16409
912.748	16318
912.862	16204
912.976	16101
913.09	15827
913.204	15892
913.318	16112
913.431	16150
913.545	16112
913.659	16150
913.772	15949
913.886	15884
914	15888
914.113	15975
914.226	15934
914.34	15835
914.453	15671
914.566	15823
914.68	15770
914.793	15679
914.906	15568
915.019	15530
915.132	15382
915.245	15504
915.358	15561
915.47	15519
915.583	15435
915.696	15496
915.809	15492
915.921	15534
916.034	15344
916.146	15378
916.259	15363
916.371	15477
916.483	15389
916.595	15264
916.708	15294
916.82	15283
916.932	15302
917.044	15146
917.156	15184
917.268	15131
917.38	15058
917.491	15028
917.603	15161
917.715	15165
917.826	15135
917.938	15001
918.049	14895
918.161	14975
918.272	15192
918.384	15218
918.495	14990
918.606	14823
918.717	14739
918.828	14845
918.939	14800
919.05	14705
919.161	14815
919.272	14564
919.383	14663
919.494	14830
919.604	15032
919.715	14830
919.826	14610
919.936	14762
920.047	14975
920.157	14849
920.267	14902
920.378	14845
920.488	14705
920.598	14944
920.708	15039
920.818	14826
920.928	14883
921.038	15047
921.148	14967
921.258	14693
921.368	14579
921.477	14469
921.587	14381
921.697	14370
921.806	14590
921.916	14324
922.025	14206
922.134	14115
922.244	14096
922.353	14115
922.462	14008
922.571	13913
922.68	13818
922.789	13826
922.898	13780
923.007	13700
923.116	13780
923.224	13719
923.333	13772
923.442	13480
923.55	13620
923.659	13693
923.767	13582
923.876	13499
923.984	13639
924.092	13487
924.201	13575
924.309	13510
924.417	13491
924.525	13369
924.633	13441
924.741	14317
924.849	13270
924.956	13373
925.064	13141
925.172	13126
925.279	13141
925.387	13316
925.494	13042
925.602	13274
925.709	13198
925.816	13057
925.924	13072
926.031	13160
926.138	13023
926.245	13175
926.352	13061
926.459	13152
926.566	13107
926.673	13118
926.779	12943
926.886	12901
926.993	12821
927.099	12753
927.206	12779
927.312	12681
927.419	12749
927.525	12715
927.631	12677
927.737	12582
927.843	12555
927.95	12475
928.056	12483
928.162	12574
928.267	12521
928.373	13164
928.479	12601
928.585	12330
928.69	12513
928.796	12509
928.901	12445
929.007	12209
929.112	12426
929.218	12315
929.323	12266
929.428	12232
929.533	12418
929.638	12194
929.743	12213
929.848	12228
929.953	12140
930.058	12072
930.163	11901
930.267	11988
930.372	12064
930.477	11824
930.581	12144
930.685	12007
930.79	11813
930.894	11828
930.998	11779
931.103	11908
931.207	11558
931.311	11471
931.415	11410
931.519	11204
931.623	11140
