Data from test_V78500241_3472.txt Node
Date: Fri Mar 25 16:05:51 CST 2022
User: usil
Spectrometer: V785-0024
Trigger mode: 0
Integration Time (sec): 4.000000E-1
Scans to average: 1
Nonlinearity correction enabled: false
Boxcar width: 0
Storing dark spectrum: false
XAxis mode: Wavelengths
Number of Pixels in Spectrum: 1024
>>>>>Begin Spectral Data<<<<<
801.071	29121
801.214	29037
801.356	28797
801.499	28637
801.641	28561
801.783	28767
801.926	28569
802.068	28694
802.211	28607
802.353	28512
802.496	28455
802.638	28249
802.78	28462
802.923	28310
803.065	28318
803.208	28215
803.35	28280
803.492	28622
803.635	28626
803.777	28398
803.919	28634
804.061	28892
804.204	28752
804.346	28588
804.488	28504
804.63	28618
804.773	28542
804.915	28607
805.057	28801
805.199	28622
805.341	28763
805.483	28877
805.626	28904
805.768	28679
805.91	28645
806.052	28908
806.194	28801
806.336	28953
806.478	28809
806.62	28782
806.762	28999
806.904	29147
807.046	29402
807.188	29341
807.33	29360
807.472	29429
807.614	29277
807.756	29311
807.898	29166
808.04	29105
808.182	28946
808.324	29155
808.465	29261
808.607	29379
808.749	29566
808.891	29695
809.033	29714
809.174	29577
809.316	29448
809.458	29524
809.6	29501
809.741	29687
809.883	29600
810.025	29764
810.166	29958
810.308	29851
810.45	29805
810.591	29554
810.733	29547
810.875	29421
811.016	29379
811.158	29512
811.299	29672
811.441	29691
811.582	29726
811.724	29535
811.865	29493
812.007	29577
812.148	29410
812.29	29729
812.431	29657
812.573	29851
812.714	29939
812.855	30133
812.997	30174
813.138	30388
813.279	30186
813.421	30190
813.562	30022
813.703	29878
813.845	29794
813.986	29516
814.127	29322
814.268	29322
814.41	29417
814.551	29193
814.692	29269
814.833	29216
814.974	29200
815.115	29299
815.256	29090
815.397	29102
815.539	29265
815.68	29117
815.821	29102
815.962	29018
816.103	29178
816.244	28908
816.385	28835
816.526	28873
816.666	28637
816.807	28592
816.948	28752
817.089	28786
817.23	28542
817.371	28649
817.512	28573
817.653	28611
817.793	28519
817.934	28630
818.075	28523
818.216	28710
818.356	28516
818.497	28459
818.638	28314
818.778	28375
818.919	28382
819.06	28569
819.2	28580
819.341	28538
819.481	28550
819.622	28824
819.762	29128
819.903	28888
820.043	28873
820.184	28862
820.324	28763
820.465	28888
820.605	28797
820.746	28656
820.886	28660
821.026	28679
821.167	28531
821.307	28733
821.447	28637
821.588	28557
821.728	28459
821.868	28242
822.008	28086
822.149	28147
822.289	28051
822.429	27884
822.569	27747
822.709	27728
822.849	27614
822.99	27724
823.13	27682
823.27	27424
823.41	27397
823.55	27427
823.69	27389
823.83	27439
823.97	27485
824.11	27264
824.25	27123
824.389	27138
824.529	27363
824.669	27291
824.809	27302
824.949	27355
825.089	27363
825.228	27233
825.368	26963
825.508	26990
825.648	27116
825.787	27180
825.927	27226
826.067	27081
826.206	27096
826.346	27245
826.485	27123
826.625	27176
826.765	27287
826.904	27184
827.044	26864
827.183	26902
827.323	26849
827.462	26956
827.601	26845
827.741	26845
827.88	26933
828.02	26682
828.159	26796
828.298	26819
828.437	26895
828.577	26952
828.716	26940
828.855	26800
828.994	26541
829.134	26617
829.273	26530
829.412	26389
829.551	26549
829.69	26568
829.829	26632
829.968	26621
830.107	26712
830.246	26655
830.385	26381
830.524	26594
830.663	26408
830.802	26256
830.941	26100
831.08	26210
831.219	26202
831.357	26202
831.496	26320
831.635	26081
831.774	25947
831.913	26058
832.051	25974
832.19	25993
832.329	25822
832.467	25788
832.606	25769
832.744	25849
832.883	25727
833.022	25734
833.16	25795
833.299	25879
833.437	25864
833.576	25921
833.714	25845
833.852	25849
833.991	26016
834.129	25898
834.267	26008
834.406	25845
834.544	25940
834.682	25966
834.821	25879
834.959	26054
835.097	25750
835.235	25951
835.373	25925
835.511	25833
835.65	25696
835.788	25757
835.926	25616
836.064	25453
836.202	25540
836.34	25632
836.478	25856
836.615	25788
836.753	25696
836.891	25852
837.029	25677
837.167	25693
837.305	25559
837.443	25601
837.58	25491
837.718	25620
837.856	25506
837.993	25624
838.131	25491
838.269	25419
838.406	25468
838.544	25312
838.681	25232
838.819	25259
838.956	25012
839.094	24973
839.231	25107
839.369	25308
839.506	25312
839.643	25285
839.781	24924
839.918	24890
840.055	25065
840.193	24928
840.33	25004
840.467	24825
840.604	24928
840.742	25133
840.879	24719
841.016	24825
841.153	24802
841.29	25053
841.427	24897
841.564	24894
841.701	24932
841.838	24856
841.975	24741
842.112	24760
842.249	24757
842.385	24677
842.522	24776
842.659	24692
842.796	24646
842.933	24703
843.069	24639
843.206	24559
843.343	24715
843.479	24597
843.616	24677
843.752	24460
843.889	24498
844.025	24620
844.162	24475
844.298	24422
844.435	24502
844.571	24429
844.708	24433
844.844	24559
844.98	24547
845.117	24547
845.253	24426
845.389	24315
845.525	24334
845.661	24224
845.798	24194
845.934	24224
846.07	24144
846.206	24152
846.342	24323
846.478	24098
846.614	23874
846.75	23916
846.886	23882
847.022	23893
847.158	23904
847.294	23866
847.429	23950
847.565	23817
847.701	24110
847.837	23657
847.972	23600
848.108	23714
848.244	23649
848.379	23577
848.515	23471
848.65	23398
848.786	23452
848.921	23368
849.057	23425
849.192	23551
849.328	23417
849.463	23474
849.598	23551
849.734	23436
849.869	23368
850.004	23147
850.14	23269
850.275	23098
850.41	23223
850.545	23181
850.68	23303
850.815	23185
850.95	23246
851.085	23330
851.22	23459
851.355	23296
851.49	23136
851.625	23143
851.76	23254
851.895	23143
852.03	23102
852.165	23204
852.299	23265
852.434	23356
852.569	23307
852.703	23197
852.838	23318
852.973	23421
853.107	23284
853.242	23166
853.376	23083
853.511	22934
853.645	23018
853.78	23136
853.914	23041
854.048	22953
854.183	22934
854.317	23109
854.451	23212
854.585	23022
854.72	23037
854.854	23124
854.988	23151
855.122	23041
855.256	22889
855.39	22938
855.524	23056
855.658	23094
855.792	23098
855.926	22980
856.06	22972
856.194	23094
856.327	22961
856.461	23018
856.595	23060
856.729	23044
856.862	23143
856.996	23140
857.13	23071
857.263	23086
857.397	23018
857.53	22999
857.664	22946
857.797	23178
857.931	23166
858.064	23025
858.197	23193
858.331	23006
858.464	22904
858.597	23003
858.731	22892
858.864	22999
858.997	22889
859.13	22934
859.263	23037
859.396	23147
859.529	23117
859.662	22999
859.795	22949
859.928	23064
860.061	23318
860.194	23109
860.327	23029
860.46	23048
860.592	23189
860.725	23117
860.858	23227
860.99	23048
861.123	22927
861.256	22999
861.388	23041
861.521	23695
861.653	22923
861.786	22843
861.918	22915
862.05	22942
862.183	22911
862.315	23033
862.447	22991
862.58	23003
862.712	22698
862.844	22660
862.976	22824
863.108	22774
863.24	23067
863.372	22729
863.504	22649
863.636	22744
863.768	22961
863.9	22729
864.032	22577
864.164	22748
864.296	22911
864.428	22820
864.559	22889
864.691	22767
864.823	22683
864.954	22755
865.086	22740
865.217	22653
865.349	22577
865.48	22618
865.612	22645
865.743	22694
865.875	22634
866.006	22436
866.137	22713
866.269	22637
866.4	22694
866.531	22554
866.662	22508
866.793	22512
866.924	22516
867.055	22622
867.186	22535
867.317	22443
867.448	22394
867.579	22546
867.71	22504
867.841	22440
867.972	22577
868.103	22466
868.233	22588
868.364	22519
868.495	22653
868.625	22683
868.756	22801
868.886	22691
869.017	22664
869.147	22987
869.278	22843
869.408	22771
869.539	22713
869.669	22892
869.799	22850
869.929	22896
870.06	22885
870.19	23105
870.32	23018
870.45	23056
870.58	23098
870.71	23113
870.84	23258
870.97	23143
871.1	23227
871.23	23254
871.36	23402
871.489	23417
871.619	23387
871.749	23444
871.879	23383
872.008	23436
872.138	23524
872.267	23269
872.397	23307
872.526	23235
872.656	23208
872.785	23250
872.915	23414
873.044	23417
873.173	23512
873.303	23337
873.432	23436
873.561	23543
873.69	23391
873.819	23337
873.948	23558
874.077	23429
874.206	23334
874.335	23398
874.464	23425
874.593	23558
874.722	23596
874.851	23695
874.979	23535
875.108	23741
875.237	23539
875.365	23402
875.494	23551
875.623	23611
875.751	23570
875.88	23516
876.008	23691
876.136	23863
876.265	23984
876.393	24007
876.521	23992
876.65	23969
876.778	23923
876.906	23874
877.034	23942
877.162	23901
877.29	23775
877.418	23920
877.546	23901
877.674	23843
877.802	23866
877.93	23920
878.058	23805
878.185	23718
878.313	23946
878.441	23874
878.568	23798
878.696	23866
878.824	23927
878.951	24057
879.079	24155
879.206	24194
879.333	24114
879.461	23942
879.588	23946
879.715	24235
879.842	24163
879.97	24140
880.097	23615
880.224	23676
880.351	23809
880.478	23828
880.605	23798
880.732	23661
880.859	23935
880.986	23752
881.112	23714
881.239	23570
881.366	23524
881.493	23322
881.619	23318
881.746	23330
881.872	23216
881.999	23326
882.125	23307
882.252	23345
882.378	23341
882.505	23341
882.631	23140
882.757	22987
882.883	23022
883.01	22961
883.136	22862
883.262	22831
883.388	22744
883.514	23105
883.64	23132
883.766	22915
883.892	22512
884.018	22691
884.143	23064
884.269	22980
884.395	22694
884.52	22622
884.646	22656
884.772	22561
884.897	22577
885.023	22607
885.148	22622
885.274	22694
885.399	22702
885.524	22546
885.65	22493
885.775	22573
885.9	22599
886.025	22725
886.15	22596
886.275	22565
886.4	22516
886.525	22504
886.65	22577
886.775	22485
886.9	22615
887.025	22767
887.149	22557
887.274	22325
887.399	22379
887.523	22280
887.648	22386
887.773	22158
887.897	22379
888.021	22348
888.146	22272
888.27	22417
888.395	22432
888.519	22405
888.643	22265
888.767	22337
888.891	22219
889.015	22158
889.139	22375
889.263	22017
889.387	22116
889.511	22409
889.635	22306
889.759	22082
889.883	22101
890.006	21964
890.13	22196
890.254	22078
890.377	21945
890.501	21838
890.624	21915
890.748	21949
890.871	21842
890.995	21709
891.118	21599
891.241	21846
891.364	21717
891.488	21675
891.611	21800
891.734	21698
891.857	21686
891.98	21671
892.103	21648
892.226	21694
892.349	21583
892.471	21393
892.594	21564
892.717	21618
892.839	21507
892.962	21641
893.085	21667
893.207	21564
893.33	21485
893.452	21469
893.575	21507
893.697	21648
893.819	21641
893.941	21789
894.064	21778
894.186	21454
894.308	21443
894.43	21580
894.552	21713
894.674	21553
894.796	21332
894.918	21462
895.04	21523
895.161	21606
895.283	21439
895.405	21618
895.526	21561
895.648	21481
895.769	21587
895.891	21622
896.012	21492
896.134	21629
896.255	21393
896.376	21530
896.498	21496
896.619	21439
896.74	21469
896.861	21458
896.982	21884
897.103	21895
897.224	21736
897.345	21743
897.466	21679
897.587	21724
897.708	21728
897.828	21739
897.949	21728
898.07	21564
898.19	21557
898.311	21778
898.431	21629
898.552	21736
898.672	21739
898.792	21793
898.913	21789
899.033	21538
899.153	21469
899.273	21294
899.393	21363
899.513	21488
899.633	21519
899.753	21340
899.873	21416
899.993	21473
900.113	21344
900.232	21378
900.352	21359
900.472	21249
900.591	21123
900.711	21161
900.83	21237
900.95	21306
901.069	21222
901.189	21123
901.308	20773
901.427	20743
901.546	20796
901.665	20845
901.784	20712
901.904	20583
902.023	20461
902.141	20317
902.26	20358
902.379	20408
902.498	20256
902.617	20180
902.735	20271
902.854	20278
902.973	20126
903.091	19974
903.21	19982
903.328	20005
903.446	19868
903.565	19734
903.683	19639
903.801	19620
903.919	19575
904.038	19677
904.156	19438
904.274	19529
904.392	19537
904.51	19487
904.627	19400
904.745	19502
904.863	19540
904.981	19301
905.098	19095
905.216	19194
905.334	19240
905.451	19225
905.569	19069
905.686	19164
905.803	19118
905.921	18962
906.038	18996
906.155	18932
906.272	18764
906.389	18779
906.506	18665
906.623	18722
906.74	18673
906.857	18471
906.974	18563
907.091	18646
907.208	18692
907.324	18688
907.441	18589
907.557	18414
907.674	18399
907.79	18289
907.907	18361
908.023	18285
908.139	18334
908.256	18304
908.372	18186
908.488	18167
908.604	18190
908.72	18045
908.836	18041
908.952	18053
909.068	18022
909.184	18178
909.3	18076
909.415	17954
909.531	18003
909.647	17760
909.762	17836
909.878	17748
909.993	17790
910.108	17729
910.224	17627
910.339	17684
910.454	17611
910.57	17592
910.685	17433
910.8	17771
910.915	17638
911.03	17562
911.145	17273
911.259	17178
911.374	17299
911.489	17299
911.604	17200
911.718	17105
911.833	17136
911.947	16949
912.062	16915
912.176	17083
912.291	17003
912.405	16972
912.519	17185
912.633	17140
912.748	17102
912.862	17079
912.976	16934
913.09	16824
913.204	16763
913.318	16850
913.431	16995
913.545	16923
913.659	17064
913.772	16778
913.886	16656
914	16535
914.113	16816
914.226	16767
914.34	16748
914.453	16596
914.566	16607
914.68	16603
914.793	16542
914.906	16261
915.019	16295
915.132	16109
915.245	16291
915.358	16207
915.47	16219
915.583	16192
915.696	16246
915.809	16325
915.921	16375
916.034	16128
916.146	16109
916.259	16048
916.371	16375
916.483	16166
916.595	15987
916.708	16025
916.82	16055
916.932	16002
917.044	15949
917.156	15884
917.268	15823
917.38	15911
917.491	15876
917.603	15816
917.715	15903
917.826	15915
917.938	15705
918.049	15717
918.161	15728
918.272	15838
918.384	15930
918.495	15694
918.606	15576
918.717	15458
918.828	15519
918.939	15519
919.05	15504
919.161	15519
919.272	15370
919.383	15374
919.494	15587
919.604	15743
919.715	15538
919.826	15420
919.936	15439
920.047	15614
920.157	15428
920.267	15755
920.378	15564
920.488	15412
920.598	15507
920.708	15785
920.818	15641
920.928	15660
921.038	15759
921.148	15739
921.258	15363
921.368	15401
921.477	15329
921.587	15218
921.697	15157
921.806	15226
921.916	15062
922.025	14849
922.134	14895
922.244	14823
922.353	14914
922.462	14800
922.571	14651
922.68	14541
922.789	14450
922.898	14503
923.007	14450
923.116	14427
923.224	14457
923.333	14431
923.442	14381
923.55	14259
923.659	14309
923.767	14431
923.876	14309
923.984	14317
924.092	14183
924.201	14298
924.309	14202
924.417	14168
924.525	14081
924.633	14096
924.741	14800
924.849	13997
924.956	14073
925.064	13845
925.172	13795
925.279	13818
925.387	13799
925.494	13799
925.602	13989
925.709	13913
925.816	13746
925.924	13681
926.031	13841
926.138	13811
926.245	13826
926.352	13647
926.459	13803
926.566	13864
926.673	13715
926.779	13616
926.886	13518
926.993	13480
927.099	13415
927.206	13381
927.312	13354
927.419	13441
927.525	13392
927.631	13411
927.737	13259
927.843	13175
927.95	13160
928.056	13236
928.162	13213
928.267	13213
928.373	13738
928.479	13316
928.585	12985
928.69	13084
928.796	13129
928.901	13031
929.007	12932
929.112	13088
929.218	12943
929.323	12913
929.428	12909
929.533	12962
929.638	12783
929.743	12840
929.848	12977
929.953	12920
930.058	12764
930.163	12544
930.267	12574
930.372	12623
930.477	12445
930.581	12650
930.685	12627
930.79	12452
930.894	12486
930.998	12467
931.103	12517
931.207	12159
931.311	12072
931.415	12064
931.519	11805
931.623	11794
