Data from test_V78500241_49.txt Node
Date: Fri Mar 25 15:42:08 CST 2022
User: usil
Spectrometer: V785-0024
Trigger mode: 0
Integration Time (sec): 4.000000E-1
Scans to average: 1
Nonlinearity correction enabled: false
Boxcar width: 0
Storing dark spectrum: false
XAxis mode: Wavelengths
Number of Pixels in Spectrum: 1024
>>>>>Begin Spectral Data<<<<<
801.071	29315
801.214	29246
801.356	28961
801.499	28908
801.641	28816
801.783	28691
801.926	28888
802.068	28755
802.211	28721
802.353	28615
802.496	28523
802.638	28497
802.78	28360
802.923	28291
803.065	28398
803.208	28405
803.35	28261
803.492	28417
803.635	28550
803.777	28474
803.919	28672
804.061	28904
804.204	28622
804.346	28409
804.488	28379
804.63	28603
804.773	28436
804.915	28436
805.057	28497
805.199	28363
805.341	28603
805.483	28603
805.626	28443
805.768	28603
805.91	28516
806.052	28622
806.194	28493
806.336	28611
806.478	28592
806.62	28649
806.762	28752
806.904	28820
807.046	28953
807.188	29010
807.33	28892
807.472	28908
807.614	28801
807.756	28873
807.898	28721
808.04	28706
808.182	28698
808.324	28660
808.465	28763
808.607	28793
808.749	29006
808.891	29060
809.033	29086
809.174	29048
809.316	29022
809.458	29044
809.6	28995
809.741	29200
809.883	29193
810.025	29223
810.166	29261
810.308	29337
810.45	29364
810.591	29128
810.733	29200
810.875	28927
811.016	28949
811.158	28908
811.299	29071
811.441	29162
811.582	29143
811.724	29041
811.865	28866
812.007	28999
812.148	29018
812.29	29041
812.431	29121
812.573	29170
812.714	29296
812.855	29459
812.997	29608
813.138	29611
813.279	29562
813.421	29554
813.562	29337
813.703	29223
813.845	29086
813.986	28995
814.127	28531
814.268	28459
814.41	28569
814.551	28485
814.692	28683
814.833	28546
814.974	28542
815.115	28569
815.256	28451
815.397	28382
815.539	28371
815.68	28360
815.821	28291
815.962	28272
816.103	28291
816.244	28207
816.385	27998
816.526	27949
816.666	27869
816.807	27717
816.948	27583
817.089	27793
817.23	27747
817.371	27770
817.512	27709
817.653	27629
817.793	27583
817.934	27572
818.075	27481
818.216	27663
818.356	27614
818.497	27443
818.638	27313
818.778	27329
818.919	27370
819.06	27469
819.2	27485
819.341	27629
819.481	27507
819.622	27732
819.762	27895
819.903	27682
820.043	27671
820.184	27637
820.324	27682
820.465	27652
820.605	27679
820.746	27496
820.886	27492
821.026	27488
821.167	27538
821.307	27629
821.447	27538
821.588	27321
821.728	27317
821.868	27119
822.008	27036
822.149	27017
822.289	26887
822.429	26712
822.569	26617
822.709	26648
822.849	26427
822.99	26294
823.13	26347
823.27	26286
823.41	26027
823.55	26062
823.69	26195
823.83	26172
823.97	26168
824.11	25963
824.25	25959
824.389	26069
824.529	26077
824.669	25814
824.809	26096
824.949	26016
825.089	26031
825.228	25982
825.368	25822
825.508	25738
825.648	25765
825.787	25807
825.927	25784
826.067	25632
826.206	25761
826.346	25788
826.485	25871
826.625	25799
826.765	25875
826.904	25632
827.044	25483
827.183	25502
827.323	25308
827.462	25514
827.601	25460
827.741	25396
827.88	25400
828.02	25301
828.159	25320
828.298	25388
828.437	25457
828.577	25274
828.716	25514
828.855	25403
828.994	25179
829.134	25156
829.273	25225
829.412	25118
829.551	24947
829.69	25129
829.829	25145
829.968	25198
830.107	25050
830.246	24996
830.385	24954
830.524	25015
830.663	24776
830.802	24867
830.941	24658
831.08	24555
831.219	24684
831.357	24696
831.496	24757
831.635	24608
831.774	24555
831.913	24403
832.051	24357
832.19	24311
832.329	24365
832.467	24235
832.606	24129
832.744	24178
832.883	24251
833.022	24289
833.16	24216
833.299	24300
833.437	24262
833.576	24209
833.714	24167
833.852	24239
833.991	24292
834.129	24384
834.267	24194
834.406	24243
834.544	24220
834.682	24224
834.821	24095
834.959	24338
835.097	24007
835.235	24232
835.373	24041
835.511	24319
835.65	24121
835.788	24064
835.926	23821
836.064	23927
836.202	23760
836.34	24022
836.478	24076
836.615	23980
836.753	24045
836.891	24163
837.029	24083
837.167	23977
837.305	23897
837.443	23737
837.58	23691
837.718	23794
837.856	23901
837.993	23767
838.131	23767
838.269	23661
838.406	23691
838.544	23585
838.681	23531
838.819	23376
838.956	23227
839.094	23414
839.231	23330
839.369	23459
839.506	23539
839.643	23554
839.781	23254
839.918	23212
840.055	23296
840.193	23265
840.33	23200
840.467	23113
840.604	23246
840.742	23512
840.879	23029
841.016	23132
841.153	23010
841.29	23147
841.427	23105
841.564	23067
841.701	23052
841.838	22885
841.975	22991
842.112	22957
842.249	22885
842.385	22949
842.522	23071
842.659	22835
842.796	22843
842.933	22740
843.069	22706
843.206	22805
843.343	22858
843.479	22847
843.616	22721
843.752	22554
843.889	22573
844.025	22599
844.162	22554
844.298	22759
844.435	22550
844.571	22443
844.708	22417
844.844	22755
844.98	22668
845.117	22577
845.253	22443
845.389	22489
845.525	22470
845.661	22409
845.798	22230
845.934	22200
846.07	22173
846.206	22234
846.342	22299
846.478	22105
846.614	22059
846.75	21922
846.886	21907
847.022	21987
847.158	21934
847.294	21915
847.429	21865
847.565	21937
847.701	22135
847.837	21835
847.972	21622
848.108	21797
848.244	21732
848.379	21519
848.515	21363
848.65	21553
848.786	21519
848.921	21580
849.057	21622
849.192	21549
849.328	21530
849.463	21443
849.598	21466
849.734	21332
849.869	21321
850.004	21264
850.14	21325
850.275	21211
850.41	21085
850.545	21142
850.68	21256
850.815	21165
850.95	21032
851.085	21294
851.22	21393
851.355	21192
851.49	21275
851.625	21260
851.76	21169
851.895	21119
852.03	21047
852.165	21096
852.299	21252
852.434	21317
852.569	21214
852.703	21252
852.838	21275
852.973	21351
853.107	21310
853.242	21165
853.376	20960
853.511	20819
853.645	21009
853.78	21089
853.914	21001
854.048	20994
854.183	20994
854.317	20963
854.451	21214
854.585	20963
854.72	20887
854.854	21074
854.988	20910
855.122	20990
855.256	20830
855.39	20937
855.524	20967
855.658	20998
855.792	20990
855.926	20872
856.06	21024
856.194	21062
856.327	20933
856.461	21032
856.595	20933
856.729	21009
856.862	21070
856.996	21005
857.13	21001
857.263	21138
857.397	21100
857.53	20864
857.664	21024
857.797	21039
857.931	21017
858.064	21013
858.197	20982
858.331	20804
858.464	20807
858.597	20777
858.731	20910
858.864	20899
858.997	20918
859.13	20941
859.263	20929
859.396	20960
859.529	20883
859.662	20834
859.795	20838
859.928	20914
860.061	20971
860.194	20994
860.327	20956
860.46	20857
860.592	21043
860.725	21013
860.858	20948
860.99	20849
861.123	20785
861.256	20777
861.388	20796
861.521	21481
861.653	20777
861.786	20765
861.918	20758
862.05	20815
862.183	20857
862.315	20956
862.447	21104
862.58	20811
862.712	20689
862.844	20758
862.976	20625
863.108	20674
863.24	21074
863.372	20476
863.504	20640
863.636	20492
863.768	20579
863.9	20648
864.032	20438
864.164	20617
864.296	20461
864.428	20678
864.559	20613
864.691	20625
864.823	20625
864.954	20659
865.086	20488
865.217	20495
865.349	20423
865.48	20438
865.612	20442
865.743	20602
865.875	20545
866.006	20351
866.137	20408
866.269	20404
866.4	20362
866.531	20495
866.662	20423
866.793	20503
866.924	20454
867.055	20362
867.186	20381
867.317	20469
867.448	20271
867.579	20324
867.71	20343
867.841	20355
867.972	20298
868.103	20415
868.233	20408
868.364	20431
868.495	20545
868.625	20606
868.756	20648
868.886	20598
869.017	20602
869.147	20731
869.278	20868
869.408	20640
869.539	20415
869.669	20701
869.799	20781
869.929	20796
870.06	20648
870.19	20994
870.32	20960
870.45	20937
870.58	21047
870.71	21169
870.84	21249
870.97	21032
871.1	21070
871.23	21207
871.36	21382
871.489	21127
871.619	21157
871.749	21108
871.879	21211
872.008	21272
872.138	21138
872.267	21199
872.397	21005
872.526	21047
872.656	21051
872.785	21150
872.915	21112
873.044	21344
873.173	21074
873.303	21192
873.432	21370
873.561	21310
873.69	21310
873.819	21211
873.948	21351
874.077	21275
874.206	21180
874.335	21180
874.464	21359
874.593	21545
874.722	21321
874.851	21686
874.979	21530
875.108	21481
875.237	21466
875.365	21564
875.494	21583
875.623	21717
875.751	21431
875.88	21515
876.008	21694
876.136	21831
876.265	21892
876.393	21960
876.521	21915
876.65	21937
876.778	21895
876.906	21835
877.034	21774
877.162	21743
877.29	21679
877.418	21899
877.546	21899
877.674	21800
877.802	21918
877.93	21812
878.058	21819
878.185	21705
878.313	21663
878.441	21800
878.568	21671
878.696	21766
878.824	21911
878.951	22013
879.079	21987
879.206	22215
879.333	21949
879.461	21949
879.588	21956
879.715	22055
879.842	22013
879.97	21991
880.097	21671
880.224	21667
880.351	21618
880.478	21686
880.605	21743
880.732	21580
880.859	21983
880.986	21671
881.112	21766
881.239	21614
881.366	21405
881.493	21294
881.619	21169
881.746	21272
881.872	21340
881.999	21279
882.125	21310
882.252	21408
882.378	21272
882.505	21321
882.631	21207
882.757	21062
882.883	21058
883.01	21039
883.136	20929
883.262	20807
883.388	20861
883.514	21032
883.64	20998
883.766	20929
883.892	20769
884.018	20773
884.143	20788
884.269	20941
884.395	20678
884.52	20632
884.646	20705
884.772	20571
884.897	20461
885.023	20727
885.148	20712
885.274	20765
885.399	20697
885.524	20552
885.65	20659
885.775	20583
885.9	20530
886.025	20781
886.15	20735
886.275	20617
886.4	20492
886.525	20590
886.65	20667
886.775	20644
886.9	20667
887.025	20910
887.149	20549
887.274	20377
887.399	20343
887.523	20393
887.648	20339
887.773	20396
887.897	20385
888.021	20434
888.146	20393
888.27	20431
888.395	20434
888.519	20412
888.643	20533
888.767	20446
888.891	20282
889.015	20191
889.139	20218
889.263	20138
889.387	20145
889.511	20309
889.635	20229
889.759	20202
889.883	20096
890.006	20115
890.13	20233
890.254	20062
890.377	20005
890.501	19890
890.624	19807
890.748	19864
890.871	19898
890.995	19708
891.118	19643
891.241	19731
891.364	19761
891.488	19818
891.611	19791
891.734	19788
891.857	19830
891.98	19624
892.103	19734
892.226	19719
892.349	19616
892.471	19559
892.594	19685
892.717	19742
892.839	19594
892.962	19681
893.085	19670
893.207	19761
893.33	19544
893.452	19677
893.575	19689
893.697	19597
893.819	19753
893.941	19788
894.064	19963
894.186	19518
894.308	19597
894.43	19757
894.552	19784
894.674	19677
894.796	19529
894.918	19658
895.04	19624
895.161	19696
895.283	19734
895.405	19571
895.526	19662
895.648	19575
895.769	19689
895.891	19712
896.012	19738
896.134	19651
896.255	19845
896.376	19609
896.498	19769
896.619	19811
896.74	19856
896.861	19795
896.982	20054
897.103	20244
897.224	20039
897.345	19883
897.466	19879
897.587	19925
897.708	20130
897.828	19978
897.949	19818
898.07	19731
898.19	19852
898.311	19967
898.431	19769
898.552	19841
898.672	19932
898.792	19940
898.913	19868
899.033	19731
899.153	19635
899.273	19605
899.393	19559
899.513	19639
899.633	19525
899.753	19552
899.873	19620
899.993	19582
900.113	19419
900.232	19514
900.352	19422
900.472	19411
900.591	19308
900.711	19377
900.83	19320
900.95	19514
901.069	19476
901.189	19251
901.308	19148
901.427	18932
901.546	19012
901.665	18943
901.784	18981
901.904	18882
902.023	18776
902.141	18627
902.26	18403
902.379	18494
902.498	18456
902.617	18509
902.735	18563
902.854	18525
902.973	18357
903.091	18133
903.21	18125
903.328	18182
903.446	18045
903.565	17950
903.683	17946
903.801	17897
903.919	18003
904.038	17961
904.156	17756
904.274	17805
904.392	17703
904.51	17638
904.627	17646
904.745	17665
904.863	17691
904.981	17444
905.098	17398
905.216	17261
905.334	17474
905.451	17395
905.569	17421
905.686	17364
905.803	17402
905.921	17204
906.038	17220
906.155	17174
906.272	17105
906.389	17048
906.506	16946
906.623	16877
906.74	16915
906.857	16763
906.974	16740
907.091	16915
907.208	17090
907.324	16915
907.441	16793
907.557	16660
907.674	16584
907.79	16451
907.907	16584
908.023	16702
908.139	16615
908.256	16478
908.372	16462
908.488	16504
908.604	16375
908.72	16276
908.836	16284
908.952	16242
909.068	16276
909.184	16440
909.3	16139
909.415	16363
909.531	16204
909.647	16051
909.762	16040
909.878	15934
909.993	15949
910.108	15934
910.224	15968
910.339	15884
910.454	15857
910.57	15743
910.685	15561
910.8	15983
910.915	15895
911.03	15751
911.145	15633
911.259	15519
911.374	15511
911.489	15519
911.604	15428
911.718	15268
911.833	15287
911.947	15272
912.062	15161
912.176	15291
912.291	15340
912.405	15325
912.519	15500
912.633	15435
912.748	15260
912.862	15184
912.976	15161
913.09	15009
913.204	15017
913.318	15070
913.431	15241
913.545	15188
913.659	15332
913.772	15028
913.886	15017
914	14956
914.113	14948
914.226	15005
914.34	14982
914.453	14838
914.566	14925
914.68	14785
914.793	14800
914.906	14648
915.019	14583
915.132	14537
915.245	14465
915.358	14583
915.47	14632
915.583	14651
915.696	14606
915.809	14727
915.921	14693
916.034	14533
916.146	14454
916.259	14370
916.371	14587
916.483	14556
916.595	14419
916.708	14404
916.82	14370
916.932	14301
917.044	14267
917.156	14355
917.268	14229
917.38	14107
917.491	14248
917.603	14244
917.715	14282
917.826	14267
917.938	14138
918.049	14134
918.161	14328
918.272	14294
918.384	14317
918.495	14191
918.606	14123
918.717	13959
918.828	13955
918.939	14016
919.05	13833
919.161	13879
919.272	13761
919.383	13780
919.494	14031
919.604	14100
919.715	13967
919.826	13788
919.936	13955
920.047	14016
920.157	13963
920.267	14084
920.378	13955
920.488	13868
920.598	14046
920.708	14221
920.818	14062
920.928	14126
921.038	14240
921.148	14145
921.258	13803
921.368	13700
921.477	13651
921.587	13605
921.697	13525
921.806	13605
921.916	13525
922.025	13438
922.134	13343
922.244	13304
922.353	13304
922.462	13194
922.571	13103
922.68	12943
922.789	12951
922.898	13031
923.007	12821
923.116	12989
923.224	12932
923.333	12825
923.442	12852
923.55	12688
923.659	12741
923.767	12875
923.876	12760
923.984	12795
924.092	12665
924.201	12597
924.309	12757
924.417	12673
924.525	12623
924.633	12616
924.741	13540
924.849	12502
924.956	12604
925.064	12418
925.172	12361
925.279	12327
925.387	12334
925.494	12357
925.602	12479
925.709	12429
925.816	12353
925.924	12353
926.031	12437
926.138	12346
926.245	12399
926.352	12243
926.459	12410
926.566	12460
926.673	12270
926.779	12079
926.886	12213
926.993	11942
927.099	11954
927.206	11984
927.312	11897
927.419	11988
927.525	11912
927.631	11950
927.737	11836
927.843	11866
927.95	11649
928.056	11775
928.162	11771
928.267	11786
928.373	12490
928.479	11942
928.585	11604
928.69	11714
928.796	11764
928.901	11714
929.007	11516
929.112	11668
929.218	11649
929.323	11512
929.428	11596
929.533	11600
929.638	11425
929.743	11448
929.848	11452
929.953	11444
930.058	11356
930.163	11216
930.267	11273
930.372	11330
930.477	11159
930.581	11307
930.685	11288
930.79	11048
930.894	11041
930.998	11071
931.103	11189
931.207	10850
931.311	10843
931.415	10656
931.519	10508
931.623	10413
