Data from test_V78500241_567.txt Node
Date: Fri Mar 25 15:45:43 CST 2022
User: usil
Spectrometer: V785-0024
Trigger mode: 0
Integration Time (sec): 4.000000E-1
Scans to average: 1
Nonlinearity correction enabled: false
Boxcar width: 0
Storing dark spectrum: false
XAxis mode: Wavelengths
Number of Pixels in Spectrum: 1024
>>>>>Begin Spectral Data<<<<<
801.071	27298
801.214	27260
801.356	27005
801.499	26918
801.641	26883
801.783	26868
801.926	26796
802.068	26636
802.211	26499
802.353	26659
802.496	26442
802.638	26427
802.78	26389
802.923	26282
803.065	26404
803.208	26298
803.35	26282
803.492	26473
803.635	26533
803.777	26408
803.919	26533
804.061	26815
804.204	26484
804.346	26522
804.488	26461
804.63	26511
804.773	26457
804.915	26568
805.057	26579
805.199	26469
805.341	26701
805.483	26663
805.626	26606
805.768	26625
805.91	26583
806.052	26735
806.194	26537
806.336	26769
806.478	26701
806.62	26621
806.762	26743
806.904	26876
807.046	27260
807.188	27077
807.33	27135
807.472	27081
807.614	26960
807.756	26956
807.898	27039
808.04	26785
808.182	26857
808.324	26982
808.465	26933
808.607	27214
808.749	27070
808.891	27230
809.033	27439
809.174	27298
809.316	27211
809.458	27321
809.6	27363
809.741	27329
809.883	27435
810.025	27618
810.166	27492
810.308	27477
810.45	27507
810.591	27481
810.733	27112
810.875	27294
811.016	27150
811.158	27207
811.299	27203
811.441	27515
811.582	27351
811.724	27127
811.865	27245
812.007	27272
812.148	27310
812.29	27192
812.431	27405
812.573	27675
812.714	27671
812.855	27770
812.997	27800
813.138	27941
813.279	27937
813.421	27789
813.562	27732
813.703	27747
813.845	27443
813.986	27131
814.127	27017
814.268	26792
814.41	26994
814.551	26971
814.692	26940
814.833	26861
814.974	26823
815.115	26998
815.256	26724
815.397	26701
815.539	26762
815.68	26705
815.821	26545
815.962	26701
816.103	26545
816.244	26621
816.385	26442
816.526	26377
816.666	26396
816.807	26164
816.948	26202
817.089	26221
817.23	26248
817.371	26153
817.512	26115
817.653	26043
817.793	26122
817.934	26092
818.075	26149
818.216	26145
818.356	26145
818.497	25974
818.638	25845
818.778	25909
818.919	25887
819.06	26012
819.2	26043
819.341	26225
819.481	25997
819.622	26168
819.762	26377
819.903	26389
820.043	26419
820.184	26427
820.324	26164
820.465	26286
820.605	26290
820.746	26237
820.886	26145
821.026	26240
821.167	26229
821.307	26366
821.447	26164
821.588	26130
821.728	25871
821.868	25674
822.008	25757
822.149	25677
822.289	25533
822.429	25312
822.569	25266
822.709	25255
822.849	25168
822.99	25179
823.13	25012
823.27	25179
823.41	24867
823.55	24867
823.69	25027
823.83	24947
823.97	24935
824.11	24829
824.25	24776
824.389	24715
824.529	24863
824.669	24741
824.809	24935
824.949	24924
825.089	24878
825.228	24905
825.368	24574
825.508	24505
825.648	24650
825.787	24776
825.927	24806
826.067	24719
826.206	24601
826.346	24703
826.485	24635
826.625	24760
826.765	24760
826.904	24654
827.044	24422
827.183	24342
827.323	24300
827.462	24399
827.601	24350
827.741	24460
827.88	24338
828.02	24106
828.159	24247
828.298	24357
828.437	24353
828.577	24239
828.716	24448
828.855	24254
828.994	24041
829.134	24273
829.273	24087
829.412	24041
829.551	23904
829.69	23984
829.829	24155
829.968	24190
830.107	24129
830.246	24034
830.385	23984
830.524	23954
830.663	23904
830.802	23714
830.941	23695
831.08	23573
831.219	23646
831.357	23680
831.496	23882
831.635	23535
831.774	23471
831.913	23512
832.051	23604
832.19	23299
832.329	23554
832.467	23288
832.606	23178
832.744	23296
832.883	23299
833.022	23299
833.16	23269
833.299	23429
833.437	23360
833.576	23337
833.714	23360
833.852	23322
833.991	23265
834.129	23493
834.267	23467
834.406	23349
834.544	23372
834.682	23356
834.821	23284
834.959	23535
835.097	23318
835.235	23410
835.373	23356
835.511	23288
835.65	23349
835.788	23246
835.926	23147
836.064	23067
836.202	23003
836.34	23223
836.478	23250
836.615	23193
836.753	23220
836.891	23254
837.029	23147
837.167	23071
837.305	23048
837.443	23162
837.58	22965
837.718	23151
837.856	22987
837.993	22995
838.131	23090
838.269	23014
838.406	22946
838.544	22797
838.681	22702
838.819	22672
838.956	22493
839.094	22538
839.231	22542
839.369	22660
839.506	22961
839.643	22824
839.781	22683
839.918	22584
840.055	22508
840.193	22485
840.33	22371
840.467	22413
840.604	22459
840.742	22710
840.879	22325
841.016	22375
841.153	22417
841.29	22519
841.427	22405
841.564	22508
841.701	22535
841.838	22402
841.975	22329
842.112	22337
842.249	22276
842.385	22318
842.522	22497
842.659	22310
842.796	22124
842.933	22204
843.069	22154
843.206	22150
843.343	22211
843.479	22154
843.616	22211
843.752	22036
843.889	21968
844.025	22002
844.162	21797
844.298	22059
844.435	21949
844.571	21823
844.708	21991
844.844	22166
844.98	21956
845.117	21979
845.253	21884
845.389	21816
845.525	21785
845.661	21895
845.798	21667
845.934	21736
846.07	21622
846.206	21861
846.342	21892
846.478	21743
846.614	21538
846.75	21306
846.886	21359
847.022	21591
847.158	21492
847.294	21454
847.429	21340
847.565	21519
847.701	21800
847.837	21249
847.972	21157
848.108	21291
848.244	21184
848.379	21157
848.515	21222
848.65	21108
848.786	21104
848.921	21119
849.057	21161
849.192	21218
849.328	21138
849.463	21188
849.598	20921
849.734	20899
849.869	20975
850.004	20880
850.14	20902
850.275	20678
850.41	20785
850.545	20777
850.68	20918
850.815	20830
850.95	20842
851.085	20982
851.22	20880
851.355	20785
851.49	20819
851.625	20819
851.76	20883
851.895	20743
852.03	20754
852.165	20994
852.299	20800
852.434	20895
852.569	20941
852.703	20872
852.838	20823
852.973	20990
853.107	20982
853.242	20754
853.376	20613
853.511	20495
853.645	20629
853.78	20758
853.914	20659
854.048	20625
854.183	20609
854.317	20819
854.451	20849
854.585	20708
854.72	20667
854.854	20743
854.988	20640
855.122	20594
855.256	20556
855.39	20697
855.524	20739
855.658	20674
855.792	20746
855.926	20693
856.06	20689
856.194	20686
856.327	20659
856.461	20587
856.595	20579
856.729	20629
856.862	20788
856.996	20804
857.13	20724
857.263	20792
857.397	20678
857.53	20678
857.664	20826
857.797	20606
857.931	20731
858.064	20640
858.197	20785
858.331	20758
858.464	20480
858.597	20651
858.731	20746
858.864	20602
858.997	20682
859.13	20537
859.263	20659
859.396	20743
859.529	20663
859.662	20693
859.795	20568
859.928	20777
860.061	20842
860.194	20792
860.327	20621
860.46	20727
860.592	20815
860.725	20910
860.858	20842
860.99	20636
861.123	20415
861.256	20571
861.388	20705
861.521	21199
861.653	20598
861.786	20370
861.918	20492
862.05	20480
862.183	20705
862.315	20693
862.447	20587
862.58	20526
862.712	20434
862.844	20328
862.976	20450
863.108	20457
863.24	20891
863.372	20400
863.504	20381
863.636	20412
863.768	20438
863.9	20537
864.032	20381
864.164	20313
864.296	20355
864.428	20457
864.559	20442
864.691	20488
864.823	20412
864.954	20454
865.086	20343
865.217	20263
865.349	20233
865.48	20332
865.612	20164
865.743	20431
865.875	20343
866.006	20240
866.137	20278
866.269	20298
866.4	20301
866.531	20267
866.662	20301
866.793	20050
866.924	20256
867.055	20202
867.186	20263
867.317	20290
867.448	20130
867.579	20252
867.71	20157
867.841	20138
867.972	20229
868.103	20206
868.233	20286
868.364	20199
868.495	20343
868.625	20450
868.756	20560
868.886	20427
869.017	20495
869.147	20613
869.278	20579
869.408	20503
869.539	20362
869.669	20434
869.799	20480
869.929	20598
870.06	20454
870.19	20883
870.32	20693
870.45	20842
870.58	20788
870.71	21024
870.84	20960
870.97	20864
871.1	20826
871.23	21028
871.36	21028
871.489	20956
871.619	20998
871.749	21028
871.879	21096
872.008	21165
872.138	21085
872.267	21116
872.397	21001
872.526	20906
872.656	20883
872.785	20956
872.915	21047
873.044	21188
873.173	21051
873.303	21195
873.432	21104
873.561	21138
873.69	21074
873.819	21009
873.948	21252
874.077	21252
874.206	21039
874.335	21032
874.464	21252
874.593	21287
874.722	21310
874.851	21412
874.979	21268
875.108	21317
875.237	21279
875.365	21317
875.494	21287
875.623	21302
875.751	21161
875.88	21389
876.008	21408
876.136	21473
876.265	21633
876.393	21705
876.521	21804
876.65	21854
876.778	21720
876.906	21671
877.034	21667
877.162	21713
877.29	21641
877.418	21759
877.546	21633
877.674	21732
877.802	21720
877.93	21724
878.058	21633
878.185	21500
878.313	21698
878.441	21728
878.568	21538
878.696	21641
878.824	21831
878.951	21747
879.079	21880
879.206	21934
879.333	21819
879.461	21743
879.588	21770
879.715	21892
879.842	21975
879.97	21823
880.097	21572
880.224	21420
880.351	21500
880.478	21454
880.605	21523
880.732	21450
880.859	21698
880.986	21488
881.112	21618
881.239	21408
881.366	21268
881.493	21233
881.619	21116
881.746	21017
881.872	21226
881.999	21104
882.125	21009
882.252	20982
882.378	21108
882.505	21089
882.631	20830
882.757	20861
882.883	20823
883.01	20773
883.136	20910
883.262	20785
883.388	20609
883.514	20842
883.64	20754
883.766	20583
883.892	20587
884.018	20518
884.143	20819
884.269	20823
884.395	20514
884.52	20400
884.646	20396
884.772	20358
884.897	20271
885.023	20503
885.148	20564
885.274	20629
885.399	20476
885.524	20522
885.65	20549
885.775	20476
885.9	20423
886.025	20450
886.15	20609
886.275	20499
886.4	20225
886.525	20358
886.65	20240
886.775	20419
886.9	20659
887.025	20655
887.149	20408
887.274	20202
887.399	20191
887.523	20183
887.648	20172
887.773	20240
887.897	20282
888.021	20138
888.146	20142
888.27	20358
888.395	20157
888.519	20313
888.643	20183
888.767	20343
888.891	20096
889.015	20020
889.139	20058
889.263	20005
889.387	20153
889.511	20218
889.635	20164
889.759	20035
889.883	19940
890.006	20138
890.13	20149
890.254	19940
890.377	19879
890.501	19814
890.624	19685
890.748	19818
890.871	19715
890.995	19575
891.118	19491
891.241	19533
891.364	19571
891.488	19750
891.611	19620
891.734	19616
891.857	19628
891.98	19635
892.103	19750
892.226	19662
892.349	19567
892.471	19339
892.594	19647
892.717	19499
892.839	19506
892.962	19575
893.085	19601
893.207	19487
893.33	19441
893.452	19396
893.575	19468
893.697	19373
893.819	19696
893.941	19639
894.064	19578
894.186	19441
894.308	19449
894.43	19521
894.552	19708
894.674	19518
894.796	19434
894.918	19521
895.04	19327
895.161	19601
895.283	19635
895.405	19472
895.526	19480
895.648	19601
895.769	19548
895.891	19487
896.012	19594
896.134	19662
896.255	19605
896.376	19476
896.498	19426
896.619	19597
896.74	19537
896.861	19605
896.982	19875
897.103	19883
897.224	19875
897.345	19677
897.466	19620
897.587	19757
897.708	19879
897.828	19788
897.949	19772
898.07	19681
898.19	19772
898.311	19837
898.431	19780
898.552	19856
898.672	19769
898.792	19833
898.913	19700
899.033	19601
899.153	19556
899.273	19445
899.393	19510
899.513	19563
899.633	19518
899.753	19635
899.873	19381
899.993	19571
900.113	19449
900.232	19514
900.352	19480
900.472	19441
900.591	19263
900.711	19354
900.83	19320
900.95	19491
901.069	19362
901.189	19259
901.308	18973
901.427	18897
901.546	18897
901.665	18958
901.784	18863
901.904	18684
902.023	18734
902.141	18544
902.26	18460
902.379	18525
902.498	18357
902.617	18330
902.735	18338
902.854	18441
902.973	18277
903.091	17996
903.21	18087
903.328	18030
903.446	17927
903.565	17863
903.683	17904
903.801	17771
903.919	17737
904.038	17893
904.156	17687
904.274	17676
904.392	17684
904.51	17581
904.627	17604
904.745	17752
904.863	17634
904.981	17497
905.098	17395
905.216	17421
905.334	17368
905.451	17337
905.569	17322
905.686	17376
905.803	17440
905.921	17109
906.038	17334
906.155	17098
906.272	17041
906.389	17098
906.506	16946
906.623	16862
906.74	16987
906.857	16809
906.974	16820
907.091	16987
907.208	16991
907.324	16938
907.441	16748
907.557	16656
907.674	16580
907.79	16504
907.907	16630
908.023	16637
908.139	16592
908.256	16561
908.372	16474
908.488	16470
908.604	16344
908.72	16386
908.836	16447
908.952	16333
909.068	16333
909.184	16360
909.3	16272
909.415	16303
909.531	16325
909.647	16211
909.762	16006
909.878	15968
909.993	16090
910.108	16017
910.224	15987
910.339	16002
910.454	15975
910.57	15854
910.685	15762
910.8	16097
910.915	15983
911.03	15934
911.145	15751
911.259	15686
911.374	15553
911.489	15580
911.604	15473
911.718	15428
911.833	15370
911.947	15332
912.062	15207
912.176	15378
912.291	15401
912.405	15393
912.519	15511
912.633	15637
912.748	15466
912.862	15332
912.976	15142
913.09	15093
913.204	15188
913.318	15291
913.431	15302
913.545	15313
913.659	15363
913.772	15157
913.886	15135
914	14975
914.113	15165
914.226	15176
914.34	15093
914.453	14975
914.566	15051
914.68	14975
914.793	14826
914.906	14727
915.019	14648
915.132	14533
915.245	14594
915.358	14796
915.47	14678
915.583	14587
915.696	14629
915.809	14792
915.921	14705
916.034	14617
916.146	14556
916.259	14568
916.371	14625
916.483	14606
916.595	14488
916.708	14488
916.82	14427
916.932	14446
917.044	14575
917.156	14419
917.268	14294
917.38	14317
917.491	14438
917.603	14347
917.715	14355
917.826	14465
917.938	14233
918.049	14183
918.161	14256
918.272	14336
918.384	14336
918.495	14294
918.606	14240
918.717	13993
918.828	14096
918.939	14145
919.05	13993
919.161	14126
919.272	13837
919.383	13997
919.494	14248
919.604	14256
919.715	14111
919.826	14100
919.936	14092
920.047	14084
920.157	14062
920.267	14263
920.378	14088
920.488	14035
920.598	14267
920.708	14385
920.818	14237
920.928	14275
921.038	14431
921.148	14366
921.258	14012
921.368	13909
921.477	13902
921.587	13799
921.697	13723
921.806	13902
921.916	13742
922.025	13514
922.134	13445
922.244	13499
922.353	13586
922.462	13373
922.571	13297
922.68	13152
922.789	13015
922.898	13179
923.007	13088
923.116	13129
923.224	13122
923.333	13251
923.442	12932
923.55	13000
923.659	12985
923.767	13042
923.876	12989
923.984	12954
924.092	12859
924.201	12943
924.309	12867
924.417	12837
924.525	12821
924.633	12772
924.741	13689
924.849	12700
924.956	12764
925.064	12593
925.172	12490
925.279	12582
925.387	12608
925.494	12620
925.602	12658
925.709	12639
925.816	12467
925.924	12547
926.031	12555
926.138	12437
926.245	12578
926.352	12448
926.459	12601
926.566	12563
926.673	12483
926.779	12448
926.886	12281
926.993	12216
927.099	12186
927.206	12114
927.312	12053
927.419	12175
927.525	12133
927.631	12235
927.737	12060
927.843	11946
927.95	11897
928.056	11954
928.162	12003
928.267	12079
928.373	12707
928.479	12068
928.585	11897
928.69	12019
928.796	11920
928.901	11885
929.007	11676
929.112	11878
929.218	11786
929.323	11859
929.428	11703
929.533	11866
929.638	11630
929.743	11737
929.848	11779
929.953	11726
930.058	11509
930.163	11402
930.267	11471
930.372	11516
930.477	11356
930.581	11592
930.685	11486
930.79	11280
930.894	11398
930.998	11254
931.103	11474
931.207	11010
931.311	11037
931.415	10923
931.519	10706
931.623	10698
