Data from test_V78500241_1127.txt Node
Date: Fri Mar 25 15:49:36 CST 2022
User: usil
Spectrometer: V785-0024
Trigger mode: 0
Integration Time (sec): 4.000000E-1
Scans to average: 1
Nonlinearity correction enabled: false
Boxcar width: 0
Storing dark spectrum: false
XAxis mode: Wavelengths
Number of Pixels in Spectrum: 1024
>>>>>Begin Spectral Data<<<<<
801.071	28706
801.214	28793
801.356	28348
801.499	28287
801.641	28158
801.783	28044
801.926	28154
802.068	28124
802.211	28116
802.353	28017
802.496	27956
802.638	27987
802.78	27880
802.923	27903
803.065	27838
803.208	27835
803.35	27774
803.492	27918
803.635	27991
803.777	27907
803.919	27972
804.061	28398
804.204	28124
804.346	28017
804.488	27987
804.63	28078
804.773	27857
804.915	28173
805.057	28188
805.199	28017
805.341	28318
805.483	28204
805.626	28223
805.768	28150
805.91	28322
806.052	28238
806.194	28257
806.336	28394
806.478	28367
806.62	28265
806.762	28424
806.904	28557
807.046	28824
807.188	28706
807.33	28641
807.472	28809
807.614	28736
807.756	28672
807.898	28535
808.04	28542
808.182	28557
808.324	28660
808.465	28641
808.607	28831
808.749	28904
808.891	28995
809.033	29067
809.174	29022
809.316	28752
809.458	29037
809.6	28980
809.741	29056
809.883	29041
810.025	29353
810.166	29307
810.308	29242
810.45	29121
810.591	29277
810.733	29113
810.875	28965
811.016	28900
811.158	28843
811.299	29033
811.441	29151
811.582	29189
811.724	28953
811.865	29025
812.007	28949
812.148	28877
812.29	29029
812.431	29033
812.573	29375
812.714	29322
812.855	29414
812.997	29684
813.138	29722
813.279	29608
813.421	29512
813.562	29638
813.703	29322
813.845	29216
813.986	28980
814.127	28854
814.268	28653
814.41	28816
814.551	28656
814.692	28778
814.833	28694
814.974	28683
815.115	28824
815.256	28497
815.397	28740
815.539	28557
815.68	28561
815.821	28436
815.962	28481
816.103	28462
816.244	28436
816.385	28230
816.526	28314
816.666	28173
816.807	28051
816.948	28211
817.089	28059
817.23	27964
817.371	28074
817.512	27895
817.653	28013
817.793	28196
817.934	28097
818.075	28086
818.216	27987
818.356	28044
818.497	27884
818.638	27679
818.778	27865
818.919	27739
819.06	27800
819.2	27907
819.341	28017
819.481	27937
819.622	28207
819.762	28242
819.903	28287
820.043	28314
820.184	28207
820.324	28169
820.465	28226
820.605	28196
820.746	28158
820.886	28048
821.026	28154
821.167	27991
821.307	28162
821.447	28188
821.588	27934
821.728	27926
821.868	27766
822.008	27561
822.149	27427
822.289	27519
822.429	27207
822.569	27222
822.709	27180
822.849	27112
822.99	27051
823.13	27028
823.27	26963
823.41	26842
823.55	26739
823.69	26842
823.83	26765
823.97	26724
824.11	26670
824.25	26689
824.389	26648
824.529	26811
824.669	26579
824.809	26826
824.949	26773
825.089	26674
825.228	26800
825.368	26606
825.508	26533
825.648	26492
825.787	26655
825.927	26606
826.067	26457
826.206	26453
826.346	26526
826.485	26651
826.625	26632
826.765	26629
826.904	26575
827.044	26374
827.183	26328
827.323	26202
827.462	26343
827.601	26377
827.741	26286
827.88	26362
828.02	26187
828.159	26267
828.298	26195
828.437	26298
828.577	26157
828.716	26259
828.855	26088
828.994	26039
829.134	25894
829.273	25951
829.412	25940
829.551	25974
829.69	26020
829.829	25917
829.968	26130
830.107	25997
830.246	25944
830.385	25940
830.524	25852
830.663	25742
830.802	25807
830.941	25651
831.08	25559
831.219	25658
831.357	25544
831.496	25708
831.635	25632
831.774	25441
831.913	25434
832.051	25441
832.19	25369
832.329	25419
832.467	25194
832.606	25255
832.744	25225
832.883	25247
833.022	25179
833.16	25095
833.299	25392
833.437	25110
833.576	25270
833.714	25198
833.852	25312
833.991	25381
834.129	25426
834.267	25373
834.406	25282
834.544	25331
834.682	25263
834.821	25251
834.959	25400
835.097	25160
835.235	25278
835.373	25202
835.511	25331
835.65	25099
835.788	25232
835.926	25129
836.064	25015
836.202	24932
836.34	25069
836.478	25126
836.615	25019
836.753	24992
836.891	25168
837.029	25099
837.167	25061
837.305	25152
837.443	24951
837.58	25004
837.718	25053
837.856	25110
837.993	24958
838.131	24928
838.269	24722
838.406	24806
838.544	24753
838.681	24532
838.819	24650
838.956	24429
839.094	24410
839.231	24429
839.369	24597
839.506	24783
839.643	24646
839.781	24384
839.918	24372
840.055	24429
840.193	24357
840.33	24338
840.467	24410
840.604	24395
840.742	24612
840.879	24266
841.016	24121
841.153	24155
841.29	24456
841.427	24300
841.564	24327
841.701	24190
841.838	24079
841.975	24235
842.112	24243
842.249	24220
842.385	24186
842.522	24327
842.659	24159
842.796	24121
842.933	24095
843.069	24018
843.206	23999
843.343	24129
843.479	24049
843.616	24087
843.752	23821
843.889	23923
844.025	24060
844.162	23824
844.298	23870
844.435	23764
844.571	23752
844.708	23920
844.844	24136
844.98	23885
845.117	23927
845.253	23813
845.389	23733
845.525	23813
845.661	23585
845.798	23604
845.934	23570
846.07	23573
846.206	23589
846.342	23570
846.478	23562
846.614	23353
846.75	23231
846.886	23258
847.022	23436
847.158	23189
847.294	23433
847.429	23520
847.565	23322
847.701	23512
847.837	23132
847.972	23121
848.108	23056
848.244	23117
848.379	22869
848.515	22820
848.65	22869
848.786	22972
848.921	22923
849.057	23060
849.192	22965
849.328	22965
849.463	22904
849.598	22828
849.734	22778
849.869	22839
850.004	22679
850.14	22702
850.275	22736
850.41	22656
850.545	22618
850.68	22561
850.815	22698
850.95	22588
851.085	22828
851.22	22843
851.355	22763
851.49	22694
851.625	22634
851.76	22569
851.895	22592
852.03	22603
852.165	22713
852.299	22672
852.434	22805
852.569	22584
852.703	22531
852.838	22691
852.973	22752
853.107	22698
853.242	22634
853.376	22474
853.511	22337
853.645	22360
853.78	22573
853.914	22440
854.048	22542
854.183	22577
854.317	22459
854.451	22542
854.585	22409
854.72	22386
854.854	22538
854.988	22371
855.122	22523
855.256	22325
855.39	22493
855.524	22417
855.658	22531
855.792	22493
855.926	22443
856.06	22504
856.194	22561
856.327	22519
856.461	22394
856.595	22424
856.729	22352
856.862	22580
856.996	22379
857.13	22402
857.263	22641
857.397	22626
857.53	22443
857.664	22474
857.797	22554
857.931	22538
858.064	22512
858.197	22622
858.331	22493
858.464	22356
858.597	22333
858.731	22360
858.864	22470
858.997	22341
859.13	22405
859.263	22455
859.396	22588
859.529	22443
859.662	22390
859.795	22417
859.928	22493
860.061	22634
860.194	22577
860.327	22584
860.46	22481
860.592	22664
860.725	22641
860.858	22565
860.99	22398
861.123	22409
861.256	22451
861.388	22310
861.521	23288
861.653	22436
861.786	22207
861.918	22246
862.05	22291
862.183	22360
862.315	22447
862.447	22493
862.58	22382
862.712	22230
862.844	22166
862.976	22299
863.108	22162
863.24	22611
863.372	22196
863.504	22093
863.636	22135
863.768	22211
863.9	22204
864.032	22097
864.164	22109
864.296	22147
864.428	22287
864.559	22139
864.691	22230
864.823	22173
864.954	22207
865.086	22055
865.217	21956
865.349	21972
865.48	22025
865.612	22063
865.743	22112
865.875	21987
866.006	22040
866.137	22101
866.269	21987
866.4	22082
866.531	22059
866.662	21972
866.793	22017
866.924	21956
867.055	21953
867.186	22063
867.317	22002
867.448	21835
867.579	21975
867.71	21975
867.841	21941
867.972	22025
868.103	21979
868.233	21915
868.364	22013
868.495	22105
868.625	22135
868.756	22204
868.886	22070
869.017	22097
869.147	22390
869.278	22394
869.408	22223
869.539	22295
869.669	22344
869.799	22280
869.929	22341
870.06	22379
870.19	22474
870.32	22485
870.45	22481
870.58	22622
870.71	22698
870.84	22634
870.97	22588
871.1	22637
871.23	22881
871.36	22748
871.489	22694
871.619	22790
871.749	22809
871.879	22900
872.008	22900
872.138	22755
872.267	22675
872.397	22668
872.526	22637
872.656	22717
872.785	22641
872.915	22915
873.044	22927
873.173	22854
873.303	22915
873.432	22843
873.561	22930
873.69	22930
873.819	22858
873.948	22812
874.077	22866
874.206	22752
874.335	22869
874.464	22820
874.593	23162
874.722	23079
874.851	23124
874.979	23018
875.108	23113
875.237	22999
875.365	22968
875.494	23052
875.623	23060
875.751	23022
875.88	23143
876.008	23174
876.136	23147
876.265	23410
876.393	23676
876.521	23535
876.65	23539
876.778	23337
876.906	23440
877.034	23242
877.162	23288
877.29	23383
877.418	23292
877.546	23334
877.674	23387
877.802	23318
877.93	23356
878.058	23383
878.185	23098
878.313	23387
878.441	23402
878.568	23181
878.696	23383
878.824	23364
878.951	23471
879.079	23516
879.206	23748
879.333	23520
879.461	23356
879.588	23425
879.715	23600
879.842	23649
879.97	23372
880.097	23220
880.224	23258
880.351	23227
880.478	23239
880.605	23124
880.732	23159
880.859	23341
880.986	23254
881.112	23250
881.239	23121
881.366	22968
881.493	22816
881.619	22809
881.746	22755
881.872	22733
881.999	22626
882.125	22641
882.252	22713
882.378	22744
882.505	22915
882.631	22527
882.757	22409
882.883	22485
883.01	22485
883.136	22428
883.262	22363
883.388	22143
883.514	22352
883.64	22508
883.766	22303
883.892	22078
884.018	22116
884.143	22352
884.269	22428
884.395	22143
884.52	21991
884.646	21994
884.772	22059
884.897	21968
885.023	22162
885.148	22185
885.274	22139
885.399	22120
885.524	22051
885.65	22188
885.775	22105
885.9	22021
886.025	22112
886.15	22128
886.275	22169
886.4	22002
886.525	22025
886.65	21972
886.775	22158
886.9	22105
887.025	22215
887.149	22021
887.274	21884
887.399	21747
887.523	21850
887.648	21709
887.773	21663
887.897	21857
888.021	21812
888.146	21759
888.27	21876
888.395	21827
888.519	21800
888.643	21789
888.767	21831
888.891	21762
889.015	21641
889.139	21698
889.263	21606
889.387	21739
889.511	21724
889.635	21694
889.759	21618
889.883	21504
890.006	21606
890.13	21739
890.254	21538
890.377	21500
890.501	21435
890.624	21195
890.748	21378
890.871	21306
890.995	21188
891.118	21127
891.241	21222
891.364	21211
891.488	21275
891.611	21188
891.734	21176
891.857	21188
891.98	21138
892.103	21214
892.226	21131
892.349	21036
892.471	21020
892.594	21112
892.717	21070
892.839	21051
892.962	21184
893.085	21127
893.207	21009
893.33	20952
893.452	20979
893.575	21062
893.697	21096
893.819	21207
893.941	21230
894.064	21222
894.186	20971
894.308	20952
894.43	21222
894.552	21024
894.674	21096
894.796	20948
894.918	21001
895.04	21036
895.161	21123
895.283	21047
895.405	21024
895.526	20960
895.648	21036
895.769	21074
895.891	21142
896.012	21047
896.134	21062
896.255	21051
896.376	20918
896.498	21104
896.619	21081
896.74	21058
896.861	21047
896.982	21298
897.103	21511
897.224	21211
897.345	21329
897.466	21093
897.587	21214
897.708	21317
897.828	21222
897.949	21199
898.07	21066
898.19	21173
898.311	21249
898.431	21146
898.552	21237
898.672	21272
898.792	21279
898.913	21070
899.033	21047
899.153	21058
899.273	20895
899.393	21028
899.513	20963
899.633	20956
899.753	20933
899.873	20849
899.993	20986
900.113	20834
900.232	20891
900.352	20861
900.472	20861
900.591	20800
900.711	20743
900.83	20743
900.95	20788
901.069	20670
901.189	20571
901.308	20389
901.427	20328
901.546	20408
901.665	20328
901.784	20275
901.904	20183
902.023	20005
902.141	19860
902.26	19799
902.379	19909
902.498	19738
902.617	19814
902.735	19788
902.854	19753
902.973	19731
903.091	19468
903.21	19430
903.328	19476
903.446	19266
903.565	19251
903.683	19312
903.801	19251
903.919	19217
904.038	19282
904.156	19050
904.274	19148
904.392	18939
904.51	18962
904.627	18951
904.745	18989
904.863	19133
904.981	18802
905.098	18608
905.216	18700
905.334	18700
905.451	18658
905.569	18776
905.686	18627
905.803	18764
905.921	18369
906.038	18551
906.155	18528
906.272	18395
906.389	18304
906.506	18178
906.623	18243
906.74	18110
906.857	18121
906.974	18167
907.091	18235
907.208	18216
907.324	18292
907.441	18034
907.557	17946
907.674	17813
907.79	17878
907.907	17752
908.023	18007
908.139	17908
908.256	17802
908.372	17764
908.488	17767
908.604	17668
908.72	17573
908.836	17745
908.952	17528
909.068	17608
909.184	17699
909.3	17604
909.415	17627
909.531	17615
909.647	17322
909.762	17261
909.878	17231
909.993	17292
910.108	17303
910.224	17315
910.339	17216
910.454	17166
910.57	17098
910.685	16991
910.8	17425
910.915	17254
911.03	17124
911.145	16999
911.259	16828
911.374	16824
911.489	16782
911.604	16774
911.718	16626
911.833	16656
911.947	16535
912.062	16470
912.176	16721
912.291	16717
912.405	16725
912.519	16908
912.633	16740
912.748	16592
912.862	16653
912.976	16455
913.09	16379
913.204	16360
913.318	16493
913.431	16561
913.545	16550
913.659	16577
913.772	16390
913.886	16188
914	16147
914.113	16226
914.226	16398
914.34	16348
914.453	16166
914.566	16276
914.68	16097
914.793	16105
914.906	16029
915.019	15823
915.132	15793
915.245	15827
915.358	15892
915.47	15869
915.583	15945
915.696	15827
915.809	15907
915.921	15911
916.034	15743
916.146	15739
916.259	15770
916.371	15819
916.483	15728
916.595	15667
916.708	15701
916.82	15751
916.932	15622
917.044	15701
917.156	15469
917.268	15488
917.38	15469
917.491	15443
917.603	15447
917.715	15564
917.826	15473
917.938	15382
918.049	15313
918.161	15435
918.272	15553
918.384	15610
918.495	15447
918.606	15268
918.717	15146
918.828	15230
918.939	15233
919.05	15055
919.161	15161
919.272	14933
919.383	15138
919.494	15188
919.604	15431
919.715	15211
919.826	15169
919.936	15116
920.047	15230
920.157	15249
920.267	15298
920.378	15256
920.488	15135
920.598	15294
920.708	15340
920.818	15222
920.928	15249
921.038	15408
921.148	15370
921.258	14994
921.368	15047
921.477	14853
921.587	14804
921.697	14762
921.806	14819
921.916	14701
922.025	14480
922.134	14461
922.244	14442
922.353	14530
922.462	14465
922.571	14320
922.68	14191
922.789	14050
922.898	14183
923.007	14092
923.116	14180
923.224	14065
923.333	14031
923.442	13963
923.55	13951
923.659	13879
923.767	14043
923.876	13879
923.984	13989
924.092	13909
924.201	13860
924.309	13822
924.417	13795
924.525	13788
924.633	13757
924.741	14651
924.849	13613
924.956	13693
925.064	13529
925.172	13476
925.279	13468
925.387	13582
925.494	13548
925.602	13624
925.709	13502
925.816	13392
925.924	13430
926.031	13544
926.138	13483
926.245	13537
926.352	13396
926.459	13571
926.566	13495
926.673	13419
926.779	13244
926.886	13301
926.993	13008
927.099	13065
927.206	13015
927.312	13053
927.419	13118
927.525	13091
927.631	13042
927.737	12909
927.843	12814
927.95	12802
928.056	12848
928.162	12932
928.267	12890
928.373	13384
928.479	12993
928.585	12795
928.69	12825
928.796	12859
928.901	12726
929.007	12559
929.112	12772
929.218	12692
929.323	12620
929.428	12646
929.533	12749
929.638	12544
929.743	12585
929.848	12593
929.953	12525
930.058	12513
930.163	12209
930.267	12285
930.372	12426
930.477	12258
930.581	12448
930.685	12296
930.79	12201
930.894	12117
930.998	12136
931.103	12273
931.207	11836
931.311	11897
931.415	11737
931.519	11543
931.623	11471
