Data from test_V78500241_788.txt Node
Date: Fri Mar 25 15:47:15 CST 2022
User: usil
Spectrometer: V785-0024
Trigger mode: 0
Integration Time (sec): 4.000000E-1
Scans to average: 1
Nonlinearity correction enabled: false
Boxcar width: 0
Storing dark spectrum: false
XAxis mode: Wavelengths
Number of Pixels in Spectrum: 1024
>>>>>Begin Spectral Data<<<<<
801.071	27538
801.214	27298
801.356	27096
801.499	26967
801.641	26883
801.783	27005
801.926	27001
802.068	26944
802.211	26929
802.353	26815
802.496	26560
802.638	26632
802.78	26583
802.923	26511
803.065	26389
803.208	26499
803.35	26450
803.492	26781
803.635	26807
803.777	26598
803.919	26739
804.061	27024
804.204	26849
804.346	26636
804.488	26602
804.63	26678
804.773	26613
804.915	26800
805.057	26944
805.199	26765
805.341	26880
805.483	26921
805.626	26830
805.768	26670
805.91	26807
806.052	26853
806.194	26952
806.336	26990
806.478	26842
806.62	26864
806.762	27020
806.904	27089
807.046	27431
807.188	27329
807.33	27222
807.472	27325
807.614	27131
807.756	27264
807.898	27203
808.04	26986
808.182	27100
808.324	27173
808.465	27245
808.607	27363
808.749	27401
808.891	27591
809.033	27762
809.174	27485
809.316	27405
809.458	27412
809.6	27614
809.741	27587
809.883	27667
810.025	27728
810.166	27736
810.308	27884
810.45	27842
810.591	27656
810.733	27534
810.875	27443
811.016	27466
811.158	27473
811.299	27648
811.441	27686
811.582	27667
811.724	27401
811.865	27355
812.007	27511
812.148	27511
812.29	27344
812.431	27728
812.573	27926
812.714	27861
812.855	28124
812.997	28074
813.138	28268
813.279	28128
813.421	28109
813.562	28063
813.703	27819
813.845	27629
813.986	27450
814.127	27477
814.268	27218
814.41	27199
814.551	27085
814.692	27348
814.833	27272
814.974	27226
815.115	27252
815.256	27017
815.397	27089
815.539	27055
815.68	27047
815.821	26746
815.962	26956
816.103	26902
816.244	26705
816.385	26807
816.526	26644
816.666	26473
816.807	26503
816.948	26488
817.089	26385
817.23	26625
817.371	26374
817.512	26396
817.653	26579
817.793	26377
817.934	26393
818.075	26518
818.216	26427
818.356	26400
818.497	26259
818.638	26267
818.778	26145
818.919	26115
819.06	26153
819.2	26320
819.341	26438
819.481	26484
819.622	26667
819.762	26788
819.903	26663
820.043	26724
820.184	26514
820.324	26503
820.465	26518
820.605	26484
820.746	26522
820.886	26465
821.026	26457
821.167	26514
821.307	26457
821.447	26358
821.588	26408
821.728	26145
821.868	26096
822.008	25868
822.149	25875
822.289	25940
822.429	25586
822.569	25567
822.709	25571
822.849	25365
822.99	25434
823.13	25419
823.27	25373
823.41	25255
823.55	25088
823.69	25156
823.83	25095
823.97	25244
824.11	24951
824.25	25034
824.389	24989
824.529	25133
824.669	25076
824.809	25194
824.949	25141
825.089	25084
825.228	25080
825.368	24951
825.508	24951
825.648	25034
825.787	25122
825.927	24989
826.067	25019
826.206	24886
826.346	24928
826.485	25103
826.625	25065
826.765	25000
826.904	25038
827.044	24673
827.183	24688
827.323	24688
827.462	24760
827.601	24665
827.741	24597
827.88	24692
828.02	24505
828.159	24639
828.298	24681
828.437	24642
828.577	24566
828.716	24677
828.855	24684
828.994	24304
829.134	24338
829.273	24399
829.412	24330
829.551	24315
829.69	24384
829.829	24266
829.968	24346
830.107	24372
830.246	24330
830.385	24296
830.524	24186
830.663	24091
830.802	24091
830.941	23863
831.08	23923
831.219	24038
831.357	24064
831.496	24098
831.635	24003
831.774	23897
831.913	23794
832.051	23752
832.19	23729
832.329	23790
832.467	23638
832.606	23627
832.744	23661
832.883	23653
833.022	23497
833.16	23638
833.299	23566
833.437	23608
833.576	23691
833.714	23676
833.852	23703
833.991	23668
834.129	23824
834.267	23786
834.406	23729
834.544	23733
834.682	23836
834.821	23672
834.959	23821
835.097	23577
835.235	23691
835.373	23608
835.511	23680
835.65	23535
835.788	23604
835.926	23307
836.064	23391
836.202	23345
836.34	23444
836.478	23642
836.615	23528
836.753	23627
836.891	23684
837.029	23490
837.167	23520
837.305	23444
837.443	23448
837.58	23273
837.718	23417
837.856	23197
837.993	23231
838.131	23315
838.269	23124
838.406	23231
838.544	23197
838.681	22965
838.819	22866
838.956	22782
839.094	22877
839.231	22961
839.369	22976
839.506	23303
839.643	23052
839.781	22782
839.918	22771
840.055	22774
840.193	22793
840.33	22653
840.467	22790
840.604	22725
840.742	23033
840.879	22717
841.016	22694
841.153	22508
841.29	22854
841.427	22736
841.564	22740
841.701	22683
841.838	22649
841.975	22645
842.112	22706
842.249	22508
842.385	22611
842.522	22744
842.659	22615
842.796	22550
842.933	22432
843.069	22356
843.206	22436
843.343	22485
843.479	22432
843.616	22531
843.752	22230
843.889	22230
844.025	22325
844.162	22169
844.298	22287
844.435	22143
844.571	22196
844.708	22303
844.844	22386
844.98	22329
845.117	22386
845.253	22284
845.389	22230
845.525	22253
845.661	22097
845.798	22082
845.934	22120
846.07	22040
846.206	22082
846.342	22090
846.478	21915
846.614	21698
846.75	21728
846.886	21759
847.022	21789
847.158	21797
847.294	21835
847.429	21694
847.565	21808
847.701	21983
847.837	21462
847.972	21466
848.108	21538
848.244	21599
848.379	21287
848.515	21378
848.65	21211
848.786	21211
848.921	21382
849.057	21549
849.192	21515
849.328	21260
849.463	21462
849.598	21302
849.734	21165
849.869	21127
850.004	21100
850.14	21256
850.275	21135
850.41	21074
850.545	21089
850.68	21047
850.815	21142
850.95	20960
851.085	21195
851.22	21192
851.355	21077
851.49	20963
851.625	21043
851.76	21127
851.895	21055
852.03	21108
852.165	21237
852.299	21176
852.434	21138
852.569	21199
852.703	21093
852.838	21241
852.973	21256
853.107	21150
853.242	21001
853.376	20883
853.511	20857
853.645	20845
853.78	20975
853.914	20906
854.048	20982
854.183	20910
854.317	21028
854.451	21154
854.585	20937
854.72	20918
854.854	20994
854.988	20834
855.122	20773
855.256	20769
855.39	20804
855.524	21017
855.658	20971
855.792	21009
855.926	20967
856.06	20914
856.194	21074
856.327	20902
856.461	20845
856.595	20876
856.729	20868
856.862	20986
856.996	20986
857.13	20864
857.263	21047
857.397	21036
857.53	20811
857.664	20990
857.797	20933
857.931	21062
858.064	20929
858.197	21081
858.331	20967
858.464	20819
858.597	20720
858.731	20891
858.864	20925
858.997	20788
859.13	20944
859.263	20944
859.396	21036
859.529	20952
859.662	20906
859.795	20902
859.928	20933
860.061	21047
860.194	21169
860.327	20895
860.46	20933
860.592	21058
860.725	20990
860.858	21032
860.99	20952
861.123	20811
861.256	20963
861.388	20845
861.521	21488
861.653	20849
861.786	20754
861.918	20682
862.05	20838
862.183	20857
862.315	20800
862.447	20864
862.58	20849
862.712	20640
862.844	20598
862.976	20674
863.108	20716
863.24	21036
863.372	20434
863.504	20640
863.636	20716
863.768	20731
863.9	20720
864.032	20541
864.164	20590
864.296	20686
864.428	20731
864.559	20689
864.691	20705
864.823	20758
864.954	20686
865.086	20492
865.217	20522
865.349	20495
865.48	20571
865.612	20514
865.743	20655
865.875	20667
866.006	20621
866.137	20560
866.269	20575
866.4	20465
866.531	20457
866.662	20362
866.793	20503
866.924	20404
867.055	20427
867.186	20568
867.317	20488
867.448	20446
867.579	20400
867.71	20374
867.841	20503
867.972	20454
868.103	20461
868.233	20568
868.364	20522
868.495	20545
868.625	20689
868.756	20826
868.886	20716
869.017	20777
869.147	20868
869.278	20880
869.408	20788
869.539	20796
869.669	20792
869.799	20826
869.929	20921
870.06	20792
870.19	21028
870.32	20956
870.45	21131
870.58	21184
870.71	21245
870.84	21207
870.97	21119
871.1	21127
871.23	21211
871.36	21302
871.489	21287
871.619	21272
871.749	21344
871.879	21397
872.008	21450
872.138	21264
872.267	21188
872.397	21222
872.526	21184
872.656	21154
872.785	21081
872.915	21283
873.044	21367
873.173	21268
873.303	21340
873.432	21416
873.561	21530
873.69	21416
873.819	21298
873.948	21291
874.077	21466
874.206	21161
874.335	21386
874.464	21393
874.593	21591
874.722	21530
874.851	21622
874.979	21629
875.108	21553
875.237	21462
875.365	21363
875.494	21568
875.623	21679
875.751	21591
875.88	21580
876.008	21766
876.136	21713
876.265	21926
876.393	22067
876.521	21979
876.65	21994
876.778	22063
876.906	21918
877.034	21804
877.162	22010
877.29	21922
877.418	21857
877.546	21865
877.674	21960
877.802	21934
877.93	21838
878.058	21835
878.185	21804
878.313	21797
878.441	21888
878.568	21690
878.696	21884
878.824	21937
878.951	22002
879.079	22147
879.206	22177
879.333	22055
879.461	21934
879.588	21972
879.715	22055
879.842	22223
879.97	22002
880.097	21736
880.224	21751
880.351	21911
880.478	21690
880.605	21800
880.732	21698
880.859	21945
880.986	21709
881.112	21759
881.239	21641
881.366	21526
881.493	21466
881.619	21283
881.746	21408
881.872	21275
881.999	21268
882.125	21161
882.252	21416
882.378	21222
882.505	21462
882.631	21131
882.757	21108
882.883	21081
883.01	20975
883.136	21020
883.262	20982
883.388	20899
883.514	21085
883.64	21112
883.766	20883
883.892	20746
884.018	20880
884.143	20982
884.269	21104
884.395	20754
884.52	20678
884.646	20655
884.772	20564
884.897	20518
885.023	20750
885.148	20716
885.274	20864
885.399	20750
885.524	20705
885.65	20716
885.775	20632
885.9	20670
886.025	20731
886.15	20697
886.275	20708
886.4	20533
886.525	20636
886.65	20518
886.775	20389
886.9	20906
887.025	20804
887.149	20587
887.274	20499
887.399	20518
887.523	20393
887.648	20355
887.773	20271
887.897	20522
888.021	20514
888.146	20412
888.27	20507
888.395	20503
888.519	20480
888.643	20518
888.767	20492
888.891	20328
889.015	20187
889.139	20210
889.263	20172
889.387	20358
889.511	20469
889.635	20343
889.759	20328
889.883	20206
890.006	20172
890.13	20271
890.254	20180
890.377	20229
890.501	19944
890.624	19936
890.748	20115
890.871	19871
890.995	19746
891.118	19689
891.241	19780
891.364	19864
891.488	19906
891.611	19746
891.734	19852
891.857	19936
891.98	19830
892.103	19887
892.226	19795
892.349	19723
892.471	19700
892.594	19753
892.717	19868
892.839	19784
892.962	19795
893.085	19791
893.207	19769
893.33	19597
893.452	19685
893.575	19750
893.697	19742
893.819	19955
893.941	19978
894.064	19841
894.186	19715
894.308	19582
894.43	19734
894.552	19928
894.674	19826
894.796	19635
894.918	19750
895.04	19807
895.161	19879
895.283	19761
895.405	19708
895.526	19746
895.648	19700
895.769	19746
895.891	19818
896.012	19902
896.134	19830
896.255	19890
896.376	19704
896.498	19712
896.619	19814
896.74	19753
896.861	19849
896.982	20092
897.103	20142
897.224	20031
897.345	19826
897.466	19928
897.587	19967
897.708	20168
897.828	20062
897.949	20001
898.07	19772
898.19	19925
898.311	20054
898.431	19944
898.552	19986
898.672	19986
898.792	20073
898.913	20027
899.033	19883
899.153	19788
899.273	19803
899.393	19814
899.513	19609
899.633	19845
899.753	19811
899.873	19830
899.993	19670
900.113	19601
900.232	19731
900.352	19628
900.472	19605
900.591	19514
900.711	19464
900.83	19487
900.95	19727
901.069	19567
901.189	19430
901.308	19213
901.427	19053
901.546	19061
901.665	19183
901.784	19152
901.904	18996
902.023	18897
902.141	18654
902.26	18745
902.379	18677
902.498	18589
902.617	18551
902.735	18665
902.854	18551
902.973	18486
903.091	18289
903.21	18338
903.328	18350
903.446	18243
903.565	18102
903.683	18117
903.801	17977
903.919	18114
904.038	17942
904.156	18019
904.274	17984
904.392	17824
904.51	17866
904.627	17786
904.745	17874
904.863	17954
904.981	17691
905.098	17592
905.216	17486
905.334	17756
905.451	17600
905.569	17539
905.686	17543
905.803	17570
905.921	17433
906.038	17334
906.155	17334
906.272	17318
906.389	17299
906.506	17079
906.623	17086
906.74	17113
906.857	16968
906.974	17071
907.091	17124
907.208	17269
907.324	17181
907.441	16961
907.557	16793
907.674	16771
907.79	16755
907.907	16736
908.023	16805
908.139	16736
908.256	16672
908.372	16653
908.488	16649
908.604	16588
908.72	16607
908.836	16542
908.952	16466
909.068	16481
909.184	16645
909.3	16550
909.415	16489
909.531	16481
909.647	16360
909.762	16310
909.878	16253
909.993	16226
910.108	16226
910.224	16177
910.339	16253
910.454	16097
910.57	16112
910.685	15945
910.8	16234
910.915	16169
911.03	16048
911.145	15838
911.259	15823
911.374	15823
911.489	15785
911.604	15835
911.718	15603
911.833	15538
911.947	15408
912.062	15466
912.176	15652
912.291	15576
912.405	15637
912.519	15778
912.633	15800
912.748	15610
912.862	15500
912.976	15469
913.09	15332
913.204	15332
913.318	15435
913.431	15614
913.545	15473
913.659	15511
913.772	15313
913.886	15256
914	15188
914.113	15180
914.226	15313
914.34	15348
914.453	15138
914.566	15180
914.68	15055
914.793	15116
914.906	14998
915.019	14868
915.132	14929
915.245	14750
915.358	14849
915.47	14914
915.583	14804
915.696	14834
915.809	14994
915.921	14876
916.034	14739
916.146	14724
916.259	14731
916.371	14735
916.483	14754
916.595	14655
916.708	14674
916.82	14705
916.932	14663
917.044	14568
917.156	14655
917.268	14434
917.38	14606
917.491	14415
917.603	14480
917.715	14575
917.826	14522
917.938	14404
918.049	14332
918.161	14438
918.272	14678
918.384	14454
918.495	14423
918.606	14256
918.717	14202
918.828	14336
918.939	14214
919.05	14062
919.161	14267
919.272	14054
919.383	14119
919.494	14240
919.604	14514
919.715	14202
919.826	14263
919.936	14210
920.047	14336
920.157	14244
920.267	14400
920.378	14138
920.488	14218
920.598	14374
920.708	14541
920.818	14324
920.928	14393
921.038	14579
921.148	14514
921.258	14161
921.368	13993
921.477	14001
921.587	13967
921.697	13826
921.806	13982
921.916	13830
922.025	13708
922.134	13681
922.244	13559
922.353	13658
922.462	13487
922.571	13476
922.68	13327
922.789	13251
922.898	13228
923.007	13194
923.116	13316
923.224	13240
923.333	13209
923.442	13050
923.55	13076
923.659	13126
923.767	13145
923.876	13046
923.984	13171
924.092	13053
924.201	13015
924.309	12958
924.417	13069
924.525	12962
924.633	12962
924.741	13795
924.849	12726
924.956	12878
925.064	12749
925.172	12730
925.279	12677
925.387	12734
925.494	12662
925.602	12924
925.709	12852
925.816	12616
925.924	12642
926.031	12738
926.138	12642
926.245	12707
926.352	12582
926.459	12711
926.566	12719
926.673	12559
926.779	12490
926.886	12452
926.993	12346
927.099	12357
927.206	12232
927.312	12197
927.419	12346
927.525	12251
927.631	12289
927.737	12213
927.843	12102
927.95	12019
928.056	12152
928.162	12144
928.267	12224
928.373	12749
928.479	12273
928.585	11992
928.69	12083
928.796	12178
928.901	12041
929.007	11897
929.112	12057
929.218	12011
929.323	11920
929.428	11870
929.533	12060
929.638	11836
929.743	11828
929.848	11828
929.953	11786
930.058	11779
930.163	11611
930.267	11535
930.372	11767
930.477	11543
930.581	11733
930.685	11649
930.79	11520
930.894	11493
930.998	11414
931.103	11577
931.207	11280
931.311	11136
931.415	11029
931.519	10850
931.623	10816
