Data from test_V78500241_3639.txt Node
Date: Fri Mar 25 16:07:00 CST 2022
User: usil
Spectrometer: V785-0024
Trigger mode: 0
Integration Time (sec): 4.000000E-1
Scans to average: 1
Nonlinearity correction enabled: false
Boxcar width: 0
Storing dark spectrum: false
XAxis mode: Wavelengths
Number of Pixels in Spectrum: 1024
>>>>>Begin Spectral Data<<<<<
801.071	27762
801.214	27701
801.356	27443
801.499	27302
801.641	27249
801.783	27188
801.926	27416
802.068	27184
802.211	27332
802.353	27089
802.496	26967
802.638	26868
802.78	26933
802.923	26739
803.065	26705
803.208	26899
803.35	26948
803.492	27173
803.635	27157
803.777	26948
803.919	27119
804.061	27321
804.204	27009
804.346	27051
804.488	27017
804.63	27138
804.773	27047
804.915	27074
805.057	27252
805.199	27074
805.341	27150
805.483	27382
805.626	27135
805.768	27127
805.91	27249
806.052	27298
806.194	27268
806.336	27336
806.478	27245
806.62	27378
806.762	27408
806.904	27545
807.046	27660
807.188	27694
807.33	27686
807.472	27720
807.614	27591
807.756	27694
807.898	27427
808.04	27374
808.182	27496
808.324	27477
808.465	27568
808.607	27603
808.749	27930
808.891	28051
809.033	28120
809.174	27926
809.316	27869
809.458	27907
809.6	27953
809.741	27899
809.883	28013
810.025	28177
810.166	28154
810.308	28257
810.45	28090
810.591	27960
810.733	27861
810.875	27884
811.016	27819
811.158	27876
811.299	27968
811.441	28101
811.582	28055
811.724	27816
811.865	27816
812.007	27968
812.148	28017
812.29	27873
812.431	28162
812.573	28207
812.714	28261
812.855	28287
812.997	28436
813.138	28660
813.279	28554
813.421	28348
813.562	28230
813.703	28131
813.845	28017
813.986	27873
814.127	27679
814.268	27595
814.41	27564
814.551	27462
814.692	27610
814.833	27435
814.974	27427
815.115	27667
815.256	27393
815.397	27469
815.539	27378
815.68	27420
815.821	27096
815.962	27363
816.103	27306
816.244	27218
816.385	27070
816.526	27199
816.666	26982
816.807	26857
816.948	26826
817.089	27070
817.23	26914
817.371	26830
817.512	27013
817.653	26785
817.793	26743
817.934	26849
818.075	26830
818.216	26872
818.356	26739
818.497	26644
818.638	26560
818.778	26590
818.919	26731
819.06	26670
819.2	26819
819.341	26986
819.481	26735
819.622	27043
819.762	27252
819.903	27066
820.043	27100
820.184	26960
820.324	26899
820.465	27096
820.605	27043
820.746	26971
820.886	26754
821.026	27051
821.167	26940
821.307	27096
821.447	26838
821.588	26739
821.728	26689
821.868	26594
822.008	26275
822.149	26358
822.289	26332
822.429	26103
822.569	25898
822.709	25978
822.849	25761
822.99	25871
823.13	25803
823.27	25864
823.41	25704
823.55	25540
823.69	25769
823.83	25643
823.97	25586
824.11	25464
824.25	25422
824.389	25506
824.529	25628
824.669	25479
824.809	25605
824.949	25605
825.089	25651
825.228	25609
825.368	25301
825.508	25312
825.648	25297
825.787	25259
825.927	25175
826.067	25362
826.206	25228
826.346	25381
826.485	25457
826.625	25308
826.765	25476
826.904	25400
827.044	25103
827.183	25122
827.323	24962
827.462	25099
827.601	25072
827.741	24901
827.88	25095
828.02	24943
828.159	25046
828.298	25034
828.437	25137
828.577	24909
828.716	25122
828.855	25008
828.994	24692
829.134	24684
829.273	24875
829.412	24654
829.551	24703
829.69	24768
829.829	24627
829.968	24844
830.107	24814
830.246	24760
830.385	24677
830.524	24620
830.663	24620
830.802	24441
830.941	24353
831.08	24433
831.219	24494
831.357	24372
831.496	24475
831.635	24277
831.774	24182
831.913	24129
832.051	24049
832.19	24064
832.329	24060
832.467	24209
832.606	24087
832.744	23859
832.883	24011
833.022	23931
833.16	23923
833.299	24011
833.437	24140
833.576	24159
833.714	24102
833.852	24068
833.991	24178
834.129	24159
834.267	23950
834.406	24057
834.544	24117
834.682	24053
834.821	23996
834.959	24270
835.097	23954
835.235	24163
835.373	23942
835.511	23965
835.65	23885
835.788	23942
835.926	23809
836.064	23733
836.202	23748
836.34	23885
836.478	24057
836.615	23923
836.753	23897
836.891	24030
837.029	23904
837.167	23748
837.305	23893
837.443	23779
837.58	23767
837.718	23794
837.856	23798
837.993	23783
838.131	23779
838.269	23600
838.406	23634
838.544	23695
838.681	23330
838.819	23322
838.956	23216
839.094	23292
839.231	23368
839.369	23425
839.506	23577
839.643	23471
839.781	23372
839.918	23193
840.055	23083
840.193	23178
840.33	23090
840.467	23105
840.604	23204
840.742	23387
840.879	22995
841.016	23044
841.153	23029
841.29	23132
841.427	23140
841.564	23227
841.701	23132
841.838	23181
841.975	22915
842.112	23060
842.249	22896
842.385	22896
842.522	23140
842.659	22968
842.796	22862
842.933	22831
843.069	22896
843.206	22755
843.343	22953
843.479	22869
843.616	22793
843.752	22717
843.889	22702
844.025	22873
844.162	22653
844.298	22778
844.435	22637
844.571	22626
844.708	22713
844.844	22805
844.98	22866
845.117	22820
845.253	22660
845.389	22592
845.525	22554
845.661	22421
845.798	22333
845.934	22557
846.07	22371
846.206	22527
846.342	22478
846.478	22447
846.614	22116
846.75	22070
846.886	22226
847.022	22265
847.158	22226
847.294	22173
847.429	22246
847.565	22185
847.701	22341
847.837	21991
847.972	21736
848.108	22051
848.244	21979
848.379	21728
848.515	21747
848.65	21808
848.786	21789
848.921	21759
849.057	21751
849.192	21850
849.328	21892
849.463	21781
849.598	21713
849.734	21637
849.869	21660
850.004	21458
850.14	21496
850.275	21610
850.41	21351
850.545	21382
850.68	21454
850.815	21450
850.95	21648
851.085	21698
851.22	21652
851.355	21542
851.49	21488
851.625	21397
851.76	21557
851.895	21485
852.03	21538
852.165	21519
852.299	21641
852.434	21618
852.569	21462
852.703	21416
852.838	21587
852.973	21549
853.107	21614
853.242	21386
853.376	21340
853.511	21298
853.645	21306
853.78	21420
853.914	21275
854.048	21260
854.183	21268
854.317	21348
854.451	21370
854.585	21294
854.72	21370
854.854	21424
854.988	21370
855.122	21367
855.256	21157
855.39	21389
855.524	21462
855.658	21386
855.792	21351
855.926	21340
856.06	21401
856.194	21572
856.327	21336
856.461	21325
856.595	21272
856.729	21317
856.862	21412
856.996	21306
857.13	21424
857.263	21348
857.397	21416
857.53	21344
857.664	21420
857.797	21526
857.931	21443
858.064	21408
858.197	21568
858.331	21332
858.464	21302
858.597	21154
858.731	21329
858.864	21329
858.997	21188
859.13	21294
859.263	21256
859.396	21443
859.529	21275
859.662	21275
859.795	21329
859.928	21321
860.061	21431
860.194	21557
860.327	21450
860.46	21249
860.592	21412
860.725	21374
860.858	21553
860.99	21370
861.123	21176
861.256	21252
861.388	21184
861.521	22154
861.653	21135
861.786	21199
861.918	21169
862.05	21169
862.183	21241
862.315	21386
862.447	21321
862.58	21226
862.712	21138
862.844	20941
862.976	21138
863.108	21112
863.24	21458
863.372	20960
863.504	21074
863.636	21184
863.768	21005
863.9	21184
864.032	20960
864.164	21005
864.296	21112
864.428	21089
864.559	21100
864.691	21161
864.823	21157
864.954	20994
865.086	21020
865.217	21009
865.349	20906
865.48	20861
865.612	21096
865.743	21237
865.875	20948
866.006	21047
866.137	20937
866.269	20864
866.4	20944
866.531	20921
866.662	20876
866.793	20861
866.924	20891
867.055	21032
867.186	20845
867.317	20823
867.448	20834
867.579	20925
867.71	20861
867.841	20819
867.972	20944
868.103	20971
868.233	20933
868.364	20956
868.495	20963
868.625	21100
868.756	21317
868.886	21039
869.017	21165
869.147	21161
869.278	21279
869.408	21272
869.539	21241
869.669	21195
869.799	21070
869.929	21291
870.06	21184
870.19	21511
870.32	21298
870.45	21363
870.58	21618
870.71	21572
870.84	21576
870.97	21492
871.1	21568
871.23	21606
871.36	21869
871.489	21690
871.619	21732
871.749	21762
871.879	21812
872.008	21778
872.138	21770
872.267	21808
872.397	21488
872.526	21622
872.656	21553
872.785	21660
872.915	21804
873.044	21838
873.173	21854
873.303	21823
873.432	21797
873.561	21911
873.69	21728
873.819	21698
873.948	21857
874.077	21778
874.206	21739
874.335	21679
874.464	21854
874.593	21922
874.722	21907
874.851	22112
874.979	21979
875.108	22051
875.237	21854
875.365	21865
875.494	22013
875.623	21991
875.751	22010
875.88	22074
876.008	22162
876.136	22276
876.265	22440
876.393	22481
876.521	22379
876.65	22443
876.778	22337
876.906	22211
877.034	22402
877.162	22280
877.29	22276
877.418	22398
877.546	22417
877.674	22405
877.802	22287
877.93	22303
878.058	22413
878.185	22341
878.313	22303
878.441	22154
878.568	22169
878.696	22306
878.824	22329
878.951	22436
879.079	22516
879.206	22797
879.333	22497
879.461	22447
879.588	22398
879.715	22580
879.842	22653
879.97	22462
880.097	22261
880.224	22207
880.351	22173
880.478	22246
880.605	22078
880.732	22230
880.859	22314
880.986	22185
881.112	22204
881.239	21987
881.366	21915
881.493	21972
881.619	21903
881.746	21884
881.872	21652
881.999	21675
882.125	21637
882.252	21785
882.378	21751
882.505	21823
882.631	21694
882.757	21397
882.883	21572
883.01	21447
883.136	21393
883.262	21389
883.388	21268
883.514	21393
883.64	21458
883.766	21321
883.892	21214
884.018	21363
884.143	21287
884.269	21507
884.395	21154
884.52	21089
884.646	21009
884.772	21005
884.897	20986
885.023	21173
885.148	21226
885.274	21252
885.399	21123
885.524	21055
885.65	21100
885.775	21104
885.9	21131
886.025	21165
886.15	21199
886.275	21043
886.4	20975
886.525	21055
886.65	21108
886.775	20956
886.9	21142
887.025	21306
887.149	21070
887.274	20823
887.399	20823
887.523	20845
887.648	20876
887.773	20746
887.897	20933
888.021	20967
888.146	20819
888.27	21020
888.395	20967
888.519	20895
888.643	20815
888.767	20948
888.891	20682
889.015	20514
889.139	20716
889.263	20533
889.387	20731
889.511	20887
889.635	20743
889.759	20514
889.883	20636
890.006	20651
890.13	20727
890.254	20575
890.377	20590
890.501	20396
890.624	20412
890.748	20499
890.871	20233
890.995	20191
891.118	20081
891.241	20176
891.364	20343
891.488	20362
891.611	20240
891.734	20176
891.857	20320
891.98	20115
892.103	20176
892.226	20145
892.349	20176
892.471	20267
892.594	20024
892.717	20050
892.839	20039
892.962	20164
893.085	20202
893.207	20142
893.33	20077
893.452	20027
893.575	20062
893.697	20088
893.819	20332
893.941	20221
894.064	20233
894.186	20035
894.308	20046
894.43	20065
894.552	20199
894.674	20130
894.796	19997
894.918	20024
895.04	20103
895.161	20191
895.283	20168
895.405	20126
895.526	20100
895.648	20088
895.769	20180
895.891	20240
896.012	20134
896.134	20240
896.255	20138
896.376	20115
896.498	20092
896.619	20084
896.74	20092
896.861	20161
896.982	20438
897.103	20659
897.224	20511
897.345	20339
897.466	20400
897.587	20309
897.708	20374
897.828	20370
897.949	20309
898.07	20130
898.19	20290
898.311	20252
898.431	20286
898.552	20374
898.672	20442
898.792	20473
898.913	20408
899.033	20237
899.153	20111
899.273	20122
899.393	20058
899.513	20122
899.633	20046
899.753	20081
899.873	19932
899.993	20218
900.113	20050
900.232	20130
900.352	20001
900.472	19944
900.591	19811
900.711	19898
900.83	19845
900.95	20001
901.069	20001
901.189	19696
901.308	19616
901.427	19445
901.546	19487
901.665	19453
901.784	19468
901.904	19225
902.023	19327
902.141	19038
902.26	19046
902.379	19057
902.498	19114
902.617	18977
902.735	18924
902.854	18848
902.973	18989
903.091	18661
903.21	18597
903.328	18597
903.446	18483
903.565	18486
903.683	18502
903.801	18403
903.919	18418
904.038	18418
904.156	18254
904.274	18251
904.392	18277
904.51	18136
904.627	18159
904.745	18201
904.863	18323
904.981	18007
905.098	17878
905.216	17893
905.334	17855
905.451	17809
905.569	17878
905.686	17920
905.803	17863
905.921	17722
906.038	17809
906.155	17627
906.272	17596
906.389	17699
906.506	17452
906.623	17459
906.74	17448
906.857	17170
906.974	17315
907.091	17512
907.208	17497
907.324	17429
907.441	17143
907.557	17204
907.674	17113
907.79	17094
907.907	17121
908.023	17162
908.139	17200
908.256	17052
908.372	16927
908.488	17052
908.604	16824
908.72	16820
908.836	16881
908.952	16828
909.068	16850
909.184	16957
909.3	16767
909.415	16854
909.531	16904
909.647	16546
909.762	16698
909.878	16523
909.993	16512
910.108	16603
910.224	16474
910.339	16500
910.454	16455
910.57	16367
910.685	16325
910.8	16493
910.915	16493
911.03	16379
911.145	16185
911.259	16162
911.374	16112
911.489	16040
911.604	16013
911.718	15922
911.833	15945
911.947	15755
912.062	15682
912.176	15876
912.291	15899
912.405	15842
912.519	16059
912.633	16177
912.748	15956
912.862	15922
912.976	15728
913.09	15637
913.204	15701
913.318	15781
913.431	15690
913.545	15918
913.659	15736
913.772	15671
913.886	15595
914	15511
914.113	15561
914.226	15641
914.34	15576
914.453	15401
914.566	15519
914.68	15469
914.793	15340
914.906	15176
915.019	15047
915.132	14998
915.245	15108
915.358	15074
915.47	15154
915.583	15097
915.696	15146
915.809	15260
915.921	15165
916.034	15028
916.146	14979
916.259	15081
916.371	15017
916.483	15020
916.595	14921
916.708	14963
916.82	15005
916.932	14937
917.044	14830
917.156	14925
917.268	14826
917.38	14800
917.491	14712
917.603	14811
917.715	14853
917.826	14826
917.938	14754
918.049	14648
918.161	14648
918.272	14807
918.384	14781
918.495	14712
918.606	14610
918.717	14438
918.828	14469
918.939	14594
919.05	14423
919.161	14495
919.272	14374
919.383	14465
919.494	14541
919.604	14659
919.715	14492
919.826	14389
919.936	14530
920.047	14560
920.157	14465
920.267	14765
920.378	14526
920.488	14465
920.598	14689
920.708	14823
920.818	14670
920.928	14613
921.038	14701
921.148	14777
921.258	14503
921.368	14309
921.477	14301
921.587	14214
921.697	14054
921.806	14225
921.916	14008
922.025	13898
922.134	13883
922.244	13917
922.353	13803
922.462	13780
922.571	13681
922.68	13506
922.789	13544
922.898	13563
923.007	13396
923.116	13476
923.224	13438
923.333	13521
923.442	13388
923.55	13282
923.659	13384
923.767	13438
923.876	13346
923.984	13407
924.092	13274
924.201	13240
924.309	13293
924.417	13179
924.525	13110
924.633	13110
924.741	14244
924.849	12993
924.956	13156
925.064	13004
925.172	12848
925.279	12856
925.387	12993
925.494	12989
925.602	13008
925.709	12981
925.816	12844
925.924	12909
926.031	12993
926.138	12909
926.245	12867
926.352	12783
926.459	12977
926.566	12924
926.673	12772
926.779	12662
926.886	12635
926.993	12597
927.099	12433
927.206	12403
927.312	12456
927.419	12570
927.525	12471
927.631	12585
927.737	12365
927.843	12319
927.95	12281
928.056	12391
928.162	12323
928.267	12311
928.373	12901
928.479	12506
928.585	12110
928.69	12251
928.796	12342
928.901	12228
929.007	12083
929.112	12159
929.218	12232
929.323	12136
929.428	12076
929.533	12194
929.638	11904
929.743	12019
929.848	12049
929.953	12022
930.058	11885
930.163	11783
930.267	11802
930.372	11889
930.477	11691
930.581	11920
930.685	11809
930.79	11573
930.894	11596
930.998	11592
931.103	11779
931.207	11417
931.311	11326
931.415	11216
931.519	11086
931.623	10968
