Data from test_V78500241_3034.txt Node
Date: Fri Mar 25 16:02:49 CST 2022
User: usil
Spectrometer: V785-0024
Trigger mode: 0
Integration Time (sec): 4.000000E-1
Scans to average: 1
Nonlinearity correction enabled: false
Boxcar width: 0
Storing dark spectrum: false
XAxis mode: Wavelengths
Number of Pixels in Spectrum: 1024
>>>>>Begin Spectral Data<<<<<
801.071	28809
801.214	28778
801.356	28710
801.499	28398
801.641	28341
801.783	28409
801.926	28447
802.068	28424
802.211	28363
802.353	28417
802.496	28196
802.638	28135
802.78	28139
802.923	28219
803.065	27983
803.208	27994
803.35	28226
803.492	28188
803.635	28421
803.777	28322
803.919	28303
804.061	28637
804.204	28466
804.346	28489
804.488	28306
804.63	28306
804.773	28268
804.915	28291
805.057	28455
805.199	28497
805.341	28462
805.483	28447
805.626	28405
805.768	28466
805.91	28542
806.052	28542
806.194	28569
806.336	28721
806.478	28401
806.62	28634
806.762	28649
806.904	28786
807.046	29105
807.188	28961
807.33	28984
807.472	29155
807.614	28942
807.756	28991
807.898	28892
808.04	28824
808.182	28816
808.324	28869
808.465	28900
808.607	29105
808.749	29296
808.891	29375
809.033	29261
809.174	29299
809.316	29261
809.458	29337
809.6	29303
809.741	29299
809.883	29337
810.025	29657
810.166	29577
810.308	29539
810.45	29486
810.591	29349
810.733	29375
810.875	29197
811.016	29239
811.158	29147
811.299	29429
811.441	29402
811.582	29421
811.724	29121
811.865	29220
812.007	29090
812.148	29288
812.29	29307
812.431	29425
812.573	29623
812.714	29623
812.855	29866
812.997	30003
813.138	30007
813.279	29908
813.421	29832
813.562	29687
813.703	29649
813.845	29379
813.986	29299
814.127	29022
814.268	28949
814.41	28984
814.551	28934
814.692	28976
814.833	28927
814.974	28721
815.115	28942
815.256	28744
815.397	28782
815.539	28919
815.68	28763
815.821	28774
815.962	28790
816.103	28866
816.244	28698
816.385	28546
816.526	28500
816.666	28489
816.807	28375
816.948	28360
817.089	28443
817.23	28344
817.371	28333
817.512	28223
817.653	28211
817.793	28219
817.934	28356
818.075	28371
818.216	28314
818.356	28310
818.497	28090
818.638	28025
818.778	27991
818.919	28116
819.06	28139
819.2	28219
819.341	28272
819.481	28306
819.622	28493
819.762	28592
819.903	28603
820.043	28344
820.184	28428
820.324	28440
820.465	28470
820.605	28527
820.746	28310
820.886	28181
821.026	28421
821.167	28333
821.307	28443
821.447	28341
821.588	28432
821.728	28078
821.868	27937
822.008	27781
822.149	27857
822.289	27774
822.429	27545
822.569	27462
822.709	27496
822.849	27283
822.99	27332
823.13	27397
823.27	27169
823.41	27131
823.55	27096
823.69	27173
823.83	27135
823.97	26960
824.11	26998
824.25	26994
824.389	26815
824.529	26994
824.669	26902
824.809	27017
824.949	26956
825.089	27112
825.228	26925
825.368	26773
825.508	26845
825.648	26876
825.787	26872
825.927	26826
826.067	26804
826.206	26765
826.346	26750
826.485	26895
826.625	26861
826.765	27013
826.904	26914
827.044	26579
827.183	26575
827.323	26552
827.462	26682
827.601	26613
827.741	26503
827.88	26590
828.02	26389
828.159	26446
828.298	26590
828.437	26621
828.577	26503
828.716	26705
828.855	26473
828.994	26218
829.134	26278
829.273	26374
829.412	26183
829.551	26119
829.69	26172
829.829	26240
829.968	26415
830.107	26301
830.246	26313
830.385	26187
830.524	26183
830.663	26008
830.802	25993
830.941	25955
831.08	25875
831.219	25955
831.357	26035
831.496	26134
831.635	25871
831.774	25959
831.913	25795
832.051	25723
832.19	25723
832.329	25776
832.467	25738
832.606	25620
832.744	25552
832.883	25525
833.022	25479
833.16	25506
833.299	25449
833.437	25586
833.576	25483
833.714	25647
833.852	25670
833.991	25609
834.129	25753
834.267	25772
834.406	25548
834.544	25643
834.682	25605
834.821	25738
834.959	25826
835.097	25540
835.235	25632
835.373	25753
835.511	25613
835.65	25453
835.788	25491
835.926	25346
836.064	25251
836.202	25225
836.34	25422
836.478	25609
836.615	25430
836.753	25358
836.891	25479
837.029	25430
837.167	25552
837.305	25384
837.443	25183
837.58	25350
837.718	25327
837.856	25350
837.993	25251
838.131	25270
838.269	25160
838.406	25263
838.544	25103
838.681	24958
838.819	24878
838.956	24589
839.094	24795
839.231	24764
839.369	24875
839.506	25088
839.643	25050
839.781	24692
839.918	24722
840.055	24684
840.193	24669
840.33	24639
840.467	24738
840.604	24730
840.742	24837
840.879	24505
841.016	24582
841.153	24380
841.29	24730
841.427	24585
841.564	24768
841.701	24532
841.838	24563
841.975	24479
842.112	24612
842.249	24483
842.385	24391
842.522	24817
842.659	24559
842.796	24456
842.933	24361
843.069	24258
843.206	24418
843.343	24353
843.479	24357
843.616	24395
843.752	24228
843.889	24308
844.025	24289
844.162	24091
844.298	24232
844.435	24178
844.571	24186
844.708	24213
844.844	24357
844.98	24251
845.117	24327
845.253	24121
845.389	24049
845.525	24129
845.661	24007
845.798	23703
845.934	23935
846.07	23771
846.206	23832
846.342	23908
846.478	23855
846.614	23707
846.75	23665
846.886	23539
847.022	23756
847.158	23691
847.294	23615
847.429	23748
847.565	23714
847.701	23889
847.837	23379
847.972	23452
848.108	23452
848.244	23356
848.379	23185
848.515	23254
848.65	23189
848.786	23098
848.921	23162
849.057	23246
849.192	23311
849.328	23193
849.463	23292
849.598	23197
849.734	23181
849.869	23029
850.004	22938
850.14	22980
850.275	22904
850.41	22965
850.545	22934
850.68	23006
850.815	22877
850.95	22915
851.085	23083
851.22	23083
851.355	22995
851.49	22919
851.625	22915
851.76	22915
851.895	22828
852.03	22881
852.165	22976
852.299	23098
852.434	23124
852.569	22980
852.703	22923
852.838	23052
852.973	23025
853.107	23094
853.242	22923
853.376	22797
853.511	22691
853.645	22713
853.78	22892
853.914	22805
854.048	22816
854.183	22790
854.317	22672
854.451	22923
854.585	22744
854.72	22721
854.854	22858
854.988	22873
855.122	22801
855.256	22759
855.39	22896
855.524	22805
855.658	22801
855.792	22816
855.926	22843
856.06	22873
856.194	22892
856.327	22725
856.461	22877
856.595	22748
856.729	22790
856.862	22801
856.996	22820
857.13	22812
857.263	23003
857.397	22908
857.53	22664
857.664	22896
857.797	22771
857.931	22908
858.064	22755
858.197	22953
858.331	22820
858.464	22740
858.597	22622
858.731	22748
858.864	22675
858.997	22767
859.13	22778
859.263	22763
859.396	22828
859.529	22733
859.662	22755
859.795	22866
859.928	22873
860.061	22919
860.194	22946
860.327	22679
860.46	22793
860.592	22850
860.725	22957
860.858	23052
860.99	22820
861.123	22706
861.256	22797
861.388	22847
861.521	23512
861.653	22736
861.786	22478
861.918	22584
862.05	22622
862.183	22748
862.315	22698
862.447	22866
862.58	22778
862.712	22443
862.844	22459
862.976	22527
863.108	22459
863.24	22797
863.372	22447
863.504	22523
863.636	22519
863.768	22478
863.9	22497
864.032	22432
864.164	22424
864.296	22447
864.428	22508
864.559	22432
864.691	22687
864.823	22447
864.954	22413
865.086	22424
865.217	22424
865.349	22344
865.48	22375
865.612	22443
865.743	22443
865.875	22462
866.006	22325
866.137	22386
866.269	22367
866.4	22348
866.531	22177
866.662	22287
866.793	22276
866.924	22375
867.055	22325
867.186	22390
867.317	22181
867.448	22192
867.579	22333
867.71	22185
867.841	22249
867.972	22215
868.103	22268
868.233	22344
868.364	22268
868.495	22424
868.625	22470
868.756	22698
868.886	22550
869.017	22557
869.147	22687
869.278	22752
869.408	22554
869.539	22607
869.669	22588
869.799	22535
869.929	22675
870.06	22607
870.19	22759
870.32	22858
870.45	22805
870.58	22957
870.71	22995
870.84	23037
870.97	22995
871.1	22930
871.23	22972
871.36	23044
871.489	23079
871.619	22976
871.749	23067
871.879	23208
872.008	23189
872.138	23326
872.267	23132
872.397	23037
872.526	23033
872.656	22927
872.785	22919
872.915	23216
873.044	23273
873.173	23197
873.303	23185
873.432	23151
873.561	23296
873.69	23102
873.819	23140
873.948	23250
874.077	23265
874.206	23044
874.335	22953
874.464	23261
874.593	23364
874.722	23448
874.851	23315
874.979	23334
875.108	23414
875.237	23341
875.365	23288
875.494	23474
875.623	23417
875.751	23284
875.88	23383
876.008	23520
876.136	23463
876.265	23756
876.393	23859
876.521	23874
876.65	23824
876.778	23707
876.906	23687
877.034	23687
877.162	23756
877.29	23661
877.418	23649
877.546	23680
877.674	23733
877.802	23733
877.93	23661
878.058	23619
878.185	23570
878.313	23581
878.441	23714
878.568	23463
878.696	23623
878.824	23729
878.951	23840
879.079	23897
879.206	23866
879.333	23802
879.461	23668
879.588	23897
879.715	23798
879.842	23901
879.97	23775
880.097	23653
880.224	23558
880.351	23528
880.478	23543
880.605	23395
880.732	23497
880.859	23786
880.986	23608
881.112	23539
881.239	23368
881.366	23318
881.493	23155
881.619	23121
881.746	23113
881.872	23075
881.999	23159
882.125	22915
882.252	23094
882.378	23033
882.505	23185
882.631	22839
882.757	22637
882.883	22869
883.01	22877
883.136	22698
883.262	22626
883.388	22584
883.514	22763
883.64	22744
883.766	22634
883.892	22402
884.018	22497
884.143	22721
884.269	22683
884.395	22489
884.52	22234
884.646	22379
884.772	22329
884.897	22291
885.023	22363
885.148	22489
885.274	22580
885.399	22428
885.524	22295
885.65	22542
885.775	22348
885.9	22356
886.025	22531
886.15	22451
886.275	22329
886.4	22322
886.525	22306
886.65	22181
886.775	22325
886.9	22360
887.025	22550
887.149	22356
887.274	22306
887.399	22226
887.523	22154
887.648	22029
887.773	21983
887.897	22181
888.021	22207
888.146	22017
888.27	22223
888.395	22074
888.519	22204
888.643	22101
888.767	22192
888.891	21972
889.015	21918
889.139	22055
889.263	21941
889.387	22067
889.511	22147
889.635	22093
889.759	21907
889.883	21987
890.006	21937
890.13	21915
890.254	21892
890.377	21835
890.501	21633
890.624	21606
890.748	21709
890.871	21644
890.995	21348
891.118	21439
891.241	21435
891.364	21481
891.488	21648
891.611	21591
891.734	21519
891.857	21469
891.98	21439
892.103	21439
892.226	21355
892.349	21317
892.471	21241
892.594	21348
892.717	21367
892.839	21367
892.962	21249
893.085	21393
893.207	21370
893.33	21245
893.452	21233
893.575	21443
893.697	21298
893.819	21443
893.941	21656
894.064	21405
894.186	21226
894.308	21214
894.43	21332
894.552	21511
894.674	21386
894.796	21249
894.918	21252
895.04	21306
895.161	21363
895.283	21389
895.405	21275
895.526	21260
895.648	21268
895.769	21363
895.891	21431
896.012	21408
896.134	21370
896.255	21291
896.376	21176
896.498	21287
896.619	21435
896.74	21291
896.861	21367
896.982	21644
897.103	21736
897.224	21534
897.345	21496
897.466	21458
897.587	21633
897.708	21717
897.828	21561
897.949	21473
898.07	21344
898.19	21454
898.311	21599
898.431	21526
898.552	21450
898.672	21530
898.792	21469
898.913	21477
899.033	21435
899.153	21222
899.273	21195
899.393	21230
899.513	21291
899.633	21218
899.753	21260
899.873	21108
899.993	21291
900.113	21154
900.232	21192
900.352	21104
900.472	21131
900.591	20990
900.711	21009
900.83	20933
900.95	21013
901.069	20925
901.189	20914
901.308	20587
901.427	20488
901.546	20541
901.665	20716
901.784	20575
901.904	20370
902.023	20400
902.141	20153
902.26	20138
902.379	20092
902.498	20024
902.617	20035
902.735	20134
902.854	19997
902.973	19875
903.091	19776
903.21	19791
903.328	19719
903.446	19609
903.565	19499
903.683	19620
903.801	19457
903.919	19476
904.038	19445
904.156	19331
904.274	19339
904.392	19301
904.51	19225
904.627	19263
904.745	19407
904.863	19274
904.981	19148
905.098	18894
905.216	18886
905.334	19088
905.451	19095
905.569	19000
905.686	18935
905.803	18924
905.921	18810
906.038	18833
906.155	18878
906.272	18681
906.389	18646
906.506	18414
906.623	18608
906.74	18464
906.857	18391
906.974	18464
907.091	18540
907.208	18521
907.324	18372
907.441	18300
907.557	18228
907.674	18247
907.79	18140
907.907	18232
908.023	18220
908.139	18205
908.256	18007
908.372	18034
908.488	18064
908.604	18022
908.72	17904
908.836	17988
908.952	17942
909.068	18007
909.184	18098
909.3	17840
909.415	17923
909.531	17942
909.647	17562
909.762	17623
909.878	17497
909.993	17646
910.108	17619
910.224	17589
910.339	17600
910.454	17528
910.57	17387
910.685	17311
910.8	17604
910.915	17524
911.03	17364
911.145	17254
911.259	17109
911.374	17178
911.489	17151
911.604	17079
911.718	16946
911.833	16995
911.947	16889
912.062	16805
912.176	16885
912.291	16934
912.405	16919
912.519	17121
912.633	17067
912.748	16908
912.862	16915
912.976	16786
913.09	16637
913.204	16736
913.318	16774
913.431	16824
913.545	16752
913.659	16900
913.772	16592
913.886	16645
914	16558
914.113	16527
914.226	16672
914.34	16512
914.453	16367
914.566	16531
914.68	16398
914.793	16398
914.906	16196
915.019	16101
915.132	16048
915.245	16143
915.358	16078
915.47	16139
915.583	16048
915.696	16063
915.809	16086
915.921	16287
916.034	16097
916.146	15968
916.259	15991
916.371	16051
916.483	16051
916.595	15861
916.708	15960
916.82	15975
916.932	15960
917.044	15812
917.156	15846
917.268	15728
917.38	15682
917.491	15717
917.603	15690
917.715	15759
917.826	15831
917.938	15545
918.049	15584
918.161	15618
918.272	15728
918.384	15736
918.495	15682
918.606	15504
918.717	15496
918.828	15439
918.939	15580
919.05	15378
919.161	15443
919.272	15192
919.383	15294
919.494	15549
919.604	15515
919.715	15477
919.826	15313
919.936	15386
920.047	15397
920.157	15443
920.267	15545
920.378	15443
920.488	15351
920.598	15542
920.708	15686
920.818	15553
920.928	15454
921.038	15679
921.148	15648
921.258	15313
921.368	15192
921.477	15131
921.587	15089
921.697	15104
921.806	15184
921.916	15036
922.025	14785
922.134	14849
922.244	14689
922.353	14838
922.462	14575
922.571	14564
922.68	14362
922.789	14400
922.898	14347
923.007	14294
923.116	14362
923.224	14404
923.333	14267
923.442	14180
923.55	14191
923.659	14248
923.767	14138
923.876	14202
923.984	14073
924.092	14081
924.201	14107
924.309	14130
924.417	14046
924.525	14119
924.633	14050
924.741	14746
924.849	13879
924.956	13890
925.064	13856
925.172	13772
925.279	13750
925.387	13727
925.494	13791
925.602	13826
925.709	13769
925.816	13647
925.924	13757
926.031	13719
926.138	13715
926.245	13772
926.352	13548
926.459	13746
926.566	13708
926.673	13586
926.779	13460
926.886	13476
926.993	13270
927.099	13301
927.206	13251
927.312	13236
927.419	13251
927.525	13221
927.631	13339
927.737	13236
927.843	13156
927.95	13065
928.056	13156
928.162	13095
928.267	13095
928.373	13727
928.479	13171
928.585	12928
928.69	12989
928.796	12985
928.901	12890
929.007	12859
929.112	12863
929.218	12814
929.323	12859
929.428	12768
929.533	12913
929.638	12722
929.743	12662
929.848	12817
929.953	12722
930.058	12620
930.163	12380
930.267	12414
930.372	12662
930.477	12498
930.581	12623
930.685	12437
930.79	12251
930.894	12315
930.998	12334
931.103	12536
931.207	12030
931.311	11984
931.415	11977
931.519	11699
931.623	11710
