Data from test_V78500241_192.txt Node
Date: Fri Mar 25 15:43:07 CST 2022
User: usil
Spectrometer: V785-0024
Trigger mode: 0
Integration Time (sec): 4.000000E-1
Scans to average: 1
Nonlinearity correction enabled: false
Boxcar width: 0
Storing dark spectrum: false
XAxis mode: Wavelengths
Number of Pixels in Spectrum: 1024
>>>>>Begin Spectral Data<<<<<
801.071	29699
801.214	29672
801.356	29516
801.499	29482
801.641	29147
801.783	29258
801.926	29341
802.068	29181
802.211	29239
802.353	29242
802.496	28892
802.638	29025
802.78	28927
802.923	28862
803.065	28733
803.208	28911
803.35	28888
803.492	29010
803.635	28965
803.777	29041
803.919	29075
804.061	29258
804.204	29128
804.346	29022
804.488	28949
804.63	28919
804.773	28809
804.915	28862
805.057	28946
805.199	28961
805.341	29185
805.483	29185
805.626	29132
805.768	29083
805.91	29098
806.052	29242
806.194	29086
806.336	29353
806.478	29261
806.62	29181
806.762	29208
806.904	29452
807.046	29539
807.188	29474
807.33	29467
807.472	29570
807.614	29410
807.756	29429
807.898	29402
808.04	29379
808.182	29284
808.324	29372
808.465	29391
808.607	29543
808.749	29486
808.891	29893
809.033	29783
809.174	29843
809.316	29699
809.458	29767
809.6	29573
809.741	29779
809.883	29889
810.025	29942
810.166	29912
810.308	29882
810.45	29828
810.591	29813
810.733	29828
810.875	29722
811.016	29687
811.158	29592
811.299	29745
811.441	29805
811.582	29828
811.724	29619
811.865	29619
812.007	29467
812.148	29726
812.29	29600
812.431	29821
812.573	29862
812.714	29965
812.855	30136
812.997	30228
813.138	30384
813.279	30144
813.421	30205
813.562	30148
813.703	29931
813.845	29870
813.986	29551
814.127	29330
814.268	29307
814.41	29242
814.551	29124
814.692	29235
814.833	29086
814.974	29242
815.115	29170
815.256	29223
815.397	29155
815.539	29162
815.68	28850
815.821	28991
815.962	29075
816.103	29029
816.244	28858
816.385	28812
816.526	28816
816.666	28622
816.807	28440
816.948	28569
817.089	28504
817.23	28459
817.371	28424
817.512	28405
817.653	28443
817.793	28303
817.934	28500
818.075	28474
818.216	28379
818.356	28322
818.497	28207
818.638	28070
818.778	28074
818.919	28116
819.06	28242
819.2	28265
819.341	28333
819.481	28348
819.622	28478
819.762	28744
819.903	28569
820.043	28440
820.184	28565
820.324	28459
820.465	28599
820.605	28542
820.746	28455
820.886	28310
821.026	28645
821.167	28428
821.307	28557
821.447	28447
821.588	28276
821.728	28120
821.868	28021
822.008	27823
822.149	27755
822.289	27785
822.429	27564
822.569	27401
822.709	27363
822.849	27382
822.99	27237
823.13	27306
823.27	27245
823.41	27028
823.55	27009
823.69	27214
823.83	27043
823.97	27028
824.11	26804
824.25	26811
824.389	26842
824.529	26887
824.669	26921
824.809	26986
824.949	26998
825.089	26971
825.228	26868
825.368	26750
825.508	26739
825.648	26800
825.787	26712
825.927	26743
826.067	26575
826.206	26735
826.346	26712
826.485	26674
826.625	26705
826.765	26788
826.904	26625
827.044	26541
827.183	26313
827.323	26362
827.462	26415
827.601	26374
827.741	26324
827.88	26377
828.02	26206
828.159	26317
828.298	26183
828.437	26343
828.577	26248
828.716	26400
828.855	26347
828.994	26092
829.134	26084
829.273	26149
829.412	25814
829.551	26039
829.69	25940
829.829	26065
829.968	25989
830.107	26100
830.246	26016
830.385	25856
830.524	25753
830.663	25799
830.802	25670
830.941	25613
831.08	25586
831.219	25594
831.357	25518
831.496	25761
831.635	25582
831.774	25343
831.913	25540
832.051	25346
832.19	25335
832.329	25259
832.467	25331
832.606	25183
832.744	25190
832.883	25263
833.022	25148
833.16	25088
833.299	25232
833.437	25152
833.576	25251
833.714	25259
833.852	25152
833.991	25217
834.129	25209
834.267	25266
834.406	25175
834.544	25304
834.682	25183
834.821	25118
834.959	25453
835.097	25103
835.235	25217
835.373	25091
835.511	25072
835.65	24954
835.788	25061
835.926	24943
836.064	24829
836.202	24875
836.34	25012
836.478	25088
836.615	24916
836.753	25103
836.891	25118
837.029	24935
837.167	24989
837.305	24844
837.443	24837
837.58	24665
837.718	24989
837.856	24825
837.993	24745
838.131	24795
838.269	24658
838.406	24738
838.544	24536
838.681	24513
838.819	24437
838.956	24251
839.094	24262
839.231	24262
839.369	24376
839.506	24544
839.643	24479
839.781	24270
839.918	24155
840.055	24148
840.193	24140
840.33	24068
840.467	24148
840.604	24201
840.742	24578
840.879	24083
841.016	24117
841.153	24064
841.29	24136
841.427	24087
841.564	24053
841.701	24159
841.838	24117
841.975	24072
842.112	24136
842.249	23999
842.385	23794
842.522	24034
842.659	23931
842.796	23882
842.933	23798
843.069	23680
843.206	23649
843.343	23817
843.479	23783
843.616	23699
843.752	23482
843.889	23535
844.025	23786
844.162	23592
844.298	23668
844.435	23551
844.571	23509
844.708	23539
844.844	23520
844.98	23680
845.117	23608
845.253	23505
845.389	23429
845.525	23364
845.661	23356
845.798	23292
845.934	23197
846.07	23341
846.206	23296
846.342	23402
846.478	23269
846.614	22949
846.75	22938
846.886	22934
847.022	23003
847.158	23067
847.294	22953
847.429	22953
847.565	22900
847.701	23223
847.837	22683
847.972	22744
848.108	22809
848.244	22759
848.379	22645
848.515	22527
848.65	22470
848.786	22516
848.921	22538
849.057	22668
849.192	22592
849.328	22683
849.463	22497
849.598	22519
849.734	22550
849.869	22481
850.004	22272
850.14	22386
850.275	22261
850.41	22223
850.545	22207
850.68	22204
850.815	22329
850.95	22211
851.085	22485
851.22	22265
851.355	22303
851.49	22177
851.625	22185
851.76	22078
851.895	22143
852.03	22090
852.165	22249
852.299	22238
852.434	22215
852.569	22226
852.703	22230
852.838	22337
852.973	22341
853.107	22318
853.242	22166
853.376	22112
853.511	21899
853.645	22147
853.78	22124
853.914	22090
854.048	22131
854.183	21998
854.317	21895
854.451	22131
854.585	22029
854.72	22093
854.854	22067
854.988	22002
855.122	22086
855.256	21884
855.39	22070
855.524	22105
855.658	22055
855.792	22051
855.926	21960
856.06	22105
856.194	22101
856.327	21979
856.461	21930
856.595	21994
856.729	21956
856.862	22131
856.996	22055
857.13	22101
857.263	22070
857.397	22086
857.53	22002
857.664	21960
857.797	22097
857.931	22147
858.064	21968
858.197	22074
858.331	21892
858.464	21907
858.597	21911
858.731	21934
858.864	21861
858.997	21941
859.13	21960
859.263	22013
859.396	21994
859.529	21918
859.662	21918
859.795	21884
859.928	21892
860.061	22078
860.194	22143
860.327	22032
860.46	21964
860.592	22055
860.725	21998
860.858	22055
860.99	21941
861.123	21949
861.256	21869
861.388	22101
861.521	22717
861.653	21774
861.786	21599
861.918	21903
862.05	21956
862.183	21960
862.315	21960
862.447	21991
862.58	22025
862.712	21694
862.844	21690
862.976	21762
863.108	21610
863.24	21915
863.372	21568
863.504	21705
863.636	21553
863.768	21766
863.9	21675
864.032	21614
864.164	21759
864.296	21629
864.428	21679
864.559	21644
864.691	21690
864.823	21705
864.954	21701
865.086	21656
865.217	21656
865.349	21374
865.48	21485
865.612	21542
865.743	21701
865.875	21507
866.006	21580
866.137	21545
866.269	21526
866.4	21610
866.531	21462
866.662	21424
866.793	21408
866.924	21431
867.055	21435
867.186	21549
867.317	21367
867.448	21310
867.579	21420
867.71	21424
867.841	21382
867.972	21408
868.103	21507
868.233	21576
868.364	21450
868.495	21519
868.625	21679
868.756	21641
868.886	21595
869.017	21549
869.147	21789
869.278	21842
869.408	21709
869.539	21610
869.669	21816
869.799	21679
869.929	21789
870.06	21762
870.19	21808
870.32	21991
870.45	22044
870.58	22051
870.71	22086
870.84	22166
870.97	22097
871.1	22074
871.23	22143
871.36	22299
871.489	22139
871.619	22185
871.749	22325
871.879	22207
872.008	22356
872.138	22238
872.267	22177
872.397	22196
872.526	22010
872.656	22032
872.785	22090
872.915	22276
873.044	22310
873.173	22242
873.303	22211
873.432	22268
873.561	22390
873.69	22390
873.819	22253
873.948	22428
874.077	22303
874.206	22215
874.335	22261
874.464	22409
874.593	22424
874.722	22390
874.851	22489
874.979	22538
875.108	22584
875.237	22470
875.365	22329
875.494	22405
875.623	22599
875.751	22390
875.88	22622
876.008	22634
876.136	22790
876.265	23029
876.393	23033
876.521	22942
876.65	22972
876.778	22976
876.906	22904
877.034	22843
877.162	22927
877.29	22774
877.418	22908
877.546	22949
877.674	22809
877.802	22725
877.93	22889
878.058	22736
878.185	22850
878.313	22889
878.441	22862
878.568	22668
878.696	22869
878.824	22778
878.951	22877
879.079	23052
879.206	23140
879.333	22965
879.461	22885
879.588	22858
879.715	23105
879.842	23098
879.97	22938
880.097	22565
880.224	22611
880.351	22675
880.478	22630
880.605	22687
880.732	22725
880.859	22911
880.986	22710
881.112	22641
881.239	22660
881.366	22333
881.493	22310
881.619	22261
881.746	22291
881.872	22356
881.999	22246
882.125	22177
882.252	22356
882.378	22238
882.505	22375
882.631	22128
882.757	21964
882.883	22036
883.01	21964
883.136	21941
883.262	21865
883.388	21876
883.514	22017
883.64	21972
883.766	21816
883.892	21736
884.018	21797
884.143	21892
884.269	21953
884.395	21739
884.52	21500
884.646	21667
884.772	21473
884.897	21428
885.023	21549
885.148	21583
885.274	21648
885.399	21633
885.524	21507
885.65	21568
885.775	21454
885.9	21561
886.025	21656
886.15	21682
886.275	21648
886.4	21431
886.525	21572
886.65	21504
886.775	21485
886.9	21606
887.025	21759
887.149	21637
887.274	21306
887.399	21310
887.523	21344
887.648	21291
887.773	21142
887.897	21268
888.021	21329
888.146	21245
888.27	21412
888.395	21378
888.519	21389
888.643	21370
888.767	21408
888.891	21169
889.015	21184
889.139	21188
889.263	21028
889.387	21283
889.511	21302
889.635	21283
889.759	21051
889.883	21154
890.006	21062
890.13	21192
890.254	20994
890.377	21009
890.501	20811
890.624	20762
890.748	21005
890.871	20693
890.995	20590
891.118	20590
891.241	20689
891.364	20655
891.488	20781
891.611	20579
891.734	20743
891.857	20693
891.98	20693
892.103	20674
892.226	20560
892.349	20530
892.471	20450
892.594	20629
892.717	20625
892.839	20473
892.962	20693
893.085	20659
893.207	20598
893.33	20434
893.452	20473
893.575	20526
893.697	20454
893.819	20678
893.941	20720
894.064	20583
894.186	20446
894.308	20412
894.43	20629
894.552	20625
894.674	20659
894.796	20469
894.918	20571
895.04	20667
895.161	20602
895.283	20518
895.405	20518
895.526	20488
895.648	20560
895.769	20571
895.891	20598
896.012	20678
896.134	20697
896.255	20625
896.376	20450
896.498	20530
896.619	20545
896.74	20625
896.861	20724
896.982	20819
897.103	21001
897.224	21036
897.345	20883
897.466	20712
897.587	20773
897.708	20857
897.828	20906
897.949	20644
898.07	20587
898.19	20606
898.311	20819
898.431	20781
898.552	20670
898.672	20929
898.792	20887
898.913	20746
899.033	20667
899.153	20537
899.273	20408
899.393	20355
899.513	20457
899.633	20469
899.753	20457
899.873	20358
899.993	20355
900.113	20389
900.232	20408
900.352	20438
900.472	20233
900.591	20161
900.711	20191
900.83	20214
900.95	20328
901.069	20427
901.189	20157
901.308	19986
901.427	19841
901.546	19860
901.665	19845
901.784	19734
901.904	19685
902.023	19647
902.141	19396
902.26	19259
902.379	19422
902.498	19400
902.617	19312
902.735	19377
902.854	19266
902.973	19145
903.091	18947
903.21	18909
903.328	18920
903.446	18856
903.565	18661
903.683	18791
903.801	18631
903.919	18802
904.038	18627
904.156	18475
904.274	18661
904.392	18502
904.51	18471
904.627	18452
904.745	18574
904.863	18570
904.981	18273
905.098	18197
905.216	18182
905.334	18266
905.451	18133
905.569	18064
905.686	18102
905.803	18205
905.921	17992
906.038	18041
906.155	18022
906.272	17973
906.389	17836
906.506	17729
906.623	17741
906.74	17642
906.857	17535
906.974	17623
907.091	17786
907.208	17817
907.324	17634
907.441	17471
907.557	17433
907.674	17440
907.79	17311
907.907	17379
908.023	17372
908.139	17425
908.256	17280
908.372	17174
908.488	17178
908.604	17151
908.72	17052
908.836	17113
908.952	17075
909.068	17124
909.184	17121
909.3	17045
909.415	17064
909.531	17079
909.647	16843
909.762	16721
909.878	16759
909.993	16812
910.108	16710
910.224	16672
910.339	16653
910.454	16626
910.57	16577
910.685	16375
910.8	16729
910.915	16691
911.03	16577
911.145	16443
911.259	16314
911.374	16356
911.489	16276
911.604	16128
911.718	16017
911.833	16067
911.947	15964
912.062	15926
912.176	16101
912.291	16177
912.405	16112
912.519	16303
912.633	16261
912.748	16120
912.862	15945
912.976	15934
913.09	15819
913.204	15899
913.318	15911
913.431	15953
913.545	15983
913.659	15987
913.772	15816
913.886	15751
914	15701
914.113	15774
914.226	15785
914.34	15781
914.453	15557
914.566	15713
914.68	15557
914.793	15458
914.906	15386
915.019	15245
915.132	15142
915.245	15226
915.358	15294
915.47	15329
915.583	15283
915.696	15245
915.809	15344
915.921	15340
916.034	15173
916.146	15188
916.259	15081
916.371	15249
916.483	15272
916.595	15123
916.708	15051
916.82	15119
916.932	15017
917.044	15039
917.156	14982
917.268	14979
917.38	14986
917.491	14849
917.603	14925
917.715	15127
917.826	15024
917.938	14887
918.049	14762
918.161	14918
918.272	15013
918.384	14979
918.495	14895
918.606	14712
918.717	14610
918.828	14731
918.939	14693
919.05	14621
919.161	14587
919.272	14450
919.383	14469
919.494	14648
919.604	14842
919.715	14648
919.826	14389
919.936	14667
920.047	14693
920.157	14568
920.267	14788
920.378	14644
920.488	14514
920.598	14842
920.708	14876
920.818	14697
920.928	14724
921.038	14826
921.148	14891
921.258	14564
921.368	14454
921.477	14343
921.587	14358
921.697	14233
921.806	14362
921.916	14180
922.025	13986
922.134	13993
922.244	13803
922.353	14027
922.462	13818
922.571	13700
922.68	13636
922.789	13529
922.898	13556
923.007	13567
923.116	13624
923.224	13518
923.333	13510
923.442	13460
923.55	13373
923.659	13480
923.767	13483
923.876	13422
923.984	13419
924.092	13381
924.201	13335
924.309	13384
924.417	13373
924.525	13255
924.633	13320
924.741	14054
924.849	13107
924.956	13209
925.064	13110
925.172	12916
925.279	13099
925.387	13122
925.494	13080
925.602	13129
925.709	13114
925.816	12909
925.924	13027
926.031	13046
926.138	13050
926.245	12981
926.352	13004
926.459	12970
926.566	13050
926.673	12981
926.779	12844
926.886	12833
926.993	12753
927.099	12623
927.206	12509
927.312	12540
927.419	12604
927.525	12631
927.631	12620
927.737	12486
927.843	12426
927.95	12319
928.056	12475
928.162	12399
928.267	12441
928.373	13137
928.479	12513
928.585	12323
928.69	12350
928.796	12365
928.901	12247
929.007	12034
929.112	12285
929.218	12262
929.323	12216
929.428	12155
929.533	12277
929.638	12053
929.743	12106
929.848	12106
929.953	12057
930.058	11927
930.163	11809
930.267	11840
930.372	12007
930.477	11718
930.581	12041
930.685	11851
930.79	11726
930.894	11771
930.998	11684
931.103	11832
931.207	11474
931.311	11440
931.415	11277
931.519	11018
931.623	10995
