Data from test_V78500241_3309.txt Node
Date: Fri Mar 25 16:04:43 CST 2022
User: usil
Spectrometer: V785-0024
Trigger mode: 0
Integration Time (sec): 4.000000E-1
Scans to average: 1
Nonlinearity correction enabled: false
Boxcar width: 0
Storing dark spectrum: false
XAxis mode: Wavelengths
Number of Pixels in Spectrum: 1024
>>>>>Begin Spectral Data<<<<<
801.071	28934
801.214	28759
801.356	28436
801.499	28508
801.641	28329
801.783	28470
801.926	28424
802.068	28268
802.211	28421
802.353	28242
802.496	28162
802.638	27979
802.78	28059
802.923	27899
803.065	27975
803.208	27945
803.35	28002
803.492	28086
803.635	28344
803.777	28154
803.919	28333
804.061	28702
804.204	28459
804.346	28143
804.488	28268
804.63	28257
804.773	28078
804.915	28333
805.057	28303
805.199	28234
805.341	28386
805.483	28459
805.626	28310
805.768	28363
805.91	28405
806.052	28512
806.194	28261
806.336	28527
806.478	28527
806.62	28466
806.762	28653
806.904	28828
807.046	28949
807.188	28896
807.33	28869
807.472	28984
807.614	28805
807.756	28824
807.898	28717
808.04	28599
808.182	28736
808.324	28809
808.465	28774
808.607	28869
808.749	29083
808.891	29242
809.033	29155
809.174	29242
809.316	29124
809.458	29056
809.6	29029
809.741	29269
809.883	29318
810.025	29482
810.166	29410
810.308	29311
810.45	29341
810.591	29345
810.733	29220
810.875	29159
811.016	29147
811.158	29174
811.299	29326
811.441	29330
811.582	29250
811.724	29185
811.865	29235
812.007	29246
812.148	29193
812.29	29223
812.431	29349
812.573	29539
812.714	29467
812.855	29741
812.997	29847
813.138	30064
813.279	29775
813.421	29619
813.562	29642
813.703	29604
813.845	29429
813.986	29181
814.127	28957
814.268	28919
814.41	28972
814.551	28793
814.692	28904
814.833	28698
814.974	28927
815.115	28843
815.256	28831
815.397	28725
815.539	28843
815.68	28721
815.821	28596
815.962	28664
816.103	28710
816.244	28508
816.385	28455
816.526	28470
816.666	28246
816.807	28082
816.948	28261
817.089	28375
817.23	28318
817.371	28284
817.512	28185
817.653	28139
817.793	28169
817.934	28059
818.075	28070
818.216	28200
818.356	28143
818.497	28067
818.638	27892
818.778	27762
818.919	27949
819.06	27926
819.2	28082
819.341	28341
819.481	28120
819.622	28295
819.762	28443
819.903	28436
820.043	28409
820.184	28284
820.324	28333
820.465	28455
820.605	28417
820.746	28341
820.886	28139
821.026	28303
821.167	28284
821.307	28360
821.447	28116
821.588	28120
821.728	27987
821.868	27892
822.008	27671
822.149	27747
822.289	27701
822.429	27325
822.569	27336
822.709	27435
822.849	27173
822.99	27081
823.13	27077
823.27	27028
823.41	26880
823.55	27131
823.69	26918
823.83	27043
823.97	26910
824.11	26895
824.25	26727
824.389	26720
824.529	26880
824.669	26842
824.809	27020
824.949	26986
825.089	26826
825.228	26849
825.368	26769
825.508	26807
825.648	26727
825.787	26701
825.927	26811
826.067	26712
826.206	26686
826.346	26674
826.485	26682
826.625	26708
826.765	26785
826.904	26743
827.044	26537
827.183	26469
827.323	26480
827.462	26374
827.601	26583
827.741	26507
827.88	26480
828.02	26214
828.159	26446
828.298	26362
828.437	26457
828.577	26377
828.716	26545
828.855	26328
828.994	26199
829.134	26096
829.273	26191
829.412	26111
829.551	25986
829.69	26142
829.829	26043
829.968	26320
830.107	26248
830.246	25993
830.385	25989
830.524	26054
830.663	25913
830.802	25875
830.941	25814
831.08	25616
831.219	25757
831.357	25818
831.496	25947
831.635	25849
831.774	25632
831.913	25613
832.051	25575
832.19	25556
832.329	25514
832.467	25327
832.606	25407
832.744	25354
832.883	25392
833.022	25403
833.16	25373
833.299	25449
833.437	25415
833.576	25449
833.714	25441
833.852	25457
833.991	25468
834.129	25597
834.267	25540
834.406	25453
834.544	25449
834.682	25434
834.821	25453
834.959	25628
835.097	25308
835.235	25419
835.373	25430
835.511	25502
835.65	25445
835.788	25259
835.926	25129
836.064	25031
836.202	25080
836.34	25297
836.478	25354
836.615	25354
836.753	25324
836.891	25350
837.029	25430
837.167	25301
837.305	25168
837.443	25118
837.58	25213
837.718	25217
837.856	25088
837.993	24992
838.131	25168
838.269	25057
838.406	25053
838.544	24985
838.681	24654
838.819	24779
838.956	24604
839.094	24570
839.231	24825
839.369	24829
839.506	24871
839.643	24867
839.781	24692
839.918	24460
840.055	24623
840.193	24669
840.33	24448
840.467	24422
840.604	24707
840.742	24745
840.879	24262
841.016	24475
841.153	24372
841.29	24570
841.427	24467
841.564	24483
841.701	24338
841.838	24426
841.975	24429
842.112	24369
842.249	24330
842.385	24254
842.522	24380
842.659	24330
842.796	24273
842.933	24235
843.069	24224
843.206	24220
843.343	24300
843.479	24254
843.616	24323
843.752	23950
843.889	23992
844.025	24182
844.162	23961
844.298	24174
844.435	24011
844.571	23950
844.708	23999
844.844	24136
844.98	24133
845.117	24110
845.253	23912
845.389	23950
845.525	23931
845.661	23798
845.798	23821
845.934	23832
846.07	23756
846.206	23741
846.342	23885
846.478	23649
846.614	23516
846.75	23425
846.886	23448
847.022	23524
847.158	23482
847.294	23395
847.429	23649
847.565	23326
847.701	23649
847.837	23265
847.972	23227
848.108	23231
848.244	23170
848.379	22972
848.515	23143
848.65	23044
848.786	23025
848.921	23018
849.057	23083
849.192	23170
849.328	23166
849.463	22980
849.598	23056
849.734	23006
849.869	22915
850.004	22824
850.14	22934
850.275	22850
850.41	22755
850.545	22706
850.68	22820
850.815	22805
850.95	22771
851.085	23033
851.22	22919
851.355	22786
851.49	22809
851.625	22824
851.76	22717
851.895	22771
852.03	22881
852.165	22812
852.299	22771
852.434	22820
852.569	22835
852.703	22854
852.838	22881
852.973	22862
853.107	22854
853.242	22774
853.376	22656
853.511	22531
853.645	22630
853.78	22660
853.914	22687
854.048	22634
854.183	22573
854.317	22763
854.451	22919
854.585	22607
854.72	22698
854.854	22828
854.988	22577
855.122	22778
855.256	22580
855.39	22577
855.524	22656
855.658	22725
855.792	22729
855.926	22489
856.06	22687
856.194	22748
856.327	22546
856.461	22561
856.595	22599
856.729	22634
856.862	22710
856.996	22645
857.13	22763
857.263	22691
857.397	22634
857.53	22584
857.664	22694
857.797	22721
857.931	22710
858.064	22672
858.197	22736
858.331	22626
858.464	22687
858.597	22592
858.731	22656
858.864	22717
858.997	22478
859.13	22569
859.263	22710
859.396	22740
859.529	22599
859.662	22634
859.795	22531
859.928	22721
860.061	22710
860.194	22790
860.327	22637
860.46	22683
860.592	22831
860.725	22801
860.858	22759
860.99	22603
861.123	22596
861.256	22504
861.388	22588
861.521	23280
861.653	22413
861.786	22417
861.918	22489
862.05	22470
862.183	22516
862.315	22565
862.447	22710
862.58	22538
862.712	22287
862.844	22314
862.976	22447
863.108	22390
863.24	22706
863.372	22306
863.504	22367
863.636	22455
863.768	22432
863.9	22371
864.032	22272
864.164	22276
864.296	22421
864.428	22436
864.559	22424
864.691	22341
864.823	22352
864.954	22284
865.086	22280
865.217	22192
865.349	22234
865.48	22196
865.612	22284
865.743	22318
865.875	22169
866.006	22188
866.137	22166
866.269	22200
866.4	22109
866.531	22253
866.662	22169
866.793	22192
866.924	22204
867.055	22265
867.186	22082
867.317	22120
867.448	21998
867.579	22101
867.71	22105
867.841	21945
867.972	22226
868.103	22067
868.233	22204
868.364	22192
868.495	22363
868.625	22409
868.756	22352
868.886	22329
869.017	22280
869.147	22447
869.278	22527
869.408	22493
869.539	22443
869.669	22440
869.799	22432
869.929	22592
870.06	22478
870.19	22618
870.32	22668
870.45	22805
870.58	22767
870.71	22820
870.84	22949
870.97	22748
871.1	22717
871.23	23022
871.36	22968
871.489	22873
871.619	22961
871.749	22946
871.879	22957
872.008	23140
872.138	22923
872.267	23037
872.397	22908
872.526	22744
872.656	22869
872.785	22881
872.915	22858
873.044	23193
873.173	22911
873.303	23090
873.432	23147
873.561	23200
873.69	22999
873.819	23075
873.948	23079
874.077	22984
874.206	23033
874.335	22987
874.464	23132
874.593	23162
874.722	23128
874.851	23212
874.979	23284
875.108	23151
875.237	23162
875.365	23124
875.494	23155
875.623	23220
875.751	23231
875.88	23208
876.008	23227
876.136	23455
876.265	23604
876.393	23779
876.521	23680
876.65	23726
876.778	23634
876.906	23539
877.034	23516
877.162	23577
877.29	23531
877.418	23543
877.546	23600
877.674	23570
877.802	23672
877.93	23535
878.058	23501
878.185	23387
878.313	23471
878.441	23436
878.568	23326
878.696	23528
878.824	23570
878.951	23653
879.079	23687
879.206	23912
879.333	23676
879.461	23501
879.588	23703
879.715	23596
879.842	23897
879.97	23710
880.097	23467
880.224	23334
880.351	23520
880.478	23425
880.605	23341
880.732	23391
880.859	23604
880.986	23433
881.112	23406
881.239	23208
881.366	23018
881.493	22972
881.619	22934
881.746	23071
881.872	22915
881.999	22774
882.125	22835
882.252	22881
882.378	22927
882.505	22999
882.631	22748
882.757	22592
882.883	22771
883.01	22584
883.136	22569
883.262	22382
883.388	22360
883.514	22508
883.64	22592
883.766	22470
883.892	22382
884.018	22337
884.143	22645
884.269	22668
884.395	22314
884.52	22234
884.646	22249
884.772	22196
884.897	22105
885.023	22272
885.148	22382
885.274	22466
885.399	22314
885.524	22234
885.65	22249
885.775	22230
885.9	22166
886.025	22333
886.15	22291
886.275	22265
886.4	22181
886.525	22120
886.65	22116
886.775	22261
886.9	22287
887.025	22333
887.149	22314
887.274	22097
887.399	21949
887.523	22044
887.648	21918
887.773	21994
887.897	22116
888.021	22090
888.146	21922
888.27	22097
888.395	22074
888.519	21953
888.643	22025
888.767	22067
888.891	21831
889.015	21770
889.139	21949
889.263	21778
889.387	21751
889.511	21903
889.635	21816
889.759	21816
889.883	21736
890.006	21873
890.13	21846
890.254	21785
890.377	21545
890.501	21466
890.624	21466
890.748	21629
890.871	21526
890.995	21237
891.118	21142
891.241	21298
891.364	21218
891.488	21534
891.611	21481
891.734	21332
891.857	21359
891.98	21389
892.103	21370
892.226	21192
892.349	21218
892.471	21161
892.594	21192
892.717	21226
892.839	21154
892.962	21214
893.085	21272
893.207	21142
893.33	21165
893.452	21138
893.575	21306
893.697	21252
893.819	21378
893.941	21450
894.064	21447
894.186	21085
894.308	21096
894.43	21313
894.552	21317
894.674	21264
894.796	21100
894.918	21150
895.04	21176
895.161	21287
895.283	21199
895.405	21199
895.526	21112
895.648	21241
895.769	21325
895.891	21184
896.012	21226
896.134	21249
896.255	21211
896.376	21207
896.498	21283
896.619	21241
896.74	21222
896.861	21325
896.982	21568
897.103	21675
897.224	21447
897.345	21439
897.466	21397
897.587	21466
897.708	21625
897.828	21447
897.949	21317
898.07	21283
898.19	21397
898.311	21549
898.431	21325
898.552	21348
898.672	21424
898.792	21439
898.913	21469
899.033	21374
899.153	21351
899.273	21165
899.393	21081
899.513	21272
899.633	21123
899.753	21146
899.873	20944
899.993	21108
900.113	21195
900.232	21055
900.352	21089
900.472	20960
900.591	20887
900.711	20861
900.83	20948
900.95	21047
901.069	21055
901.189	20583
901.308	20571
901.427	20457
901.546	20465
901.665	20541
901.784	20507
901.904	20377
902.023	20164
902.141	20081
902.26	20005
902.379	20035
902.498	19951
902.617	19982
902.735	20043
902.854	19780
902.973	19970
903.091	19655
903.21	19635
903.328	19704
903.446	19643
903.565	19483
903.683	19350
903.801	19312
903.919	19506
904.038	19346
904.156	19221
904.274	19362
904.392	19312
904.51	19213
904.627	19164
904.745	19213
904.863	19202
904.981	19088
905.098	18825
905.216	18863
905.334	18859
905.451	18848
905.569	18791
905.686	18905
905.803	18859
905.921	18650
906.038	18616
906.155	18684
906.272	18570
906.389	18532
906.506	18517
906.623	18509
906.74	18391
906.857	18319
906.974	18330
907.091	18445
907.208	18494
907.324	18376
907.441	18228
907.557	18079
907.674	18045
907.79	18079
907.907	18015
908.023	18190
908.139	18041
908.256	18049
908.372	17946
908.488	17977
908.604	17794
908.72	17885
908.836	17855
908.952	17790
909.068	17794
909.184	17893
909.3	17813
909.415	17779
909.531	17729
909.647	17600
909.762	17539
909.878	17448
909.993	17581
910.108	17554
910.224	17444
910.339	17482
910.454	17414
910.57	17235
910.685	17250
910.8	17452
910.915	17512
911.03	17284
911.145	17102
911.259	16999
911.374	17037
911.489	16984
911.604	16919
911.718	16873
911.833	16831
911.947	16748
912.062	16626
912.176	16801
912.291	16873
912.405	16839
912.519	17045
912.633	17045
912.748	16828
912.862	16740
912.976	16683
913.09	16580
913.204	16653
913.318	16675
913.431	16660
913.545	16763
913.659	16717
913.772	16558
913.886	16550
914	16379
914.113	16451
914.226	16573
914.34	16470
914.453	16375
914.566	16459
914.68	16291
914.793	16253
914.906	16010
915.019	16002
915.132	15918
915.245	15994
915.358	16090
915.47	16051
915.583	15949
915.696	16109
915.809	16097
915.921	16162
916.034	15983
916.146	15888
916.259	15827
916.371	15888
916.483	16021
916.595	15785
916.708	15873
916.82	15785
916.932	15778
917.044	15762
917.156	15759
917.268	15568
917.38	15648
917.491	15553
917.603	15618
917.715	15671
917.826	15717
917.938	15526
918.049	15458
918.161	15595
918.272	15625
918.384	15644
918.495	15595
918.606	15431
918.717	15370
918.828	15458
918.939	15488
919.05	15252
919.161	15370
919.272	15135
919.383	15138
919.494	15359
919.604	15454
919.715	15279
919.826	15245
919.936	15317
920.047	15443
920.157	15245
920.267	15511
920.378	15340
920.488	15256
920.598	15492
920.708	15603
920.818	15458
920.928	15420
921.038	15564
921.148	15496
921.258	15214
921.368	15123
921.477	15058
921.587	15074
921.697	14899
921.806	15047
921.916	14872
922.025	14743
922.134	14655
922.244	14625
922.353	14590
922.462	14522
922.571	14549
922.68	14408
922.789	14362
922.898	14275
923.007	14275
923.116	14362
923.224	14347
923.333	14233
923.442	14088
923.55	14202
923.659	14096
923.767	14157
923.876	14081
923.984	14149
924.092	14043
924.201	14020
924.309	13993
924.417	13917
924.525	14008
924.633	13947
924.741	14826
924.849	13757
924.956	13917
925.064	13776
925.172	13647
925.279	13586
925.387	13662
925.494	13643
925.602	13830
925.709	13696
925.816	13540
925.924	13609
926.031	13704
926.138	13613
926.245	13624
926.352	13518
926.459	13643
926.566	13715
926.673	13491
926.779	13384
926.886	13487
926.993	13301
927.099	13263
927.206	13152
927.312	13156
927.419	13209
927.525	13107
927.631	13278
927.737	13069
927.843	13088
927.95	12973
928.056	13027
928.162	13034
928.267	13023
928.373	13639
928.479	12981
928.585	12844
928.69	12962
928.796	13053
928.901	12916
929.007	12696
929.112	12798
929.218	12757
929.323	12741
929.428	12741
929.533	12844
929.638	12684
929.743	12677
929.848	12722
929.953	12551
930.058	12612
930.163	12422
930.267	12483
930.372	12502
930.477	12224
930.581	12570
930.685	12494
930.79	12315
930.894	12315
930.998	12262
931.103	12300
931.207	12007
931.311	11935
931.415	11847
931.519	11680
931.623	11611
