Data from test_V78500241_2274.txt Node
Date: Fri Mar 25 15:57:33 CST 2022
User: usil
Spectrometer: V785-0024
Trigger mode: 0
Integration Time (sec): 4.000000E-1
Scans to average: 1
Nonlinearity correction enabled: false
Boxcar width: 0
Storing dark spectrum: false
XAxis mode: Wavelengths
Number of Pixels in Spectrum: 1024
>>>>>Begin Spectral Data<<<<<
801.071	28862
801.214	28942
801.356	28573
801.499	28584
801.641	28592
801.783	28455
801.926	28538
802.068	28588
802.211	28527
802.353	28500
802.496	28341
802.638	28223
802.78	28139
802.923	28006
803.065	27960
803.208	28086
803.35	28173
803.492	28268
803.635	28424
803.777	28207
803.919	28390
804.061	28660
804.204	28485
804.346	28333
804.488	28363
804.63	28363
804.773	28401
804.915	28352
805.057	28481
805.199	28459
805.341	28485
805.483	28702
805.626	28516
805.768	28561
805.91	28592
806.052	28656
806.194	28508
806.336	28713
806.478	28577
806.62	28512
806.762	28675
806.904	28786
807.046	29098
807.188	28900
807.33	29075
807.472	29064
807.614	29060
807.756	29056
807.898	28877
808.04	28831
808.182	28771
808.324	28866
808.465	29048
808.607	29056
808.749	29246
808.891	29303
809.033	29391
809.174	29239
809.316	29181
809.458	29318
809.6	29147
809.741	29231
809.883	29375
810.025	29547
810.166	29615
810.308	29600
810.45	29547
810.591	29417
810.733	29235
810.875	29410
811.016	29227
811.158	29216
811.299	29452
811.441	29448
811.582	29535
811.724	29261
811.865	29204
812.007	29250
812.148	29372
812.29	29440
812.431	29474
812.573	29611
812.714	29779
812.855	29805
812.997	29977
813.138	30064
813.279	30030
813.421	29756
813.562	29775
813.703	29585
813.845	29623
813.986	29204
814.127	29048
814.268	29094
814.41	29239
814.551	28812
814.692	29159
814.833	28980
814.974	29041
815.115	29014
815.256	28942
815.397	28835
815.539	28930
815.68	28763
815.821	28645
815.962	28793
816.103	28630
816.244	28679
816.385	28584
816.526	28478
816.666	28318
816.807	28272
816.948	28329
817.089	28607
817.23	28527
817.371	28257
817.512	28344
817.653	28223
817.793	28363
817.934	28295
818.075	28333
818.216	28413
818.356	28352
818.497	28162
818.638	28006
818.778	28036
818.919	28093
819.06	28272
819.2	28204
819.341	28447
819.481	28360
819.622	28500
819.762	28675
819.903	28535
820.043	28557
820.184	28348
820.324	28432
820.465	28443
820.605	28474
820.746	28447
820.886	28436
821.026	28470
821.167	28226
821.307	28500
821.447	28318
821.588	28196
821.728	28128
821.868	27854
822.008	27774
822.149	27880
822.289	27709
822.429	27545
822.569	27382
822.709	27492
822.849	27370
822.99	27332
823.13	27294
823.27	27344
823.41	27112
823.55	27032
823.69	27138
823.83	27032
823.97	27005
824.11	26883
824.25	26861
824.389	26960
824.529	27020
824.669	26902
824.809	27119
824.949	27036
825.089	27077
825.228	27108
825.368	26785
825.508	26796
825.648	26876
825.787	26758
825.927	26853
826.067	26765
826.206	26861
826.346	26921
826.485	27051
826.625	26861
826.765	26956
826.904	26891
827.044	26465
827.183	26621
827.323	26549
827.462	26575
827.601	26590
827.741	26450
827.88	26613
828.02	26571
828.159	26476
828.298	26689
828.437	26556
828.577	26453
828.716	26674
828.855	26385
828.994	26206
829.134	26275
829.273	26332
829.412	26267
829.551	26084
829.69	26336
829.829	26305
829.968	26362
830.107	26259
830.246	26271
830.385	26176
830.524	26092
830.663	26130
830.802	25966
830.941	25860
831.08	25769
831.219	25978
831.357	25936
831.496	26225
831.635	25864
831.774	25738
831.913	25685
832.051	25723
832.19	25620
832.329	25575
832.467	25434
832.606	25468
832.744	25495
832.883	25510
833.022	25487
833.16	25483
833.299	25556
833.437	25537
833.576	25529
833.714	25620
833.852	25624
833.991	25594
834.129	25734
834.267	25605
834.406	25670
834.544	25537
834.682	25506
834.821	25571
834.959	25639
835.097	25453
835.235	25658
835.373	25514
835.511	25609
835.65	25350
835.788	25468
835.926	25228
836.064	25107
836.202	25225
836.34	25411
836.478	25502
836.615	25278
836.753	25293
836.891	25540
837.029	25430
837.167	25369
837.305	25232
837.443	25160
837.58	25324
837.718	25346
837.856	25301
837.993	25255
838.131	25145
838.269	25080
838.406	25122
838.544	24947
838.681	24768
838.819	24791
838.956	24639
839.094	24654
839.231	24700
839.369	24924
839.506	25034
839.643	24935
839.781	24650
839.918	24547
840.055	24608
840.193	24646
840.33	24517
840.467	24563
840.604	24631
840.742	24760
840.879	24467
841.016	24521
841.153	24384
841.29	24776
841.427	24574
841.564	24513
841.701	24528
841.838	24604
841.975	24525
842.112	24357
842.249	24304
842.385	24410
842.522	24502
842.659	24365
842.796	24262
842.933	24315
843.069	24213
843.206	24262
843.343	24365
843.479	24308
843.616	24270
843.752	24072
843.889	24041
844.025	24167
844.162	24041
844.298	24194
844.435	24136
844.571	24106
844.708	24209
844.844	24338
844.98	24361
845.117	24182
845.253	24155
845.389	23977
845.525	23855
845.661	23851
845.798	23802
845.934	23882
846.07	23775
846.206	23916
846.342	23939
846.478	23809
846.614	23657
846.75	23349
846.886	23627
847.022	23592
847.158	23524
847.294	23512
847.429	23570
847.565	23600
847.701	23866
847.837	23208
847.972	23189
848.108	23406
848.244	23296
848.379	23041
848.515	23094
848.65	23132
848.786	23090
848.921	23277
849.057	23277
849.192	23204
849.328	23136
849.463	23235
849.598	23071
849.734	23006
849.869	23041
850.004	22946
850.14	22938
850.275	22908
850.41	22858
850.545	22805
850.68	22839
850.815	22816
850.95	22896
851.085	23098
851.22	23102
851.355	22873
851.49	22904
851.625	22664
851.76	22744
851.895	22786
852.03	22881
852.165	22889
852.299	22987
852.434	22892
852.569	22835
852.703	22885
852.838	22991
852.973	22987
853.107	22911
853.242	22858
853.376	22850
853.511	22599
853.645	22729
853.78	22725
853.914	22812
854.048	22656
854.183	22702
854.317	22702
854.451	22930
854.585	22713
854.72	22763
854.854	22736
854.988	22656
855.122	22717
855.256	22565
855.39	22679
855.524	22706
855.658	22835
855.792	22668
855.926	22763
856.06	22854
856.194	22793
856.327	22679
856.461	22637
856.595	22596
856.729	22588
856.862	22790
856.996	22778
857.13	22797
857.263	22717
857.397	22790
857.53	22793
857.664	22805
857.797	22702
857.931	22763
858.064	22786
858.197	22797
858.331	22691
858.464	22713
858.597	22618
858.731	22755
858.864	22618
858.997	22611
859.13	22706
859.263	22706
859.396	22774
859.529	22729
859.662	22653
859.795	22713
859.928	22752
860.061	22824
860.194	22904
860.327	22672
860.46	22771
860.592	22828
860.725	22873
860.858	22767
860.99	22748
861.123	22672
861.256	22546
861.388	22771
861.521	23364
861.653	22474
861.786	22481
861.918	22538
862.05	22668
862.183	22672
862.315	22580
862.447	22664
862.58	22557
862.712	22394
862.844	22299
862.976	22474
863.108	22470
863.24	22892
863.372	22325
863.504	22394
863.636	22360
863.768	22584
863.9	22443
864.032	22394
864.164	22238
864.296	22280
864.428	22584
864.559	22421
864.691	22379
864.823	22436
864.954	22557
865.086	22409
865.217	22287
865.349	22128
865.48	22181
865.612	22276
865.743	22394
865.875	22284
866.006	22226
866.137	22341
866.269	22333
866.4	22234
866.531	22215
866.662	22070
866.793	22181
866.924	22226
867.055	22291
867.186	22204
867.317	22086
867.448	22044
867.579	22196
867.71	22181
867.841	22124
867.972	22303
868.103	22257
868.233	22265
868.364	22192
868.495	22280
868.625	22322
868.756	22531
868.886	22363
869.017	22436
869.147	22500
869.278	22588
869.408	22447
869.539	22322
869.669	22561
869.799	22470
869.929	22584
870.06	22508
870.19	22771
870.32	22641
870.45	22854
870.58	22885
870.71	22927
870.84	22976
870.97	22809
871.1	22782
871.23	23044
871.36	22968
871.489	22919
871.619	23048
871.749	23052
871.879	23090
872.008	23174
872.138	23010
872.267	23071
872.397	22858
872.526	22748
872.656	22904
872.785	22828
872.915	23086
873.044	23067
873.173	23048
873.303	23212
873.432	23170
873.561	23029
873.69	23029
873.819	23025
873.948	23151
874.077	23140
874.206	23075
874.335	22987
874.464	23166
874.593	23239
874.722	23197
874.851	23334
874.979	23273
875.108	23307
875.237	23288
875.365	23200
875.494	23216
875.623	23303
875.751	23166
875.88	23200
876.008	23376
876.136	23444
876.265	23752
876.393	23783
876.521	23668
876.65	23691
876.778	23668
876.906	23577
877.034	23589
877.162	23707
877.29	23486
877.418	23714
877.546	23596
877.674	23676
877.802	23547
877.93	23520
878.058	23551
878.185	23448
878.313	23421
878.441	23463
878.568	23505
878.696	23558
878.824	23611
878.951	23642
879.079	23802
879.206	23847
879.333	23790
879.461	23699
879.588	23718
879.715	23627
879.842	23847
879.97	23699
880.097	23467
880.224	23402
880.351	23417
880.478	23444
880.605	23486
880.732	23425
880.859	23657
880.986	23539
881.112	23509
881.239	23368
881.366	23060
881.493	23117
881.619	22987
881.746	23094
881.872	23052
881.999	22953
882.125	22866
882.252	22934
882.378	23003
882.505	22984
882.631	22869
882.757	22637
882.883	22725
883.01	22687
883.136	22542
883.262	22409
883.388	22485
883.514	22645
883.64	22740
883.766	22653
883.892	22379
884.018	22367
884.143	22626
884.269	22557
884.395	22371
884.52	22333
884.646	22215
884.772	22204
884.897	22109
885.023	22276
885.148	22344
885.274	22413
885.399	22497
885.524	22268
885.65	22363
885.775	22466
885.9	22257
886.025	22379
886.15	22318
886.275	22303
886.4	22139
886.525	22242
886.65	22428
886.775	22139
886.9	22470
887.025	22470
887.149	22371
887.274	22029
887.399	22082
887.523	22078
887.648	22116
887.773	21884
887.897	22101
888.021	22173
888.146	21937
888.27	22143
888.395	22040
888.519	22169
888.643	22006
888.767	22105
888.891	22048
889.015	21907
889.139	22063
889.263	21861
889.387	21926
889.511	22010
889.635	21937
889.759	21838
889.883	21766
890.006	21873
890.13	21964
890.254	21778
890.377	21876
890.501	21504
890.624	21667
890.748	21698
890.871	21530
890.995	21367
891.118	21279
891.241	21382
891.364	21405
891.488	21511
891.611	21389
891.734	21435
891.857	21458
891.98	21344
892.103	21412
892.226	21393
892.349	21359
892.471	21230
892.594	21336
892.717	21397
892.839	21226
892.962	21279
893.085	21454
893.207	21287
893.33	21131
893.452	21176
893.575	21462
893.697	21260
893.819	21435
893.941	21595
894.064	21393
894.186	21233
894.308	21195
894.43	21306
894.552	21466
894.674	21382
894.796	21207
894.918	21192
895.04	21241
895.161	21447
895.283	21279
895.405	21184
895.526	21275
895.648	21317
895.769	21313
895.891	21230
896.012	21340
896.134	21329
896.255	21275
896.376	21157
896.498	21332
896.619	21344
896.74	21287
896.861	21374
896.982	21542
897.103	21720
897.224	21553
897.345	21466
897.466	21469
897.587	21420
897.708	21667
897.828	21435
897.949	21370
898.07	21287
898.19	21359
898.311	21576
898.431	21523
898.552	21450
898.672	21549
898.792	21488
898.913	21538
899.033	21313
899.153	21252
899.273	21275
899.393	21222
899.513	21256
899.633	21268
899.753	21283
899.873	21127
899.993	21135
900.113	20971
900.232	21233
900.352	21249
900.472	20986
900.591	20914
900.711	20937
900.83	20921
900.95	21039
901.069	21066
901.189	20823
901.308	20594
901.427	20503
901.546	20446
901.665	20587
901.784	20480
901.904	20286
902.023	20309
902.141	20161
902.26	20035
902.379	20084
902.498	19959
902.617	20027
902.735	19978
902.854	20035
902.973	19913
903.091	19696
903.21	19628
903.328	19742
903.446	19533
903.565	19521
903.683	19464
903.801	19354
903.919	19400
904.038	19388
904.156	19278
904.274	19377
904.392	19289
904.51	19228
904.627	19228
904.745	19255
904.863	19263
904.981	19069
905.098	18932
905.216	18935
905.334	18871
905.451	18913
905.569	18932
905.686	18916
905.803	18798
905.921	18703
906.038	18829
906.155	18760
906.272	18601
906.389	18582
906.506	18422
906.623	18547
906.74	18483
906.857	18292
906.974	18266
907.091	18540
907.208	18486
907.324	18517
907.441	18315
907.557	18205
907.674	18216
907.79	18019
907.907	17961
908.023	18201
908.139	18076
908.256	18133
908.372	17980
908.488	17999
908.604	17927
908.72	17832
908.836	17798
908.952	17908
909.068	17805
909.184	17836
909.3	17771
909.415	17798
909.531	17786
909.647	17532
909.762	17642
909.878	17486
909.993	17490
910.108	17532
910.224	17604
910.339	17520
910.454	17410
910.57	17356
910.685	17307
910.8	17497
910.915	17478
911.03	17395
911.145	17193
911.259	17121
911.374	17117
911.489	16976
911.604	16984
911.718	16881
911.833	16934
911.947	16755
912.062	16790
912.176	16923
912.291	16713
912.405	16828
912.519	17067
912.633	17060
912.748	16908
912.862	16824
912.976	16668
913.09	16508
913.204	16622
913.318	16713
913.431	16828
913.545	16843
913.659	16767
913.772	16577
913.886	16584
914	16386
914.113	16546
914.226	16645
914.34	16592
914.453	16333
914.566	16474
914.68	16363
914.793	16253
914.906	16124
915.019	16120
915.132	16044
915.245	15983
915.358	16055
915.47	16063
915.583	16006
915.696	16059
915.809	16067
915.921	16078
916.034	15880
916.146	15854
916.259	15903
916.371	16025
916.483	15911
916.595	15827
916.708	15892
916.82	15778
916.932	15846
917.044	15739
917.156	15701
917.268	15694
917.38	15675
917.491	15656
917.603	15698
917.715	15660
917.826	15732
917.938	15576
918.049	15473
918.161	15580
918.272	15686
918.384	15709
918.495	15603
918.606	15466
918.717	15332
918.828	15298
918.939	15416
919.05	15310
919.161	15268
919.272	15195
919.383	15195
919.494	15424
919.604	15481
919.715	15325
919.826	15313
919.936	15275
920.047	15329
920.157	15374
920.267	15568
920.378	15408
920.488	15283
920.598	15507
920.708	15545
920.818	15523
920.928	15428
921.038	15599
921.148	15576
921.258	15233
921.368	15089
921.477	15104
921.587	15089
921.697	14963
921.806	14960
921.916	14914
922.025	14667
922.134	14610
922.244	14670
922.353	14716
922.462	14514
922.571	14518
922.68	14412
922.789	14282
922.898	14271
923.007	14229
923.116	14320
923.224	14298
923.333	14271
923.442	14305
923.55	14123
923.659	14145
923.767	14195
923.876	14058
923.984	14084
924.092	13951
924.201	14031
924.309	14031
924.417	14111
924.525	13940
924.633	14016
924.741	14826
924.849	13734
924.956	13894
925.064	13734
925.172	13655
925.279	13651
925.387	13742
925.494	13658
925.602	13791
925.709	13727
925.816	13563
925.924	13601
926.031	13685
926.138	13647
926.245	13628
926.352	13502
926.459	13651
926.566	13666
926.673	13590
926.779	13468
926.886	13308
926.993	13171
927.099	13221
927.206	13133
927.312	13274
927.419	13190
927.525	13164
927.631	13202
927.737	13179
927.843	13126
927.95	12943
928.056	13034
928.162	13080
928.267	13019
928.373	13628
928.479	13091
928.585	12947
928.69	12985
928.796	13152
928.901	12916
929.007	12692
929.112	12905
929.218	12833
929.323	12810
929.428	12741
929.533	12985
929.638	12673
929.743	12703
929.848	12692
929.953	12681
930.058	12528
930.163	12437
930.267	12445
930.372	12616
930.477	12350
930.581	12635
930.685	12498
930.79	12258
930.894	12323
930.998	12224
931.103	12388
931.207	11984
931.311	11946
931.415	11851
931.519	11627
931.623	11600
