Data from test_V78500241_3538.txt Node
Date: Fri Mar 25 16:06:18 CST 2022
User: usil
Spectrometer: V785-0024
Trigger mode: 0
Integration Time (sec): 4.000000E-1
Scans to average: 1
Nonlinearity correction enabled: false
Boxcar width: 0
Storing dark spectrum: false
XAxis mode: Wavelengths
Number of Pixels in Spectrum: 1024
>>>>>Begin Spectral Data<<<<<
801.071	28900
801.214	28976
801.356	28691
801.499	28554
801.641	28626
801.783	28588
801.926	28584
802.068	28668
802.211	28451
802.353	28356
802.496	28363
802.638	28207
802.78	28230
802.923	28063
803.065	28139
803.208	28166
803.35	28295
803.492	28447
803.635	28363
803.777	28318
803.919	28535
804.061	28839
804.204	28527
804.346	28447
804.488	28462
804.63	28660
804.773	28485
804.915	28656
805.057	28546
805.199	28554
805.341	28672
805.483	28683
805.626	28603
805.768	28535
805.91	28660
806.052	28634
806.194	28607
806.336	28843
806.478	28771
806.62	28786
806.762	28736
806.904	28980
807.046	28957
807.188	29132
807.33	29056
807.472	29197
807.614	29147
807.756	29098
807.898	28873
808.04	28843
808.182	28991
808.324	28953
808.465	28930
808.607	29204
808.749	29345
808.891	29425
809.033	29608
809.174	29421
809.316	29421
809.458	29429
809.6	29261
809.741	29452
809.883	29490
810.025	29589
810.166	29684
810.308	29733
810.45	29566
810.591	29539
810.733	29387
810.875	29368
811.016	29299
811.158	29311
811.299	29452
811.441	29615
811.582	29509
811.724	29395
811.865	29448
812.007	29334
812.148	29368
812.29	29474
812.431	29592
812.573	29623
812.714	29691
812.855	29859
812.997	29908
813.138	30243
813.279	30041
813.421	29832
813.562	29859
813.703	29539
813.845	29646
813.986	29258
814.127	29147
814.268	29025
814.41	29029
814.551	29143
814.692	29185
814.833	28923
814.974	29010
815.115	29113
815.256	28995
815.397	29006
815.539	29025
815.68	28877
815.821	28862
815.962	28911
816.103	28881
816.244	28812
816.385	28774
816.526	28679
816.666	28561
816.807	28478
816.948	28596
817.089	28580
817.23	28287
817.371	28356
817.512	28348
817.653	28348
817.793	28246
817.934	28280
818.075	28337
818.216	28451
818.356	28500
818.497	28325
818.638	28284
818.778	28185
818.919	28128
819.06	28219
819.2	28398
819.341	28489
819.481	28344
819.622	28603
819.762	28797
819.903	28725
820.043	28660
820.184	28649
820.324	28557
820.465	28694
820.605	28481
820.746	28489
820.886	28382
821.026	28580
821.167	28603
821.307	28702
821.447	28379
821.588	28322
821.728	28253
821.868	28128
822.008	27857
822.149	27827
822.289	27895
822.429	27698
822.569	27523
822.709	27644
822.849	27553
822.99	27348
823.13	27420
823.27	27382
823.41	27279
823.55	27180
823.69	27291
823.83	27203
823.97	27127
824.11	27001
824.25	26960
824.389	27051
824.529	27100
824.669	27093
824.809	27127
824.949	27199
825.089	27119
825.228	27165
825.368	27024
825.508	26849
825.648	26887
825.787	26971
825.927	26975
826.067	26823
826.206	27001
826.346	26963
826.485	27024
826.625	26792
826.765	27077
826.904	27039
827.044	26762
827.183	26876
827.323	26621
827.462	26762
827.601	26629
827.741	26568
827.88	26823
828.02	26648
828.159	26731
828.298	26655
828.437	26724
828.577	26613
828.716	26651
828.855	26651
828.994	26332
829.134	26423
829.273	26499
829.412	26229
829.551	26271
829.69	26389
829.829	26358
829.968	26389
830.107	26423
830.246	26225
830.385	26263
830.524	26324
830.663	26107
830.802	25944
830.941	25841
831.08	26012
831.219	26138
831.357	26088
831.496	26271
831.635	26024
831.774	26027
831.913	25966
832.051	25689
832.19	25689
832.329	25723
832.467	25719
832.606	25655
832.744	25605
832.883	25601
833.022	25609
833.16	25586
833.299	25635
833.437	25590
833.576	25693
833.714	25616
833.852	25765
833.991	25651
834.129	25791
834.267	25761
834.406	25696
834.544	25788
834.682	25674
834.821	25609
834.959	25791
835.097	25693
835.235	25772
835.373	25655
835.511	25632
835.65	25434
835.788	25563
835.926	25339
836.064	25278
836.202	25320
836.34	25567
836.478	25556
836.615	25533
836.753	25510
836.891	25514
837.029	25479
837.167	25499
837.305	25331
837.443	25358
837.58	25369
837.718	25510
837.856	25384
837.993	25362
838.131	25388
838.269	25190
838.406	25266
838.544	25183
838.681	25042
838.819	24905
838.956	24776
839.094	24734
839.231	24894
839.369	24817
839.506	25236
839.643	25099
839.781	24791
839.918	24741
840.055	24844
840.193	24673
840.33	24566
840.467	24779
840.604	24779
840.742	24985
840.879	24540
841.016	24585
841.153	24467
841.29	24741
841.427	24684
841.564	24692
841.701	24544
841.838	24544
841.975	24490
842.112	24384
842.249	24551
842.385	24319
842.522	24445
842.659	24494
842.796	24422
842.933	24414
843.069	24403
843.206	24475
843.343	24505
843.479	24544
843.616	24502
843.752	24224
843.889	24273
844.025	24399
844.162	24159
844.298	24342
844.435	24289
844.571	24148
844.708	24285
844.844	24361
844.98	24448
845.117	24262
845.253	24159
845.389	24110
845.525	24079
845.661	24186
845.798	24110
845.934	24034
846.07	23988
846.206	24049
846.342	24045
846.478	23916
846.614	23726
846.75	23585
846.886	23623
847.022	23718
847.158	23783
847.294	23745
847.429	23764
847.565	23729
847.701	23912
847.837	23440
847.972	23334
848.108	23585
848.244	23463
848.379	23372
848.515	23318
848.65	23231
848.786	23105
848.921	23246
849.057	23368
849.192	23360
849.328	23326
849.463	23280
849.598	23250
849.734	23166
849.869	23044
850.004	23064
850.14	23006
850.275	22927
850.41	22991
850.545	22911
850.68	22995
850.815	23109
850.95	23025
851.085	23174
851.22	23075
851.355	23193
851.49	22946
851.625	23075
851.76	23003
851.895	23086
852.03	23010
852.165	22949
852.299	23044
852.434	23060
852.569	23064
852.703	22995
852.838	23056
852.973	23140
853.107	23159
853.242	22961
853.376	22953
853.511	22733
853.645	22889
853.78	22965
853.914	22923
854.048	22736
854.183	22915
854.317	22805
854.451	23029
854.585	23022
854.72	22710
854.854	23060
854.988	22881
855.122	22828
855.256	22908
855.39	22968
855.524	22957
855.658	22911
855.792	22900
855.926	22854
856.06	22866
856.194	23041
856.327	22866
856.461	22843
856.595	22725
856.729	22691
856.862	22896
856.996	22877
857.13	22976
857.263	23006
857.397	22934
857.53	22782
857.664	22927
857.797	22995
857.931	22934
858.064	22793
858.197	22915
858.331	22755
858.464	22797
858.597	22664
858.731	22896
858.864	22767
858.997	22809
859.13	22896
859.263	23018
859.396	22904
859.529	22854
859.662	22862
859.795	22896
859.928	22862
860.061	23098
860.194	23105
860.327	22999
860.46	22805
860.592	22911
860.725	22911
860.858	22957
860.99	22797
861.123	22801
861.256	22850
861.388	22850
861.521	23577
861.653	22755
861.786	22557
861.918	22717
862.05	22713
862.183	22824
862.315	22694
862.447	22892
862.58	22691
862.712	22519
862.844	22527
862.976	22729
863.108	22565
863.24	23086
863.372	22474
863.504	22630
863.636	22645
863.768	22630
863.9	22660
864.032	22451
864.164	22656
864.296	22641
864.428	22683
864.559	22713
864.691	22634
864.823	22618
864.954	22535
865.086	22428
865.217	22390
865.349	22421
865.48	22341
865.612	22466
865.743	22462
865.875	22481
866.006	22238
866.137	22344
866.269	22424
866.4	22417
866.531	22413
866.662	22402
866.793	22329
866.924	22557
867.055	22421
867.186	22447
867.317	22409
867.448	22303
867.579	22367
867.71	22253
867.841	22299
867.972	22379
868.103	22337
868.233	22367
868.364	22333
868.495	22398
868.625	22615
868.756	22653
868.886	22459
869.017	22489
869.147	22577
869.278	22580
869.408	22615
869.539	22546
869.669	22702
869.799	22649
869.929	22748
870.06	22736
870.19	22923
870.32	22896
870.45	22915
870.58	23117
870.71	23044
870.84	23075
870.97	22915
871.1	22976
871.23	23086
871.36	23174
871.489	23067
871.619	23109
871.749	23147
871.879	23136
872.008	23235
872.138	23250
872.267	23181
872.397	23162
872.526	22961
872.656	23018
872.785	22984
872.915	23239
873.044	23356
873.173	23174
873.303	23231
873.432	23296
873.561	23463
873.69	23273
873.819	23356
873.948	23261
874.077	23239
874.206	23159
874.335	23261
874.464	23417
874.593	23421
874.722	23368
874.851	23436
874.979	23505
875.108	23402
875.237	23478
875.365	23284
875.494	23459
875.623	23482
875.751	23326
875.88	23440
876.008	23455
876.136	23672
876.265	23851
876.393	23733
876.521	23840
876.65	23950
876.778	23786
876.906	23805
877.034	23764
877.162	23847
877.29	23741
877.418	23703
877.546	23783
877.674	23817
877.802	23748
877.93	23676
878.058	23737
878.185	23642
878.313	23619
878.441	23691
878.568	23672
878.696	23783
878.824	23764
878.951	23840
879.079	23950
879.206	24022
879.333	23893
879.461	23786
879.588	23836
879.715	23977
879.842	24057
879.97	23885
880.097	23649
880.224	23509
880.351	23623
880.478	23600
880.605	23570
880.732	23551
880.859	23718
880.986	23509
881.112	23558
881.239	23554
881.366	23242
881.493	23337
881.619	23140
881.746	23292
881.872	23239
881.999	23098
882.125	23242
882.252	23200
882.378	23086
882.505	23174
882.631	22915
882.757	22900
882.883	22824
883.01	22710
883.136	22805
883.262	22748
883.388	22557
883.514	22824
883.64	22843
883.766	22664
883.892	22618
884.018	22668
884.143	22774
884.269	22782
884.395	22569
884.52	22379
884.646	22417
884.772	22455
884.897	22436
885.023	22561
885.148	22535
885.274	22557
885.399	22649
885.524	22409
885.65	22462
885.775	22382
885.9	22322
886.025	22478
886.15	22474
886.275	22405
886.4	22341
886.525	22500
886.65	22390
886.775	22291
886.9	22440
887.025	22546
887.149	22337
887.274	22322
887.399	22329
887.523	22204
887.648	22215
887.773	22044
887.897	22185
888.021	22226
888.146	22166
888.27	22405
888.395	22356
888.519	22158
888.643	22382
888.767	22284
888.891	22097
889.015	21994
889.139	22017
889.263	22029
889.387	22109
889.511	22154
889.635	22150
889.759	22059
889.883	21960
890.006	21983
890.13	22063
890.254	21949
890.377	21850
890.501	21804
890.624	21739
890.748	21762
890.871	21591
890.995	21473
891.118	21458
891.241	21519
891.364	21606
891.488	21625
891.611	21557
891.734	21523
891.857	21568
891.98	21515
892.103	21496
892.226	21477
892.349	21401
892.471	21188
892.594	21355
892.717	21313
892.839	21454
892.962	21370
893.085	21458
893.207	21420
893.33	21329
893.452	21317
893.575	21397
893.697	21454
893.819	21538
893.941	21561
894.064	21553
894.186	21378
894.308	21306
894.43	21473
894.552	21526
894.674	21504
894.796	21203
894.918	21359
895.04	21340
895.161	21542
895.283	21473
895.405	21252
895.526	21386
895.648	21279
895.769	21355
895.891	21401
896.012	21568
896.134	21462
896.255	21481
896.376	21378
896.498	21313
896.619	21363
896.74	21393
896.861	21469
896.982	21778
897.103	21911
897.224	21622
897.345	21682
897.466	21538
897.587	21553
897.708	21698
897.828	21595
897.949	21648
898.07	21564
898.19	21580
898.311	21686
898.431	21507
898.552	21469
898.672	21606
898.792	21625
898.913	21614
899.033	21439
899.153	21313
899.273	21199
899.393	21275
899.513	21351
899.633	21252
899.753	21230
899.873	21241
899.993	21325
900.113	21272
900.232	21173
900.352	21142
900.472	21104
900.591	20998
900.711	21047
900.83	21096
900.95	21165
901.069	21138
901.189	20864
901.308	20651
901.427	20590
901.546	20648
901.665	20533
901.784	20670
901.904	20484
902.023	20271
902.141	20202
902.26	20153
902.379	20206
902.498	20069
902.617	20096
902.735	20142
902.854	20142
902.973	20107
903.091	19894
903.21	19772
903.328	19750
903.446	19677
903.565	19510
903.683	19655
903.801	19362
903.919	19483
904.038	19438
904.156	19354
904.274	19392
904.392	19362
904.51	19213
904.627	19301
904.745	19293
904.863	19343
904.981	19164
905.098	19076
905.216	18993
905.334	19118
905.451	19034
905.569	18909
905.686	19000
905.803	18859
905.921	18734
906.038	18840
906.155	18760
906.272	18703
906.389	18696
906.506	18570
906.623	18589
906.74	18506
906.857	18452
906.974	18490
907.091	18673
907.208	18597
907.324	18544
907.441	18422
907.557	18262
907.674	18270
907.79	18136
907.907	18022
908.023	18346
908.139	18228
908.256	18163
908.372	18045
908.488	18129
908.604	17999
908.72	17897
908.836	17927
908.952	17969
909.068	17923
909.184	18057
909.3	17916
909.415	17999
909.531	17874
909.647	17714
909.762	17623
909.878	17566
909.993	17642
910.108	17638
910.224	17699
910.339	17627
910.454	17414
910.57	17459
910.685	17299
910.8	17566
910.915	17516
911.03	17417
911.145	17200
911.259	17216
911.374	17147
911.489	17102
911.604	17029
911.718	16965
911.833	17018
911.947	16820
912.062	16824
912.176	16949
912.291	16965
912.405	16984
912.519	17162
912.633	17178
912.748	16896
912.862	16896
912.976	16755
913.09	16668
913.204	16744
913.318	16755
913.431	16904
913.545	16809
913.659	16782
913.772	16679
913.886	16668
914	16542
914.113	16504
914.226	16558
914.34	16550
914.453	16455
914.566	16462
914.68	16440
914.793	16413
914.906	16215
915.019	16135
915.132	16002
915.245	16139
915.358	16131
915.47	16029
915.583	16059
915.696	16093
915.809	16265
915.921	16158
916.034	16059
916.146	16044
916.259	16006
916.371	15998
916.483	16013
916.595	15979
916.708	15930
916.82	15903
916.932	15873
917.044	15774
917.156	15846
917.268	15694
917.38	15698
917.491	15724
917.603	15766
917.715	15785
917.826	15876
917.938	15682
918.049	15595
918.161	15660
918.272	15793
918.384	15789
918.495	15564
918.606	15564
918.717	15393
918.828	15424
918.939	15526
919.05	15378
919.161	15428
919.272	15252
919.383	15203
919.494	15469
919.604	15606
919.715	15416
919.826	15317
919.936	15329
920.047	15538
920.157	15298
920.267	15618
920.378	15416
920.488	15359
920.598	15466
920.708	15610
920.818	15519
920.928	15519
921.038	15618
921.148	15671
921.258	15310
921.368	15127
921.477	15142
921.587	15062
921.697	15024
921.806	15119
921.916	14929
922.025	14769
922.134	14849
922.244	14724
922.353	14777
922.462	14575
922.571	14541
922.68	14408
922.789	14393
922.898	14332
923.007	14385
923.116	14355
923.224	14423
923.333	14286
923.442	14176
923.55	14134
923.659	14237
923.767	14214
923.876	14229
923.984	14237
924.092	14054
924.201	14126
924.309	14103
924.417	14039
924.525	14050
924.633	14024
924.741	14948
924.849	13795
924.956	13940
925.064	13868
925.172	13712
925.279	13791
925.387	13837
925.494	13845
925.602	13936
925.709	13784
925.816	13594
925.924	13769
926.031	13723
926.138	13647
926.245	13708
926.352	13605
926.459	13772
926.566	13723
926.673	13616
926.779	13457
926.886	13441
926.993	13430
927.099	13327
927.206	13282
927.312	13244
927.419	13278
927.525	13339
927.631	13327
927.737	13179
927.843	13149
927.95	12989
928.056	13103
928.162	13217
928.267	13129
928.373	13788
928.479	13164
928.585	12966
928.69	12989
928.796	13072
928.901	12985
929.007	12760
929.112	12913
929.218	12924
929.323	12814
929.428	12772
929.533	12920
929.638	12749
929.743	12757
929.848	12795
929.953	12646
930.058	12582
930.163	12403
930.267	12502
930.372	12570
930.477	12410
930.581	12669
930.685	12578
930.79	12346
930.894	12277
930.998	12384
931.103	12464
931.207	12148
931.311	11988
931.415	11912
931.519	11665
931.623	11684
