Data from test_V78500241_2203.txt Node
Date: Fri Mar 25 15:57:03 CST 2022
User: usil
Spectrometer: V785-0024
Trigger mode: 0
Integration Time (sec): 4.000000E-1
Scans to average: 1
Nonlinearity correction enabled: false
Boxcar width: 0
Storing dark spectrum: false
XAxis mode: Wavelengths
Number of Pixels in Spectrum: 1024
>>>>>Begin Spectral Data<<<<<
801.071	28839
801.214	28687
801.356	28580
801.499	28462
801.641	28310
801.783	28409
801.926	28462
802.068	28421
802.211	28306
802.353	28207
802.496	28128
802.638	28055
802.78	28074
802.923	27964
803.065	27903
803.208	28116
803.35	28025
803.492	28234
803.635	28375
803.777	28223
803.919	28234
804.061	28615
804.204	28401
804.346	28280
804.488	28257
804.63	28341
804.773	28185
804.915	28436
805.057	28569
805.199	28341
805.341	28394
805.483	28523
805.626	28375
805.768	28295
805.91	28580
806.052	28489
806.194	28424
806.336	28630
806.478	28493
806.62	28535
806.762	28516
806.904	28702
807.046	28881
807.188	28957
807.33	28968
807.472	29105
807.614	28934
807.756	28999
807.898	28809
808.04	28755
808.182	28649
808.324	28740
808.465	28797
808.607	28953
808.749	29166
808.891	29223
809.033	29349
809.174	29166
809.316	29242
809.458	29258
809.6	29094
809.741	29417
809.883	29372
810.025	29589
810.166	29436
810.308	29558
810.45	29592
810.591	29349
810.733	29159
810.875	29174
811.016	29094
811.158	29098
811.299	29322
811.441	29345
811.582	29356
811.724	29197
811.865	29048
812.007	29064
812.148	29197
812.29	29250
812.431	29231
812.573	29596
812.714	29634
812.855	29642
812.997	29752
813.138	29939
813.279	29961
813.421	29817
813.562	29726
813.703	29547
813.845	29246
813.986	29181
814.127	29132
814.268	28820
814.41	28881
814.551	28908
814.692	28915
814.833	28923
814.974	28976
815.115	28915
815.256	28790
815.397	28805
815.539	28812
815.68	28698
815.821	28504
815.962	28729
816.103	28771
816.244	28523
816.385	28466
816.526	28447
816.666	28356
816.807	28196
816.948	28230
817.089	28303
817.23	28341
817.371	28185
817.512	28333
817.653	28162
817.793	28173
817.934	28295
818.075	28272
818.216	28329
818.356	28360
818.497	28257
818.638	27934
818.778	28048
818.919	27922
819.06	28006
819.2	28276
819.341	28086
819.481	28249
819.622	28424
819.762	28584
819.903	28417
820.043	28497
820.184	28322
820.324	28325
820.465	28440
820.605	28382
820.746	28223
820.886	28204
821.026	28207
821.167	28246
821.307	28291
821.447	28257
821.588	28147
821.728	27994
821.868	27873
822.008	27682
822.149	27857
822.289	27587
822.429	27469
822.569	27397
822.709	27427
822.849	27321
822.99	27222
823.13	27230
823.27	27165
823.41	26994
823.55	27001
823.69	27028
823.83	26963
823.97	26952
824.11	26868
824.25	26781
824.389	26861
824.529	26883
824.669	26967
824.809	26998
824.949	27017
825.089	27051
825.228	26921
825.368	26807
825.508	26731
825.648	26769
825.787	26895
825.927	26823
826.067	26769
826.206	26868
826.346	26788
826.485	26857
826.625	26819
826.765	26834
826.904	26743
827.044	26621
827.183	26518
827.323	26507
827.462	26450
827.601	26453
827.741	26339
827.88	26404
828.02	26423
828.159	26507
828.298	26442
828.437	26431
828.577	26339
828.716	26564
828.855	26225
828.994	26092
829.134	26324
829.273	26172
829.412	26088
829.551	26092
829.69	26077
829.829	26126
829.968	26199
830.107	26043
830.246	26096
830.385	26077
830.524	26069
830.663	25974
830.802	25951
830.941	25620
831.08	25791
831.219	25826
831.357	25753
831.496	26005
831.635	25632
831.774	25666
831.913	25578
832.051	25468
832.19	25384
832.329	25582
832.467	25521
832.606	25339
832.744	25453
832.883	25426
833.022	25563
833.16	25453
833.299	25438
833.437	25422
833.576	25377
833.714	25392
833.852	25662
833.991	25449
834.129	25632
834.267	25613
834.406	25430
834.544	25518
834.682	25552
834.821	25441
834.959	25655
835.097	25525
835.235	25518
835.373	25525
835.511	25419
835.65	25392
835.788	25285
835.926	25160
836.064	25091
836.202	25217
836.34	25293
836.478	25335
836.615	25164
836.753	25304
836.891	25396
837.029	25350
837.167	25213
837.305	25316
837.443	25160
837.58	25019
837.718	25240
837.856	25099
837.993	25034
838.131	25152
838.269	24947
838.406	25088
838.544	24909
838.681	24840
838.819	24802
838.956	24650
839.094	24612
839.231	24582
839.369	24757
839.506	24973
839.643	24840
839.781	24646
839.918	24475
840.055	24547
840.193	24570
840.33	24559
840.467	24456
840.604	24563
840.742	24783
840.879	24213
841.016	24555
841.153	24330
841.29	24612
841.427	24380
841.564	24544
841.701	24460
841.838	24441
841.975	24486
842.112	24391
842.249	24327
842.385	24163
842.522	24384
842.659	24338
842.796	24194
842.933	24216
843.069	24133
843.206	24155
843.343	24258
843.479	24125
843.616	24148
843.752	24038
843.889	23961
844.025	24178
844.162	23999
844.298	24015
844.435	23999
844.571	23973
844.708	24133
844.844	24163
844.98	24095
845.117	24239
845.253	24022
845.389	23798
845.525	23805
845.661	23855
845.798	23783
845.934	23855
846.07	23802
846.206	23836
846.342	23889
846.478	23718
846.614	23539
846.75	23417
846.886	23379
847.022	23566
847.158	23417
847.294	23547
847.429	23490
847.565	23573
847.701	23707
847.837	23136
847.972	23246
848.108	23284
848.244	23223
848.379	23143
848.515	23003
848.65	23117
848.786	23056
848.921	23140
849.057	23159
849.192	23174
849.328	23018
849.463	23083
849.598	22995
849.734	22885
849.869	22858
850.004	22816
850.14	22862
850.275	22877
850.41	22641
850.545	22721
850.68	22850
850.815	22828
850.95	22930
851.085	22965
851.22	22987
851.355	22839
851.49	22862
851.625	22782
851.76	22778
851.895	22752
852.03	22782
852.165	22786
852.299	22854
852.434	22866
852.569	22797
852.703	22869
852.838	22797
852.973	22976
853.107	23086
853.242	22812
853.376	22645
853.511	22538
853.645	22599
853.78	22835
853.914	22672
854.048	22713
854.183	22538
854.317	22691
854.451	22896
854.585	22546
854.72	22706
854.854	22835
854.988	22561
855.122	22596
855.256	22481
855.39	22554
855.524	22691
855.658	22755
855.792	22504
855.926	22717
856.06	22580
856.194	22599
856.327	22512
856.461	22588
856.595	22478
856.729	22683
856.862	22710
856.996	22713
857.13	22615
857.263	22736
857.397	22767
857.53	22523
857.664	22694
857.797	22660
857.931	22786
858.064	22573
858.197	22774
858.331	22630
858.464	22580
858.597	22512
858.731	22615
858.864	22763
858.997	22683
859.13	22748
859.263	22645
859.396	22630
859.529	22580
859.662	22485
859.795	22630
859.928	22577
860.061	22786
860.194	22831
860.327	22637
860.46	22618
860.592	22805
860.725	22675
860.858	22748
860.99	22630
861.123	22611
861.256	22626
861.388	22599
861.521	23181
861.653	22504
861.786	22390
861.918	22371
862.05	22474
862.183	22523
862.315	22565
862.447	22672
862.58	22573
862.712	22325
862.844	22299
862.976	22443
863.108	22344
863.24	22862
863.372	22226
863.504	22238
863.636	22257
863.768	22375
863.9	22375
864.032	22295
864.164	22405
864.296	22291
864.428	22478
864.559	22371
864.691	22504
864.823	22310
864.954	22325
865.086	22280
865.217	22287
865.349	22124
865.48	22230
865.612	22257
865.743	22413
865.875	22314
866.006	22215
866.137	22310
866.269	22090
866.4	22249
866.531	22067
866.662	22169
866.793	22192
866.924	22158
867.055	22219
867.186	22169
867.317	22169
867.448	22143
867.579	22067
867.71	22078
867.841	22051
867.972	22025
868.103	22192
868.233	22162
868.364	22162
868.495	22246
868.625	22424
868.756	22481
868.886	22249
869.017	22348
869.147	22504
869.278	22523
869.408	22390
869.539	22299
869.669	22508
869.799	22417
869.929	22542
870.06	22481
870.19	22683
870.32	22580
870.45	22626
870.58	22767
870.71	22900
870.84	22866
870.97	22774
871.1	22854
871.23	22854
871.36	22987
871.489	22790
871.619	23003
871.749	23029
871.879	22946
872.008	23075
872.138	22987
872.267	22930
872.397	22843
872.526	22835
872.656	22877
872.785	22854
872.915	23006
873.044	23048
873.173	22900
873.303	23033
873.432	23075
873.561	23208
873.69	23022
873.819	23060
873.948	23044
874.077	22961
874.206	22972
874.335	23037
874.464	23117
874.593	23223
874.722	23147
874.851	23239
874.979	23307
875.108	23326
875.237	23193
875.365	23117
875.494	23128
875.623	23376
875.751	23090
875.88	23356
876.008	23284
876.136	23330
876.265	23604
876.393	23627
876.521	23676
876.65	23710
876.778	23634
876.906	23490
877.034	23539
877.162	23528
877.29	23448
877.418	23570
877.546	23619
877.674	23596
877.802	23551
877.93	23551
878.058	23421
878.185	23372
878.313	23551
878.441	23490
878.568	23368
878.696	23585
878.824	23608
878.951	23520
879.079	23592
879.206	23863
879.333	23714
879.461	23520
879.588	23790
879.715	23707
879.842	23695
879.97	23611
880.097	23410
880.224	23189
880.351	23471
880.478	23379
880.605	23436
880.732	23421
880.859	23615
880.986	23239
881.112	23387
881.239	23334
881.366	23014
881.493	22980
881.619	22896
881.746	22995
881.872	23079
881.999	22946
882.125	22877
882.252	22900
882.378	22831
882.505	22900
882.631	22725
882.757	22683
882.883	22694
883.01	22596
883.136	22493
883.262	22466
883.388	22470
883.514	22611
883.64	22622
883.766	22584
883.892	22242
884.018	22306
884.143	22489
884.269	22615
884.395	22261
884.52	22234
884.646	22299
884.772	22249
884.897	22090
885.023	22238
885.148	22249
885.274	22303
885.399	22386
885.524	22230
885.65	22188
885.775	22219
885.9	22162
886.025	22382
886.15	22318
886.275	22207
886.4	22101
886.525	22230
886.65	22173
886.775	22120
886.9	22253
887.025	22390
887.149	22188
887.274	22093
887.399	22029
887.523	22067
887.648	21972
887.773	21945
887.897	22067
888.021	22002
888.146	21968
888.27	22040
888.395	22021
888.519	21964
888.643	22055
888.767	22128
888.891	21892
889.015	21865
889.139	21876
889.263	21743
889.387	21793
889.511	21983
889.635	21873
889.759	21800
889.883	21785
890.006	21698
890.13	21770
890.254	21698
890.377	21717
890.501	21614
890.624	21549
890.748	21561
890.871	21504
890.995	21408
891.118	21195
891.241	21260
891.364	21405
891.488	21469
891.611	21336
891.734	21291
891.857	21310
891.98	21291
892.103	21272
892.226	21336
892.349	21214
892.471	21154
892.594	21302
892.717	21154
892.839	21169
892.962	21157
893.085	21211
893.207	21222
893.33	21043
893.452	21222
893.575	21275
893.697	21184
893.819	21291
893.941	21435
894.064	21321
894.186	21131
894.308	21093
894.43	21192
894.552	21424
894.674	21195
894.796	21188
894.918	21058
895.04	21176
895.161	21268
895.283	21142
895.405	21062
895.526	21104
895.648	21188
895.769	21218
895.891	21195
896.012	21351
896.134	21207
896.255	21237
896.376	21138
896.498	21096
896.619	21249
896.74	21188
896.861	21188
896.982	21485
897.103	21652
897.224	21382
897.345	21496
897.466	21291
897.587	21329
897.708	21447
897.828	21420
897.949	21214
898.07	21249
898.19	21367
898.311	21488
898.431	21233
898.552	21302
898.672	21454
898.792	21416
898.913	21310
899.033	21180
899.153	21207
899.273	21036
899.393	21184
899.513	21275
899.633	21176
899.753	21207
899.873	21146
899.993	21165
900.113	21085
900.232	20941
900.352	21013
900.472	20868
900.591	20842
900.711	20929
900.83	20971
900.95	21036
901.069	20975
901.189	20853
901.308	20522
901.427	20396
901.546	20530
901.665	20419
901.784	20518
901.904	20244
902.023	20176
902.141	19894
902.26	19951
902.379	19993
902.498	19951
902.617	19879
902.735	19944
902.854	19940
902.973	19795
903.091	19609
903.21	19525
903.328	19590
903.446	19381
903.565	19422
903.683	19487
903.801	19350
903.919	19324
904.038	19308
904.156	19107
904.274	19244
904.392	19107
904.51	19065
904.627	19145
904.745	19114
904.863	19194
904.981	18909
905.098	18719
905.216	18909
905.334	18935
905.451	18882
905.569	18897
905.686	18958
905.803	18738
905.921	18646
906.038	18593
906.155	18593
906.272	18544
906.389	18551
906.506	18426
906.623	18506
906.74	18372
906.857	18311
906.974	18182
907.091	18414
907.208	18460
907.324	18338
907.441	18190
907.557	18095
907.674	18098
907.79	18045
907.907	17999
908.023	18053
908.139	18091
908.256	17988
908.372	17961
908.488	17908
908.604	17870
908.72	17809
908.836	17756
908.952	17722
909.068	17840
909.184	17855
909.3	17764
909.415	17847
909.531	17661
909.647	17516
909.762	17455
909.878	17482
909.993	17429
910.108	17410
910.224	17421
910.339	17448
910.454	17376
910.57	17303
910.685	17242
910.8	17474
910.915	17379
911.03	17166
911.145	17090
911.259	17067
911.374	17056
911.489	16999
911.604	17045
911.718	16713
911.833	16782
911.947	16801
912.062	16637
912.176	16797
912.291	16797
912.405	16790
912.519	16991
912.633	16869
912.748	16748
912.862	16752
912.976	16611
913.09	16470
913.204	16481
913.318	16687
913.431	16698
913.545	16577
913.659	16630
913.772	16500
913.886	16341
914	16451
914.113	16443
914.226	16481
914.34	16432
914.453	16257
914.566	16443
914.68	16344
914.793	16204
914.906	15998
915.019	15998
915.132	15892
915.245	15892
915.358	15960
915.47	15998
915.583	15987
915.696	15895
915.809	16036
915.921	16143
916.034	15953
916.146	15816
916.259	15827
916.371	15842
916.483	15880
916.595	15770
916.708	15717
916.82	15732
916.932	15732
917.044	15667
917.156	15682
917.268	15511
917.38	15637
917.491	15591
917.603	15618
917.715	15561
917.826	15679
917.938	15542
918.049	15507
918.161	15507
918.272	15603
918.384	15622
918.495	15450
918.606	15317
918.717	15355
918.828	15275
918.939	15473
919.05	15108
919.161	15180
919.272	14963
919.383	15203
919.494	15321
919.604	15500
919.715	15287
919.826	15119
919.936	15264
920.047	15363
920.157	15272
920.267	15469
920.378	15272
920.488	15131
920.598	15454
920.708	15511
920.818	15401
920.928	15397
921.038	15523
921.148	15477
921.258	15192
921.368	15077
921.477	14990
921.587	14899
921.697	14765
921.806	14902
921.916	14883
922.025	14644
922.134	14598
922.244	14541
922.353	14564
922.462	14461
922.571	14381
922.68	14358
922.789	14355
922.898	14142
923.007	14229
923.116	14263
923.224	14218
923.333	14275
923.442	14100
923.55	14012
923.659	14142
923.767	14195
923.876	14043
923.984	14020
924.092	14084
924.201	14035
924.309	14005
924.417	14008
924.525	13944
924.633	13883
924.741	14625
924.849	13715
924.956	13791
925.064	13636
925.172	13556
925.279	13647
925.387	13597
925.494	13708
925.602	13731
925.709	13693
925.816	13476
925.924	13521
926.031	13723
926.138	13597
926.245	13537
926.352	13449
926.459	13537
926.566	13632
926.673	13430
926.779	13259
926.886	13324
926.993	13194
927.099	13149
927.206	13244
927.312	13095
927.419	13255
927.525	13088
927.631	13282
927.737	13023
927.843	13042
927.95	12852
928.056	12947
928.162	13061
928.267	13015
928.373	13708
928.479	13114
928.585	12817
928.69	12867
928.796	12954
928.901	12700
929.007	12642
929.112	12783
929.218	12757
929.323	12703
929.428	12692
929.533	12791
929.638	12566
929.743	12658
929.848	12654
929.953	12498
930.058	12498
930.163	12285
930.267	12361
930.372	12486
930.477	12281
930.581	12551
930.685	12418
930.79	12216
930.894	12262
930.998	12194
931.103	12323
931.207	11988
931.311	11863
931.415	11821
931.519	11532
931.623	11520
