Data from test_V78500241_166.txt Node
Date: Fri Mar 25 15:42:57 CST 2022
User: usil
Spectrometer: V785-0024
Trigger mode: 0
Integration Time (sec): 4.000000E-1
Scans to average: 1
Nonlinearity correction enabled: false
Boxcar width: 0
Storing dark spectrum: false
XAxis mode: Wavelengths
Number of Pixels in Spectrum: 1024
>>>>>Begin Spectral Data<<<<<
801.071	29497
801.214	29509
801.356	29242
801.499	29128
801.641	29105
801.783	29162
801.926	29010
802.068	29022
802.211	29014
802.353	29075
802.496	28702
802.638	28668
802.78	28702
802.923	28527
803.065	28538
803.208	28588
803.35	28725
803.492	28831
803.635	28812
803.777	28626
803.919	28786
804.061	29102
804.204	28869
804.346	28679
804.488	28656
804.63	28888
804.773	28702
804.915	28767
805.057	28866
805.199	28725
805.341	28892
805.483	28869
805.626	28877
805.768	28885
805.91	28858
806.052	28915
806.194	28881
806.336	29022
806.478	29090
806.62	28919
806.762	28934
806.904	29102
807.046	29379
807.188	29318
807.33	29254
807.472	29436
807.614	29208
807.756	29147
807.898	29189
808.04	29083
808.182	29090
808.324	29094
808.465	28930
808.607	29223
808.749	29516
808.891	29585
809.033	29615
809.174	29520
809.316	29535
809.458	29554
809.6	29539
809.741	29505
809.883	29482
810.025	29551
810.166	29585
810.308	29767
810.45	29722
810.591	29752
810.733	29444
810.875	29452
811.016	29463
811.158	29414
811.299	29596
811.441	29657
811.582	29596
811.724	29478
811.865	29512
812.007	29566
812.148	29490
812.29	29573
812.431	29623
812.573	29695
812.714	29836
812.855	29916
812.997	30098
813.138	30182
813.279	30045
813.421	29992
813.562	29961
813.703	29657
813.845	29596
813.986	29311
814.127	29083
814.268	29079
814.41	29064
814.551	28934
814.692	29105
814.833	28984
814.974	28968
815.115	28915
815.256	28892
815.397	28896
815.539	28888
815.68	28896
815.821	28854
815.962	28759
816.103	28771
816.244	28694
816.385	28474
816.526	28519
816.666	28398
816.807	28287
816.948	28291
817.089	28379
817.23	28318
817.371	28344
817.512	28246
817.653	28253
817.793	28128
817.934	28219
818.075	28181
818.216	28116
818.356	28139
818.497	28124
818.638	27991
818.778	27941
818.919	27994
819.06	27884
819.2	28029
819.341	28185
819.481	28192
819.622	28238
819.762	28535
819.903	28303
820.043	28253
820.184	28013
820.324	28200
820.465	28306
820.605	28230
820.746	28246
820.886	28082
821.026	28158
821.167	28143
821.307	28310
821.447	28124
821.588	27968
821.728	27956
821.868	27713
822.008	27530
822.149	27606
822.289	27606
822.429	27256
822.569	27264
822.709	27161
822.849	27135
822.99	27066
823.13	26986
823.27	26857
823.41	26819
823.55	26568
823.69	26849
823.83	26883
823.97	26583
824.11	26575
824.25	26533
824.389	26670
824.529	26682
824.669	26480
824.809	26777
824.949	26682
825.089	26716
825.228	26644
825.368	26461
825.508	26488
825.648	26507
825.787	26503
825.927	26457
826.067	26412
826.206	26393
826.346	26514
826.485	26571
826.625	26423
826.765	26526
826.904	26613
827.044	26195
827.183	26126
827.323	26020
827.462	26161
827.601	26058
827.741	26054
827.88	26119
828.02	26008
828.159	26008
828.298	26142
828.437	26031
828.577	25966
828.716	26081
828.855	26020
828.994	25841
829.134	25772
829.273	25784
829.412	25719
829.551	25647
829.69	25723
829.829	25712
829.968	25761
830.107	25856
830.246	25780
830.385	25662
830.524	25704
830.663	25495
830.802	25362
830.941	25297
831.08	25270
831.219	25400
831.357	25293
831.496	25407
831.635	25316
831.774	25164
831.913	25183
832.051	25076
832.19	25053
832.329	24989
832.467	24977
832.606	24951
832.744	24837
832.883	24962
833.022	24867
833.16	24890
833.299	24901
833.437	24878
833.576	25057
833.714	24886
833.852	25015
833.991	25053
834.129	25008
834.267	25012
834.406	24825
834.544	24977
834.682	24943
834.821	24890
834.959	25027
835.097	24924
835.235	24920
835.373	24806
835.511	24905
835.65	24707
835.788	24833
835.926	24726
836.064	24513
836.202	24631
836.34	24798
836.478	24856
836.615	24817
836.753	24844
836.891	24795
837.029	24642
837.167	24627
837.305	24715
837.443	24707
837.58	24475
837.718	24703
837.856	24566
837.993	24475
838.131	24483
838.269	24353
838.406	24448
838.544	24300
838.681	24072
838.819	24072
838.956	24049
839.094	23961
839.231	24018
839.369	24220
839.506	24346
839.643	24262
839.781	24011
839.918	23779
840.055	23973
840.193	23882
840.33	23901
840.467	23882
840.604	23973
840.742	24140
840.879	23604
841.016	23843
841.153	23703
841.29	23843
841.427	23786
841.564	23866
841.701	23767
841.838	23680
841.975	23786
842.112	23863
842.249	23661
842.385	23596
842.522	23786
842.659	23653
842.796	23452
842.933	23414
843.069	23501
843.206	23551
843.343	23634
843.479	23554
843.616	23448
843.752	23398
843.889	23288
844.025	23524
844.162	23269
844.298	23315
844.435	23261
844.571	23273
844.708	23231
844.844	23425
844.98	23425
845.117	23311
845.253	23181
845.389	23071
845.525	23147
845.661	23041
845.798	23098
845.934	23136
846.07	22900
846.206	22984
846.342	23025
846.478	23098
846.614	22767
846.75	22691
846.886	22702
847.022	22755
847.158	22675
847.294	22702
847.429	22740
847.565	22736
847.701	22786
847.837	22417
847.972	22398
848.108	22565
848.244	22470
848.379	22295
848.515	22303
848.65	22215
848.786	22249
848.921	22265
849.057	22306
849.192	22272
849.328	22337
849.463	22196
849.598	22238
849.734	22116
849.869	22074
850.004	21949
850.14	22040
850.275	21994
850.41	21987
850.545	21873
850.68	22025
850.815	22048
850.95	21903
851.085	22162
851.22	22124
851.355	22048
851.49	22078
851.625	21979
851.76	21964
851.895	21831
852.03	21827
852.165	21930
852.299	21884
852.434	21991
852.569	22010
852.703	21945
852.838	22093
852.973	21915
853.107	21934
853.242	22013
853.376	21857
853.511	21633
853.645	21656
853.78	21918
853.914	21766
854.048	21732
854.183	21591
854.317	21682
854.451	21991
854.585	21770
854.72	21850
854.854	21827
854.988	21583
855.122	21720
855.256	21682
855.39	21717
855.524	21876
855.658	21827
855.792	21755
855.926	21823
856.06	21766
856.194	21930
856.327	21778
856.461	21762
856.595	21732
856.729	21682
856.862	21823
856.996	21774
857.13	21861
857.263	21823
857.397	21747
857.53	21728
857.664	21747
857.797	21633
857.931	21892
858.064	21694
858.197	21682
858.331	21633
858.464	21732
858.597	21519
858.731	21682
858.864	21568
858.997	21587
859.13	21701
859.263	21633
859.396	21793
859.529	21686
859.662	21576
859.795	21690
859.928	21751
860.061	21804
860.194	21797
860.327	21736
860.46	21610
860.592	21857
860.725	21934
860.858	21816
860.99	21656
861.123	21652
861.256	21660
861.388	21690
861.521	22322
861.653	21553
861.786	21496
861.918	21682
862.05	21587
862.183	21580
862.315	21690
862.447	21770
862.58	21770
862.712	21481
862.844	21458
862.976	21496
863.108	21481
863.24	21720
863.372	21355
863.504	21450
863.636	21401
863.768	21454
863.9	21458
864.032	21389
864.164	21249
864.296	21283
864.428	21393
864.559	21378
864.691	21454
864.823	21389
864.954	21237
865.086	21428
865.217	21237
865.349	21321
865.48	21241
865.612	21272
865.743	21382
865.875	21237
866.006	21108
866.137	21329
866.269	21176
866.4	21283
866.531	21180
866.662	21074
866.793	21173
866.924	21211
867.055	21165
867.186	21241
867.317	21062
867.448	20986
867.579	21207
867.71	21157
867.841	21096
867.972	21264
868.103	21058
868.233	21260
868.364	21207
868.495	21310
868.625	21397
868.756	21488
868.886	21363
869.017	21363
869.147	21500
869.278	21595
869.408	21389
869.539	21389
869.669	21424
869.799	21526
869.929	21481
870.06	21538
870.19	21660
870.32	21580
870.45	21774
870.58	21759
870.71	21873
870.84	21949
870.97	21762
871.1	21759
871.23	21968
871.36	21983
871.489	21994
871.619	22010
871.749	21953
871.879	22078
872.008	22032
872.138	22051
872.267	22070
872.397	21854
872.526	21812
872.656	21778
872.785	21861
872.915	21956
873.044	22135
873.173	22093
873.303	22013
873.432	22162
873.561	22154
873.69	22086
873.819	22017
873.948	22048
874.077	22082
874.206	22070
874.335	22044
874.464	22223
874.593	22246
874.722	22234
874.851	22200
874.979	22261
875.108	22265
875.237	22341
875.365	22105
875.494	22352
875.623	22325
875.751	22284
875.88	22230
876.008	22398
876.136	22421
876.265	22771
876.393	22771
876.521	22630
876.65	22729
876.778	22668
876.906	22546
877.034	22443
877.162	22603
877.29	22592
877.418	22763
877.546	22557
877.674	22618
877.802	22596
877.93	22607
878.058	22538
878.185	22485
878.313	22580
878.441	22630
878.568	22409
878.696	22512
878.824	22721
878.951	22683
879.079	22843
879.206	22976
879.333	22824
879.461	22485
879.588	22687
879.715	22675
879.842	22805
879.97	22797
880.097	22497
880.224	22459
880.351	22398
880.478	22333
880.605	22405
880.732	22436
880.859	22523
880.986	22504
881.112	22478
881.239	22367
881.366	22086
881.493	22048
881.619	22040
881.746	22082
881.872	22006
881.999	22025
882.125	21884
882.252	22021
882.378	22006
882.505	22021
882.631	21941
882.757	21610
882.883	21762
883.01	21694
883.136	21671
883.262	21644
883.388	21538
883.514	21690
883.64	21835
883.766	21625
883.892	21488
884.018	21405
884.143	21728
884.269	21603
884.395	21382
884.52	21306
884.646	21363
884.772	21374
884.897	21294
885.023	21367
885.148	21458
885.274	21477
885.399	21443
885.524	21313
885.65	21355
885.775	21431
885.9	21275
886.025	21458
886.15	21370
886.275	21283
886.4	21188
886.525	21230
886.65	21245
886.775	21359
886.9	21370
887.025	21561
887.149	21237
887.274	21108
887.399	21005
887.523	21005
887.648	21051
887.773	21020
887.897	21131
888.021	21009
888.146	21058
888.27	21116
888.395	21157
888.519	21066
888.643	21161
888.767	21138
888.891	20937
889.015	20902
889.139	20986
889.263	20910
889.387	20948
889.511	21001
889.635	20952
889.759	20887
889.883	20811
890.006	20849
890.13	21032
890.254	20727
890.377	20701
890.501	20629
890.624	20625
890.748	20724
890.871	20484
890.995	20427
891.118	20404
891.241	20495
891.364	20336
891.488	20579
891.611	20522
891.734	20415
891.857	20511
891.98	20465
892.103	20423
892.226	20431
892.349	20336
892.471	20180
892.594	20427
892.717	20362
892.839	20370
892.962	20423
893.085	20442
893.207	20374
893.33	20248
893.452	20286
893.575	20374
893.697	20244
893.819	20518
893.941	20560
894.064	20377
894.186	20294
894.308	20275
894.43	20400
894.552	20404
894.674	20317
894.796	20305
894.918	20271
895.04	20278
895.161	20442
895.283	20374
895.405	20221
895.526	20377
895.648	20339
895.769	20419
895.891	20320
896.012	20590
896.134	20389
896.255	20305
896.376	20355
896.498	20324
896.619	20434
896.74	20423
896.861	20476
896.982	20762
897.103	20880
897.224	20670
897.345	20488
897.466	20549
897.587	20545
897.708	20663
897.828	20606
897.949	20682
898.07	20374
898.19	20442
898.311	20648
898.431	20545
898.552	20549
898.672	20495
898.792	20621
898.913	20492
899.033	20446
899.153	20256
899.273	20191
899.393	20263
899.513	20328
899.633	20282
899.753	20320
899.873	20206
899.993	20259
900.113	20206
900.232	20298
900.352	20107
900.472	20134
900.591	20096
900.711	20081
900.83	19932
900.95	20046
901.069	20172
901.189	19906
901.308	19753
901.427	19605
901.546	19510
901.665	19563
901.784	19613
901.904	19476
902.023	19419
902.141	19156
902.26	19107
902.379	19137
902.498	19076
902.617	19122
902.735	19110
902.854	19057
902.973	19076
903.091	18814
903.21	18703
903.328	18730
903.446	18639
903.565	18582
903.683	18597
903.801	18479
903.919	18582
904.038	18525
904.156	18319
904.274	18452
904.392	18342
904.51	18380
904.627	18357
904.745	18369
904.863	18380
904.981	18117
905.098	17988
905.216	18022
905.334	17984
905.451	18030
905.569	17996
905.686	17999
905.803	17965
905.921	17889
906.038	17958
906.155	17828
906.272	17687
906.389	17756
906.506	17520
906.623	17524
906.74	17512
906.857	17395
906.974	17315
907.091	17619
907.208	17638
907.324	17467
907.441	17433
907.557	17254
907.674	17265
907.79	17151
907.907	17242
908.023	17178
908.139	17200
908.256	17105
908.372	17045
908.488	17052
908.604	16843
908.72	16816
908.836	16877
908.952	16911
909.068	16911
909.184	16930
909.3	16930
909.415	16831
909.531	16824
909.647	16660
909.762	16580
909.878	16584
909.993	16656
910.108	16683
910.224	16493
910.339	16394
910.454	16341
910.57	16360
910.685	16360
910.8	16538
910.915	16512
911.03	16348
911.145	16215
911.259	16284
911.374	16078
911.489	16086
911.604	16040
911.718	15880
911.833	15934
911.947	15831
912.062	15804
912.176	15960
912.291	15960
912.405	15979
912.519	16192
912.633	16051
912.748	15934
912.862	15838
912.976	15599
913.09	15584
913.204	15648
913.318	15682
913.431	15785
913.545	15831
913.659	15705
913.772	15679
913.886	15458
914	15466
914.113	15545
914.226	15618
914.34	15523
914.453	15348
914.566	15549
914.68	15344
914.793	15477
914.906	15123
915.019	15043
915.132	14998
915.245	15032
915.358	15039
915.47	15104
915.583	15138
915.696	15119
915.809	15222
915.921	15218
916.034	15036
916.146	14948
916.259	14921
916.371	15051
916.483	15055
916.595	14834
916.708	14944
916.82	14982
916.932	14914
917.044	14895
917.156	14773
917.268	14705
917.38	14716
917.491	14689
917.603	14834
917.715	14792
917.826	14845
917.938	14689
918.049	14598
918.161	14663
918.272	14823
918.384	14823
918.495	14705
918.606	14461
918.717	14465
918.828	14469
918.939	14507
919.05	14450
919.161	14457
919.272	14263
919.383	14301
919.494	14488
919.604	14632
919.715	14579
919.826	14396
919.936	14469
920.047	14514
920.157	14355
920.267	14575
920.378	14419
920.488	14457
920.598	14590
920.708	14750
920.818	14549
920.928	14564
921.038	14602
921.148	14606
921.258	14377
921.368	14259
921.477	14168
921.587	14081
921.697	14077
921.806	14195
921.916	13993
922.025	13826
922.134	13788
922.244	13719
922.353	13791
922.462	13719
922.571	13647
922.68	13480
922.789	13396
922.898	13476
923.007	13297
923.116	13468
923.224	13354
923.333	13464
923.442	13240
923.55	13244
923.659	13228
923.767	13335
923.876	13164
923.984	13335
924.092	13133
924.201	13270
924.309	13114
924.417	13031
924.525	13057
924.633	13088
924.741	13837
924.849	12962
924.956	13015
925.064	12913
925.172	12783
925.279	12837
925.387	12886
925.494	12814
925.602	13038
925.709	12916
925.816	12783
925.924	12779
926.031	12932
926.138	12856
926.245	12776
926.352	12726
926.459	12848
926.566	12795
926.673	12585
926.779	12601
926.886	12627
926.993	12521
927.099	12506
927.206	12384
927.312	12304
927.419	12486
927.525	12338
927.631	12475
927.737	12304
927.843	12281
927.95	12194
928.056	12334
928.162	12254
928.267	12319
928.373	12890
928.479	12289
928.585	12060
928.69	12201
928.796	12190
928.901	12019
929.007	11988
929.112	12072
929.218	12045
929.323	12034
929.428	11916
929.533	12015
929.638	11965
929.743	11893
929.848	11992
929.953	11859
930.058	11737
930.163	11592
930.267	11691
930.372	11775
930.477	11619
930.581	11843
930.685	11642
930.79	11512
930.894	11611
930.998	11478
931.103	11592
931.207	11303
931.311	11136
931.415	11098
931.519	10854
931.623	10820
