Data from test_V78500241_2626.txt Node
Date: Fri Mar 25 15:59:59 CST 2022
User: usil
Spectrometer: V785-0024
Trigger mode: 0
Integration Time (sec): 4.000000E-1
Scans to average: 1
Nonlinearity correction enabled: false
Boxcar width: 0
Storing dark spectrum: false
XAxis mode: Wavelengths
Number of Pixels in Spectrum: 1024
>>>>>Begin Spectral Data<<<<<
801.071	29003
801.214	28984
801.356	28588
801.499	28672
801.641	28447
801.783	28523
801.926	28588
802.068	28535
802.211	28546
802.353	28451
802.496	28219
802.638	28226
802.78	28082
802.923	28166
803.065	28173
803.208	28017
803.35	28238
803.492	28375
803.635	28512
803.777	28493
803.919	28325
804.061	28748
804.204	28622
804.346	28459
804.488	28432
804.63	28538
804.773	28554
804.915	28577
805.057	28569
805.199	28615
805.341	28710
805.483	28672
805.626	28565
805.768	28443
805.91	28752
806.052	28717
806.194	28470
806.336	28877
806.478	28641
806.62	28584
806.762	28664
806.904	29037
807.046	29083
807.188	29143
807.33	29109
807.472	29117
807.614	29151
807.756	29022
807.898	29014
808.04	28934
808.182	29022
808.324	28862
808.465	28961
808.607	29223
808.749	29265
808.891	29360
809.033	29471
809.174	29433
809.316	29375
809.458	29299
809.6	29356
809.741	29360
809.883	29501
810.025	29592
810.166	29543
810.308	29676
810.45	29611
810.591	29543
810.733	29448
810.875	29421
811.016	29197
811.158	29159
811.299	29551
811.441	29482
811.582	29539
811.724	29375
811.865	29315
812.007	29433
812.148	29429
812.29	29379
812.431	29486
812.573	29729
812.714	29897
812.855	29840
812.997	29973
813.138	30155
813.279	29980
813.421	29855
813.562	29821
813.703	29672
813.845	29471
813.986	29353
814.127	29235
814.268	29056
814.41	29090
814.551	28957
814.692	29261
814.833	29136
814.974	29083
815.115	29151
815.256	29048
815.397	28957
815.539	29117
815.68	28968
815.821	28862
815.962	28980
816.103	28991
816.244	28805
816.385	28672
816.526	28592
816.666	28500
816.807	28371
816.948	28462
817.089	28489
817.23	28466
817.371	28344
817.512	28531
817.653	28371
817.793	28375
817.934	28462
818.075	28523
818.216	28462
818.356	28535
818.497	28261
818.638	28143
818.778	28082
818.919	28109
819.06	28341
819.2	28379
819.341	28360
819.481	28447
819.622	28584
819.762	28797
819.903	28679
820.043	28771
820.184	28710
820.324	28508
820.465	28607
820.605	28561
820.746	28645
820.886	28535
821.026	28550
821.167	28489
821.307	28596
821.447	28512
821.588	28394
821.728	28306
821.868	27930
822.008	27888
822.149	28006
822.289	27964
822.429	27637
822.569	27663
822.709	27583
822.849	27447
822.99	27397
823.13	27332
823.27	27256
823.41	27291
823.55	27135
823.69	27199
823.83	27306
823.97	27218
824.11	26838
824.25	27108
824.389	27207
824.529	27070
824.669	27074
824.809	27298
824.949	27230
825.089	27142
825.228	27150
825.368	26960
825.508	26883
825.648	26944
825.787	27013
825.927	27089
826.067	27138
826.206	26979
826.346	27184
826.485	27020
826.625	27032
826.765	27066
826.904	27104
827.044	26758
827.183	26758
827.323	26659
827.462	26765
827.601	26697
827.741	26556
827.88	26773
828.02	26594
828.159	26693
828.298	26705
828.437	26743
828.577	26765
828.716	26746
828.855	26724
828.994	26393
829.134	26450
829.273	26495
829.412	26438
829.551	26233
829.69	26469
829.829	26434
829.968	26313
830.107	26381
830.246	26389
830.385	26237
830.524	26225
830.663	26199
830.802	26081
830.941	26054
831.08	26035
831.219	26187
831.357	26043
831.496	26221
831.635	26016
831.774	25955
831.913	25906
832.051	25845
832.19	25871
832.329	25818
832.467	25616
832.606	25647
832.744	25567
832.883	25559
833.022	25597
833.16	25681
833.299	25734
833.437	25643
833.576	25670
833.714	25856
833.852	25643
833.991	25712
834.129	25738
834.267	25769
834.406	25772
834.544	25818
834.682	25643
834.821	25753
834.959	25966
835.097	25635
835.235	25731
835.373	25734
835.511	25723
835.65	25533
835.788	25586
835.926	25449
836.064	25221
836.202	25301
836.34	25537
836.478	25647
836.615	25510
836.753	25487
836.891	25567
837.029	25506
837.167	25529
837.305	25499
837.443	25441
837.58	25384
837.718	25422
837.856	25426
837.993	25369
838.131	25316
838.269	25236
838.406	25358
838.544	25042
838.681	25076
838.819	24989
838.956	24928
839.094	24806
839.231	24924
839.369	24939
839.506	25331
839.643	25129
839.781	24913
839.918	24753
840.055	24837
840.193	24741
840.33	24798
840.467	24745
840.604	24734
840.742	24985
840.879	24540
841.016	24642
841.153	24582
841.29	24753
841.427	24779
841.564	24654
841.701	24707
841.838	24665
841.975	24551
842.112	24677
842.249	24578
842.385	24521
842.522	24623
842.659	24475
842.796	24418
842.933	24448
843.069	24296
843.206	24311
843.343	24589
843.479	24334
843.616	24464
843.752	24334
843.889	24266
844.025	24365
844.162	24395
844.298	24365
844.435	24258
844.571	24228
844.708	24315
844.844	24380
844.98	24452
845.117	24384
845.253	24273
845.389	24038
845.525	24190
845.661	24011
845.798	23927
845.934	24060
846.07	24114
846.206	23954
846.342	24083
846.478	23843
846.614	23794
846.75	23695
846.886	23729
847.022	23859
847.158	23790
847.294	23733
847.429	23741
847.565	23596
847.701	23996
847.837	23368
847.972	23311
848.108	23360
848.244	23501
848.379	23383
848.515	23349
848.65	23193
848.786	23235
848.921	23341
849.057	23296
849.192	23368
849.328	23269
849.463	23299
849.598	23341
849.734	23185
849.869	23132
850.004	23071
850.14	23109
850.275	23052
850.41	22946
850.545	22881
850.68	23064
850.815	23170
850.95	23044
851.085	23265
851.22	23155
851.355	23037
851.49	23041
851.625	22949
851.76	23056
851.895	22938
852.03	23041
852.165	22923
852.299	23136
852.434	23124
852.569	23067
852.703	23014
852.838	23105
852.973	23094
853.107	23189
853.242	22881
853.376	22987
853.511	22774
853.645	22816
853.78	23067
853.914	22767
854.048	22946
854.183	22908
854.317	22915
854.451	23083
854.585	22930
854.72	22786
854.854	22953
854.988	22812
855.122	22862
855.256	22778
855.39	22828
855.524	22854
855.658	22919
855.792	22889
855.926	22889
856.06	22889
856.194	22957
856.327	22835
856.461	22782
856.595	22782
856.729	22923
856.862	23014
856.996	22759
857.13	22809
857.263	23109
857.397	22953
857.53	22961
857.664	22869
857.797	22873
857.931	22930
858.064	22824
858.197	23006
858.331	22717
858.464	22843
858.597	22778
858.731	22812
858.864	22793
858.997	22911
859.13	22934
859.263	22839
859.396	22953
859.529	22869
859.662	22733
859.795	22797
859.928	22847
860.061	22938
860.194	23064
860.327	22965
860.46	22877
860.592	23029
860.725	23064
860.858	22987
860.99	22885
861.123	22831
861.256	22839
861.388	22953
861.521	23657
861.653	22755
861.786	22675
861.918	22725
862.05	22767
862.183	22843
862.315	22641
862.447	22828
862.58	22774
862.712	22611
862.844	22504
862.976	22698
863.108	22774
863.24	22968
863.372	22615
863.504	22607
863.636	22653
863.768	22569
863.9	22645
864.032	22516
864.164	22497
864.296	22668
864.428	22790
864.559	22664
864.691	22607
864.823	22637
864.954	22561
865.086	22611
865.217	22497
865.349	22344
865.48	22428
865.612	22405
865.743	22554
865.875	22459
866.006	22436
866.137	22455
866.269	22447
866.4	22436
866.531	22367
866.662	22329
866.793	22261
866.924	22451
867.055	22375
867.186	22535
867.317	22318
867.448	22246
867.579	22295
867.71	22413
867.841	22177
867.972	22421
868.103	22280
868.233	22394
868.364	22421
868.495	22535
868.625	22679
868.756	22694
868.886	22523
869.017	22592
869.147	22809
869.278	22637
869.408	22569
869.539	22637
869.669	22763
869.799	22736
869.929	22755
870.06	22752
870.19	22908
870.32	22862
870.45	22892
870.58	22923
870.71	23258
870.84	23052
870.97	22984
871.1	23098
871.23	23170
871.36	23181
871.489	23067
871.619	23189
871.749	23277
871.879	23159
872.008	23239
872.138	23136
872.267	23178
872.397	23109
872.526	23102
872.656	23143
872.785	23029
872.915	23280
873.044	23368
873.173	23292
873.303	23318
873.432	23296
873.561	23315
873.69	23204
873.819	23326
873.948	23315
874.077	23151
874.206	23151
874.335	23105
874.464	23261
874.593	23524
874.722	23478
874.851	23478
874.979	23512
875.108	23452
875.237	23391
875.365	23379
875.494	23406
875.623	23638
875.751	23391
875.88	23471
876.008	23566
876.136	23512
876.265	23821
876.393	24106
876.521	23805
876.65	23870
876.778	23904
876.906	23733
877.034	23824
877.162	23691
877.29	23600
877.418	23680
877.546	23798
877.674	23832
877.802	23649
877.93	23748
878.058	23798
878.185	23630
878.313	23649
878.441	23687
878.568	23482
878.696	23695
878.824	23805
878.951	23916
879.079	23920
879.206	24034
879.333	23973
879.461	23824
879.588	23973
879.715	23958
879.842	24079
879.97	23779
880.097	23630
880.224	23539
880.351	23646
880.478	23535
880.605	23524
880.732	23615
880.859	23847
880.986	23562
881.112	23497
881.239	23433
881.366	23356
881.493	23208
881.619	23166
881.746	23064
881.872	23254
881.999	23090
882.125	23052
882.252	23124
882.378	23010
882.505	23303
882.631	22927
882.757	22877
882.883	22854
883.01	22748
883.136	22801
883.262	22679
883.388	22801
883.514	22786
883.64	22786
883.766	22748
883.892	22519
884.018	22485
884.143	22850
884.269	22782
884.395	22474
884.52	22398
884.646	22432
884.772	22356
884.897	22390
885.023	22519
885.148	22440
885.274	22565
885.399	22565
885.524	22428
885.65	22542
885.775	22516
885.9	22447
886.025	22432
886.15	22436
886.275	22394
886.4	22295
886.525	22421
886.65	22318
886.775	22318
886.9	22455
887.025	22599
887.149	22268
887.274	22356
887.399	22322
887.523	22249
887.648	22246
887.773	22021
887.897	22329
888.021	22211
888.146	22021
888.27	22226
888.395	22299
888.519	22192
888.643	22230
888.767	22287
888.891	22078
889.015	21998
889.139	22055
889.263	21979
889.387	22097
889.511	22120
889.635	22090
889.759	21987
889.883	21953
890.006	21930
890.13	22090
890.254	21876
890.377	21915
890.501	21827
890.624	21625
890.748	21720
890.871	21580
890.995	21511
891.118	21553
891.241	21530
891.364	21477
891.488	21576
891.611	21538
891.734	21519
891.857	21629
891.98	21572
892.103	21644
892.226	21481
892.349	21561
892.471	21321
892.594	21416
892.717	21549
892.839	21317
892.962	21416
893.085	21481
893.207	21428
893.33	21306
893.452	21298
893.575	21431
893.697	21359
893.819	21583
893.941	21656
894.064	21473
894.186	21420
894.308	21241
894.43	21408
894.552	21523
894.674	21515
894.796	21287
894.918	21374
895.04	21450
895.161	21389
895.283	21389
895.405	21344
895.526	21298
895.648	21306
895.769	21412
895.891	21435
896.012	21431
896.134	21359
896.255	21439
896.376	21336
896.498	21355
896.619	21382
896.74	21264
896.861	21374
896.982	21603
897.103	21739
897.224	21557
897.345	21443
897.466	21530
897.587	21523
897.708	21637
897.828	21587
897.949	21485
898.07	21382
898.19	21549
898.311	21545
898.431	21553
898.552	21652
898.672	21629
898.792	21595
898.913	21515
899.033	21576
899.153	21389
899.273	21260
899.393	21310
899.513	21332
899.633	21252
899.753	21378
899.873	21252
899.993	21211
900.113	21279
900.232	21237
900.352	21279
900.472	21070
900.591	21020
900.711	21070
900.83	20933
900.95	21157
901.069	21051
901.189	21005
901.308	20792
901.427	20583
901.546	20670
901.665	20659
901.784	20640
901.904	20457
902.023	20438
902.141	20168
902.26	20134
902.379	20149
902.498	20122
902.617	20134
902.735	20168
902.854	20145
902.973	19986
903.091	19795
903.21	19677
903.328	19746
903.446	19719
903.565	19556
903.683	19578
903.801	19411
903.919	19480
904.038	19441
904.156	19388
904.274	19445
904.392	19282
904.51	19289
904.627	19316
904.745	19289
904.863	19324
904.981	19202
905.098	18958
905.216	18890
905.334	18928
905.451	18973
905.569	19046
905.686	19031
905.803	18939
905.921	18734
906.038	18882
906.155	18814
906.272	18623
906.389	18734
906.506	18570
906.623	18627
906.74	18486
906.857	18467
906.974	18494
907.091	18589
907.208	18612
907.324	18532
907.441	18391
907.557	18129
907.674	18285
907.79	18205
907.907	18098
908.023	18350
908.139	18194
908.256	18174
908.372	18041
908.488	18159
908.604	18015
908.72	18011
908.836	17965
908.952	17840
909.068	17840
909.184	18026
909.3	17946
909.415	17920
909.531	17946
909.647	17798
909.762	17611
909.878	17592
909.993	17596
910.108	17608
910.224	17414
910.339	17543
910.454	17501
910.57	17353
910.685	17376
910.8	17646
910.915	17573
911.03	17429
911.145	17318
911.259	17254
911.374	17181
911.489	17037
911.604	17018
911.718	16999
911.833	16949
911.947	16778
912.062	16717
912.176	16831
912.291	16839
912.405	16968
912.519	17090
912.633	17075
912.748	16965
912.862	16904
912.976	16736
913.09	16649
913.204	16717
913.318	16615
913.431	16828
913.545	16805
913.659	16786
913.772	16675
913.886	16584
914	16485
914.113	16561
914.226	16660
914.34	16683
914.453	16371
914.566	16497
914.68	16421
914.793	16329
914.906	16181
915.019	16128
915.132	15998
915.245	16044
915.358	16253
915.47	16059
915.583	16048
915.696	16097
915.809	16253
915.921	16272
916.034	15987
916.146	16090
916.259	15991
916.371	16059
916.483	16029
916.595	16006
916.708	15869
916.82	15987
916.932	15823
917.044	15823
917.156	15842
917.268	15747
917.38	15739
917.491	15804
917.603	15755
917.715	15804
917.826	15747
917.938	15663
918.049	15599
918.161	15720
918.272	15762
918.384	15831
918.495	15622
918.606	15477
918.717	15359
918.828	15454
918.939	15374
919.05	15393
919.161	15386
919.272	15241
919.383	15344
919.494	15519
919.604	15599
919.715	15336
919.826	15367
919.936	15389
920.047	15450
920.157	15435
920.267	15515
920.378	15386
920.488	15363
920.598	15625
920.708	15705
920.818	15496
920.928	15515
921.038	15595
921.148	15633
921.258	15401
921.368	15214
921.477	15203
921.587	15058
921.697	15058
921.806	15199
921.916	14963
922.025	14834
922.134	14826
922.244	14716
922.353	14765
922.462	14655
922.571	14499
922.68	14495
922.789	14347
922.898	14431
923.007	14301
923.116	14412
923.224	14362
923.333	14313
923.442	14305
923.55	14183
923.659	14244
923.767	14282
923.876	14138
923.984	14259
924.092	14176
924.201	14180
924.309	14077
924.417	14092
924.525	14024
924.633	13932
924.741	14975
924.849	13776
924.956	13879
925.064	13780
925.172	13738
925.279	13727
925.387	13906
925.494	13795
925.602	13841
925.709	13776
925.816	13700
925.924	13734
926.031	13750
926.138	13620
926.245	13723
926.352	13647
926.459	13681
926.566	13757
926.673	13616
926.779	13552
926.886	13445
926.993	13373
927.099	13304
927.206	13263
927.312	13244
927.419	13365
927.525	13293
927.631	13236
927.737	13126
927.843	13190
927.95	12939
928.056	13107
928.162	13122
928.267	13065
928.373	13647
928.479	13213
928.585	13000
928.69	13012
928.796	13110
928.901	13015
929.007	12814
929.112	12939
929.218	12882
929.323	12726
929.428	12821
929.533	12951
929.638	12692
929.743	12783
929.848	12810
929.953	12753
930.058	12597
930.163	12426
930.267	12483
930.372	12559
930.477	12433
930.581	12635
930.685	12525
930.79	12361
930.894	12395
930.998	12342
931.103	12452
931.207	12133
931.311	11946
931.415	11923
931.519	11798
931.623	11752
