Data from test_V78500241_3561.txt Node
Date: Fri Mar 25 16:06:28 CST 2022
User: usil
Spectrometer: V785-0024
Trigger mode: 0
Integration Time (sec): 4.000000E-1
Scans to average: 1
Nonlinearity correction enabled: false
Boxcar width: 0
Storing dark spectrum: false
XAxis mode: Wavelengths
Number of Pixels in Spectrum: 1024
>>>>>Begin Spectral Data<<<<<
801.071	28679
801.214	28793
801.356	28428
801.499	28478
801.641	28268
801.783	28333
801.926	28573
802.068	28226
802.211	28337
802.353	28238
802.496	28082
802.638	27903
802.78	28063
802.923	27914
803.065	27827
803.208	27956
803.35	27949
803.492	28200
803.635	28219
803.777	28090
803.919	28337
804.061	28653
804.204	28295
804.346	28272
804.488	28215
804.63	28162
804.773	28226
804.915	28325
805.057	28367
805.199	28242
805.341	28284
805.483	28394
805.626	28405
805.768	28375
805.91	28432
806.052	28554
806.194	28474
806.336	28740
806.478	28413
806.62	28451
806.762	28500
806.904	28645
807.046	28927
807.188	28953
807.33	28748
807.472	28953
807.614	28786
807.756	28949
807.898	28839
808.04	28649
808.182	28679
808.324	28763
808.465	28835
808.607	29044
808.749	29181
808.891	29273
809.033	29193
809.174	29345
809.316	29132
809.458	29220
809.6	29071
809.741	29372
809.883	29322
810.025	29474
810.166	29444
810.308	29512
810.45	29296
810.591	29375
810.733	29044
810.875	29235
811.016	29014
811.158	28968
811.299	29299
811.441	29315
811.582	29227
811.724	29261
811.865	29121
812.007	29067
812.148	29197
812.29	29200
812.431	29444
812.573	29486
812.714	29562
812.855	29581
812.997	29710
813.138	29893
813.279	29817
813.421	29642
813.562	29638
813.703	29440
813.845	29250
813.986	29064
814.127	29025
814.268	28694
814.41	29098
814.551	28892
814.692	28812
814.833	28736
814.974	28755
815.115	28824
815.256	28615
815.397	28809
815.539	28793
815.68	28557
815.821	28603
815.962	28706
816.103	28664
816.244	28653
816.385	28447
816.526	28436
816.666	28234
816.807	28325
816.948	28211
817.089	28291
817.23	28059
817.371	28181
817.512	28192
817.653	28128
817.793	28059
817.934	28196
818.075	28356
818.216	28181
818.356	28166
818.497	28109
818.638	27960
818.778	27949
818.919	27888
819.06	28006
819.2	28006
819.341	28166
819.481	28055
819.622	28268
819.762	28653
819.903	28512
820.043	28367
820.184	28246
820.324	28303
820.465	28356
820.605	28352
820.746	28360
820.886	28105
821.026	28329
821.167	28268
821.307	28253
821.447	28124
821.588	28181
821.728	28029
821.868	27926
822.008	27686
822.149	27759
822.289	27622
822.429	27329
822.569	27378
822.709	27313
822.849	27108
822.99	27108
823.13	27154
823.27	27096
823.41	27020
823.55	26857
823.69	26979
823.83	26948
823.97	26887
824.11	26769
824.25	26621
824.389	26781
824.529	26918
824.669	26739
824.809	27039
824.949	26838
825.089	26910
825.228	26727
825.368	26674
825.508	26659
825.648	26712
825.787	26765
825.927	26746
826.067	26765
826.206	26655
826.346	26746
826.485	26697
826.625	26712
826.765	26804
826.904	26701
827.044	26450
827.183	26598
827.323	26301
827.462	26499
827.601	26503
827.741	26495
827.88	26431
828.02	26324
828.159	26294
828.298	26362
828.437	26484
828.577	26313
828.716	26518
828.855	26339
828.994	26103
829.134	26100
829.273	26043
829.412	26024
829.551	25970
829.69	26138
829.829	26035
829.968	26187
830.107	26164
830.246	26107
830.385	26035
830.524	26069
830.663	25955
830.802	25807
830.941	25727
831.08	25772
831.219	25811
831.357	25746
831.496	25993
831.635	25727
831.774	25605
831.913	25586
832.051	25647
832.19	25525
832.329	25552
832.467	25373
832.606	25304
832.744	25247
832.883	25259
833.022	25358
833.16	25411
833.299	25251
833.437	25472
833.576	25426
833.714	25411
833.852	25495
833.991	25559
834.129	25422
834.267	25563
834.406	25472
834.544	25346
834.682	25365
834.821	25350
834.959	25586
835.097	25575
835.235	25388
835.373	25289
835.511	25441
835.65	25247
835.788	25343
835.926	25107
836.064	25038
836.202	25027
836.34	25365
836.478	25369
836.615	25308
836.753	25320
836.891	25354
837.029	25141
837.167	25217
837.305	25129
837.443	25069
837.58	25034
837.718	25072
837.856	25145
837.993	25099
838.131	24970
838.269	24878
838.406	25015
838.544	25000
838.681	24795
838.819	24661
838.956	24616
839.094	24601
839.231	24707
839.369	24757
839.506	24875
839.643	24867
839.781	24513
839.918	24525
840.055	24532
840.193	24540
840.33	24372
840.467	24395
840.604	24429
840.742	24703
840.879	24270
841.016	24407
841.153	24281
841.29	24464
841.427	24502
841.564	24426
841.701	24334
841.838	24285
841.975	24243
842.112	24342
842.249	24220
842.385	24197
842.522	24513
842.659	24220
842.796	24133
842.933	24228
843.069	24106
843.206	24106
843.343	24292
843.479	24114
843.616	24201
843.752	23992
843.889	24098
844.025	23977
844.162	24136
844.298	23984
844.435	24026
844.571	23786
844.708	23977
844.844	24076
844.98	24201
845.117	24064
845.253	23973
845.389	23817
845.525	23863
845.661	23870
845.798	23680
845.934	23821
846.07	23611
846.206	23710
846.342	23916
846.478	23661
846.614	23379
846.75	23296
846.886	23486
847.022	23501
847.158	23383
847.294	23372
847.429	23452
847.565	23436
847.701	23600
847.837	23235
847.972	23064
848.108	23345
848.244	23303
848.379	23056
848.515	23003
848.65	22984
848.786	22896
848.921	23067
849.057	23140
849.192	23086
849.328	23010
849.463	22942
849.598	22847
849.734	22908
849.869	22911
850.004	22645
850.14	22843
850.275	22752
850.41	22713
850.545	22679
850.68	22755
850.815	22854
850.95	22755
851.085	22980
851.22	22927
851.355	22725
851.49	22740
851.625	22736
851.76	22740
851.895	22809
852.03	22611
852.165	22710
852.299	22752
852.434	22930
852.569	22866
852.703	22656
852.838	22801
852.973	22843
853.107	22942
853.242	22717
853.376	22675
853.511	22550
853.645	22573
853.78	22900
853.914	22645
854.048	22577
854.183	22592
854.317	22542
854.451	22805
854.585	22649
854.72	22656
854.854	22702
854.988	22504
855.122	22550
855.256	22474
855.39	22592
855.524	22645
855.658	22717
855.792	22637
855.926	22706
856.06	22653
856.194	22748
856.327	22599
856.461	22462
856.595	22478
856.729	22527
856.862	22634
856.996	22523
857.13	22694
857.263	22733
857.397	22706
857.53	22626
857.664	22668
857.797	22611
857.931	22710
858.064	22611
858.197	22767
858.331	22592
858.464	22607
858.597	22531
858.731	22634
858.864	22470
858.997	22527
859.13	22649
859.263	22588
859.396	22782
859.529	22599
859.662	22580
859.795	22512
859.928	22668
860.061	22679
860.194	22729
860.327	22577
860.46	22580
860.592	22653
860.725	22778
860.858	22672
860.99	22611
861.123	22424
861.256	22538
861.388	22535
861.521	23341
861.653	22504
861.786	22375
861.918	22375
862.05	22474
862.183	22573
862.315	22424
862.447	22672
862.58	22478
862.712	22447
862.844	22379
862.976	22379
863.108	22367
863.24	22896
863.372	22226
863.504	22291
863.636	22325
863.768	22367
863.9	22417
864.032	22207
864.164	22291
864.296	22325
864.428	22417
864.559	22443
864.691	22325
864.823	22276
864.954	22287
865.086	22200
865.217	22223
865.349	22173
865.48	22162
865.612	22154
865.743	22348
865.875	22295
866.006	22109
866.137	22101
866.269	22093
866.4	22246
866.531	22169
866.662	22074
866.793	22177
866.924	22272
867.055	22246
867.186	22090
867.317	22147
867.448	22070
867.579	22166
867.71	21983
867.841	22147
867.972	22086
868.103	22010
868.233	22150
868.364	22200
868.495	22303
868.625	22344
868.756	22512
868.886	22478
869.017	22390
869.147	22546
869.278	22485
869.408	22474
869.539	22447
869.669	22432
869.799	22348
869.929	22451
870.06	22344
870.19	22653
870.32	22702
870.45	22706
870.58	22752
870.71	22782
870.84	22797
870.97	22812
871.1	22862
871.23	22991
871.36	23113
871.489	22961
871.619	22965
871.749	22881
871.879	23025
872.008	23075
872.138	23056
872.267	23094
872.397	22843
872.526	22923
872.656	22946
872.785	22896
872.915	22946
873.044	23079
873.173	23014
873.303	23090
873.432	23075
873.561	23003
873.69	22957
873.819	23006
873.948	23109
874.077	23067
874.206	22934
874.335	22938
874.464	23151
874.593	23212
874.722	23109
874.851	23242
874.979	23216
875.108	23322
875.237	23113
875.365	23102
875.494	23204
875.623	23174
875.751	23242
875.88	23242
876.008	23299
876.136	23356
876.265	23577
876.393	23775
876.521	23714
876.65	23726
876.778	23657
876.906	23406
877.034	23528
877.162	23611
877.29	23539
877.418	23490
877.546	23486
877.674	23383
877.802	23642
877.93	23440
878.058	23554
878.185	23391
878.313	23425
878.441	23528
878.568	23493
878.696	23459
878.824	23558
878.951	23581
879.079	23691
879.206	23809
879.333	23714
879.461	23482
879.588	23551
879.715	23798
879.842	23840
879.97	23551
880.097	23353
880.224	23364
880.351	23292
880.478	23471
880.605	23356
880.732	23387
880.859	23589
880.986	23292
881.112	23501
881.239	23181
881.366	23048
881.493	22980
881.619	23010
881.746	23022
881.872	22915
881.999	22946
882.125	22835
882.252	22843
882.378	22828
882.505	23090
882.631	22790
882.757	22653
882.883	22698
883.01	22710
883.136	22531
883.262	22474
883.388	22462
883.514	22618
883.64	22672
883.766	22573
883.892	22382
884.018	22493
884.143	22443
884.269	22592
884.395	22284
884.52	22284
884.646	22284
884.772	22082
884.897	22150
885.023	22234
885.148	22310
885.274	22398
885.399	22325
885.524	22261
885.65	22230
885.775	22284
885.9	22284
886.025	22295
886.15	22367
886.275	22257
886.4	22261
886.525	22226
886.65	22181
886.775	22124
886.9	22432
887.025	22462
887.149	22166
887.274	21930
887.399	22112
887.523	22010
887.648	21934
887.773	21892
887.897	21983
888.021	21865
888.146	21922
888.27	21975
888.395	22044
888.519	22029
888.643	21972
888.767	21964
888.891	21979
889.015	21743
889.139	21911
889.263	21694
889.387	21823
889.511	21968
889.635	21930
889.759	21781
889.883	21789
890.006	21781
890.13	21816
890.254	21698
890.377	21724
890.501	21454
890.624	21458
890.748	21595
890.871	21401
890.995	21393
891.118	21310
891.241	21291
891.364	21378
891.488	21389
891.611	21454
891.734	21321
891.857	21526
891.98	21408
892.103	21393
892.226	21306
892.349	21272
892.471	21119
892.594	21207
892.717	21123
892.839	21264
892.962	21169
893.085	21321
893.207	21195
893.33	21142
893.452	21100
893.575	21370
893.697	21085
893.819	21325
893.941	21420
894.064	21348
894.186	21089
894.308	21070
894.43	21287
894.552	21386
894.674	21302
894.796	21154
894.918	21146
895.04	21199
895.161	21294
895.283	21203
895.405	21131
895.526	21260
895.648	21180
895.769	21180
895.891	21256
896.012	21192
896.134	21146
896.255	21264
896.376	21077
896.498	21214
896.619	21222
896.74	21252
896.861	21249
896.982	21473
897.103	21633
897.224	21435
897.345	21469
897.466	21336
897.587	21412
897.708	21485
897.828	21473
897.949	21389
898.07	21131
898.19	21275
898.311	21606
898.431	21386
898.552	21363
898.672	21462
898.792	21447
898.913	21374
899.033	21249
899.153	21096
899.273	21138
899.393	21096
899.513	21218
899.633	21173
899.753	21039
899.873	21058
899.993	21154
900.113	21089
900.232	21135
900.352	21017
900.472	20975
900.591	20975
900.711	20952
900.83	20834
900.95	20979
901.069	20975
901.189	20826
901.308	20651
901.427	20385
901.546	20488
901.665	20560
901.784	20469
901.904	20324
902.023	20191
902.141	20050
902.26	20058
902.379	20161
902.498	19841
902.617	19887
902.735	19974
902.854	19894
902.973	19814
903.091	19704
903.21	19674
903.328	19632
903.446	19487
903.565	19430
903.683	19422
903.801	19289
903.919	19350
904.038	19453
904.156	19247
904.274	19278
904.392	19122
904.51	19145
904.627	19095
904.745	19126
904.863	19065
904.981	18932
905.098	18894
905.216	18894
905.334	18878
905.451	18821
905.569	18837
905.686	18791
905.803	18821
905.921	18627
906.038	18654
906.155	18589
906.272	18528
906.389	18528
906.506	18338
906.623	18403
906.74	18281
906.857	18251
906.974	18209
907.091	18437
907.208	18433
907.324	18311
907.441	18167
907.557	18053
907.674	18102
907.79	18045
907.907	17942
908.023	18041
908.139	18057
908.256	18106
908.372	17931
908.488	17954
908.604	17866
908.72	17737
908.836	17764
908.952	17756
909.068	17722
909.184	17832
909.3	17729
909.415	17847
909.531	17745
909.647	17653
909.762	17524
909.878	17398
909.993	17478
910.108	17493
910.224	17421
910.339	17440
910.454	17258
910.57	17254
910.685	17341
910.8	17467
910.915	17303
911.03	17318
911.145	17109
911.259	17018
911.374	17117
911.489	17075
911.604	16919
911.718	16862
911.833	16793
911.947	16656
912.062	16538
912.176	16713
912.291	16740
912.405	16820
912.519	16915
912.633	16999
912.748	16763
912.862	16828
912.976	16603
913.09	16512
913.204	16592
913.318	16531
913.431	16767
913.545	16637
913.659	16710
913.772	16535
913.886	16428
914	16405
914.113	16443
914.226	16455
914.34	16333
914.453	16257
914.566	16409
914.68	16234
914.793	16150
914.906	16010
915.019	16021
915.132	15949
915.245	15949
915.358	15953
915.47	15930
915.583	15953
915.696	15972
915.809	15953
915.921	16051
916.034	15876
916.146	15888
916.259	15816
916.371	15895
916.483	15907
916.595	15797
916.708	15728
916.82	15808
916.932	15762
917.044	15800
917.156	15637
917.268	15519
917.38	15591
917.491	15591
917.603	15576
917.715	15637
917.826	15686
917.938	15500
918.049	15431
918.161	15466
918.272	15637
918.384	15701
918.495	15584
918.606	15321
918.717	15218
918.828	15408
918.939	15412
919.05	15146
919.161	15306
919.272	15058
919.383	15116
919.494	15298
919.604	15545
919.715	15256
919.826	15173
919.936	15226
920.047	15313
920.157	15203
920.267	15428
920.378	15268
920.488	15211
920.598	15424
920.708	15492
920.818	15363
920.928	15370
921.038	15530
921.148	15515
921.258	15237
921.368	15104
921.477	15043
921.587	14918
921.697	14914
921.806	15013
921.916	14849
922.025	14583
922.134	14545
922.244	14568
922.353	14686
922.462	14492
922.571	14431
922.68	14275
922.789	14278
922.898	14336
923.007	14180
923.116	14259
923.224	14225
923.333	14172
923.442	14096
923.55	14016
923.659	14077
923.767	14149
923.876	14012
923.984	14111
924.092	13978
924.201	14043
924.309	13936
924.417	14005
924.525	13845
924.633	13909
924.741	14937
924.849	13674
924.956	13845
925.064	13563
925.172	13594
925.279	13616
925.387	13704
925.494	13666
925.602	13750
925.709	13666
925.816	13559
925.924	13567
926.031	13613
926.138	13445
926.245	13559
926.352	13388
926.459	13624
926.566	13674
926.673	13537
926.779	13358
926.886	13407
926.993	13247
927.099	13209
927.206	13103
927.312	13183
927.419	13141
927.525	13198
927.631	13175
927.737	13095
927.843	13042
927.95	12886
928.056	12939
928.162	12947
928.267	13023
928.373	13647
928.479	13206
928.585	12757
928.69	12894
928.796	12977
928.901	12760
929.007	12711
929.112	12859
929.218	12795
929.323	12654
929.428	12635
929.533	12738
929.638	12696
929.743	12635
929.848	12665
929.953	12677
930.058	12517
930.163	12304
930.267	12319
930.372	12536
930.477	12296
930.581	12604
930.685	12418
930.79	12201
930.894	12247
930.998	12220
931.103	12369
931.207	12007
931.311	11908
931.415	11817
931.519	11680
931.623	11611
