Data from test_V78500241_212.txt Node
Date: Fri Mar 25 15:43:16 CST 2022
User: usil
Spectrometer: V785-0024
Trigger mode: 0
Integration Time (sec): 4.000000E-1
Scans to average: 1
Nonlinearity correction enabled: false
Boxcar width: 0
Storing dark spectrum: false
XAxis mode: Wavelengths
Number of Pixels in Spectrum: 1024
>>>>>Begin Spectral Data<<<<<
801.071	29691
801.214	29714
801.356	29372
801.499	29414
801.641	29212
801.783	29265
801.926	29269
802.068	29254
802.211	29079
802.353	29166
802.496	29083
802.638	28984
802.78	28854
802.923	28896
803.065	28820
803.208	28869
803.35	28888
803.492	28946
803.635	29094
803.777	28942
803.919	29071
804.061	29334
804.204	29212
804.346	28957
804.488	28965
804.63	28858
804.773	28991
804.915	28949
805.057	29128
805.199	29037
805.341	29018
805.483	29048
805.626	29037
805.768	29041
805.91	29094
806.052	29178
806.194	29052
806.336	29406
806.478	29200
806.62	29136
806.762	29220
806.904	29315
807.046	29661
807.188	29577
807.33	29539
807.472	29566
807.614	29429
807.756	29570
807.898	29440
808.04	29318
808.182	29250
808.324	29330
808.465	29391
808.607	29490
808.749	29646
808.891	29783
809.033	29988
809.174	29836
809.316	29790
809.458	29653
809.6	29646
809.741	29684
809.883	29965
810.025	29802
810.166	30003
810.308	30030
810.45	29897
810.591	29821
810.733	29756
810.875	29638
811.016	29554
811.158	29619
811.299	29775
811.441	29783
811.582	29847
811.724	29638
811.865	29509
812.007	29695
812.148	29585
812.29	29794
812.431	29840
812.573	29946
812.714	29977
812.855	30190
812.997	30201
813.138	30513
813.279	30205
813.421	30171
813.562	30243
813.703	29969
813.845	29813
813.986	29543
814.127	29493
814.268	29353
814.41	29345
814.551	29307
814.692	29429
814.833	29334
814.974	29299
815.115	29433
815.256	29181
815.397	29079
815.539	29090
815.68	28888
815.821	29044
815.962	29105
816.103	28999
816.244	28965
816.385	28736
816.526	28843
816.666	28687
816.807	28401
816.948	28504
817.089	28660
817.23	28519
817.371	28478
817.512	28550
817.653	28478
817.793	28398
817.934	28512
818.075	28428
818.216	28474
818.356	28440
818.497	28375
818.638	28109
818.778	28067
818.919	28169
819.06	28185
819.2	28371
819.341	28337
819.481	28344
819.622	28516
819.762	28812
819.903	28618
820.043	28481
820.184	28405
820.324	28428
820.465	28622
820.605	28554
820.746	28421
820.886	28478
821.026	28512
821.167	28519
821.307	28508
821.447	28310
821.588	28238
821.728	28249
821.868	28040
822.008	27835
822.149	27762
822.289	27797
822.429	27606
822.569	27629
822.709	27504
822.849	27302
822.99	27313
823.13	27298
823.27	27180
823.41	27024
823.55	27001
823.69	27150
823.83	27005
823.97	27104
824.11	26952
824.25	26990
824.389	26815
824.529	27093
824.669	26910
824.809	27081
824.949	27062
825.089	26963
825.228	26986
825.368	26712
825.508	26708
825.648	26746
825.787	26807
825.927	26743
826.067	26739
826.206	26701
826.346	26785
826.485	26716
826.625	26667
826.765	26853
826.904	26632
827.044	26469
827.183	26396
827.323	26317
827.462	26355
827.601	26381
827.741	26374
827.88	26480
828.02	26202
828.159	26358
828.298	26476
828.437	26427
828.577	26271
828.716	26446
828.855	26229
828.994	26126
829.134	26039
829.273	26126
829.412	26039
829.551	26077
829.69	26073
829.829	26115
829.968	26157
830.107	26134
830.246	26054
830.385	25921
830.524	25917
830.663	25811
830.802	25837
830.941	25662
831.08	25556
831.219	25635
831.357	25723
831.496	25811
831.635	25689
831.774	25529
831.913	25483
832.051	25320
832.19	25445
832.329	25373
832.467	25282
832.606	25263
832.744	25194
832.883	25445
833.022	25247
833.16	25354
833.299	25377
833.437	25228
833.576	25259
833.714	25384
833.852	25228
833.991	25384
834.129	25377
834.267	25327
834.406	25266
834.544	25381
834.682	25183
834.821	25202
834.959	25438
835.097	25324
835.235	25183
835.373	25137
835.511	25209
835.65	25057
835.788	25137
835.926	25000
836.064	24890
836.202	24913
836.34	25114
836.478	25160
836.615	25156
836.753	25061
836.891	25126
837.029	25148
837.167	25069
837.305	24913
837.443	24951
837.58	24852
837.718	25076
837.856	24905
837.993	24924
838.131	24913
838.269	24798
838.406	24856
838.544	24642
838.681	24384
838.819	24540
838.956	24327
839.094	24270
839.231	24418
839.369	24456
839.506	24620
839.643	24563
839.781	24266
839.918	24152
840.055	24270
840.193	24182
840.33	24201
840.467	24353
840.604	24334
840.742	24559
840.879	24079
841.016	24228
841.153	24064
841.29	24251
841.427	24254
841.564	24159
841.701	24129
841.838	24144
841.975	24034
842.112	24129
842.249	24038
842.385	24034
842.522	24133
842.659	23939
842.796	23901
842.933	23847
843.069	23805
843.206	23874
843.343	23851
843.479	23855
843.616	23798
843.752	23691
843.889	23589
844.025	23790
844.162	23589
844.298	23691
844.435	23551
844.571	23600
844.708	23832
844.844	23824
844.98	23775
845.117	23684
845.253	23551
845.389	23284
845.525	23520
845.661	23528
845.798	23360
845.934	23387
846.07	23235
846.206	23391
846.342	23425
846.478	23284
846.614	23166
846.75	22991
846.886	23018
847.022	23178
847.158	23067
847.294	23018
847.429	23037
847.565	23010
847.701	23273
847.837	22790
847.972	22634
848.108	22892
848.244	22797
848.379	22771
848.515	22535
848.65	22584
848.786	22573
848.921	22637
849.057	22664
849.192	22618
849.328	22668
849.463	22493
849.598	22706
849.734	22363
849.869	22402
850.004	22352
850.14	22318
850.275	22341
850.41	22314
850.545	22223
850.68	22284
850.815	22466
850.95	22314
851.085	22443
851.22	22405
851.355	22253
851.49	22337
851.625	22284
851.76	22257
851.895	22268
852.03	22124
852.165	22253
852.299	22375
852.434	22333
852.569	22379
852.703	22207
852.838	22451
852.973	22462
853.107	22268
853.242	22295
853.376	22192
853.511	22105
853.645	22082
853.78	22291
853.914	22059
854.048	22105
854.183	22124
854.317	22010
854.451	22303
854.585	22078
854.72	22093
854.854	22147
854.988	21998
855.122	22105
855.256	21953
855.39	21972
855.524	22204
855.658	22070
855.792	21994
855.926	22154
856.06	22291
856.194	22192
856.327	21991
856.461	22051
856.595	22002
856.729	22090
856.862	22112
856.996	22093
857.13	22093
857.263	22207
857.397	22078
857.53	22090
857.664	22101
857.797	22154
857.931	22044
858.064	22120
858.197	22177
858.331	22131
858.464	22025
858.597	21994
858.731	22131
858.864	21972
858.997	22002
859.13	22128
859.263	22017
859.396	22173
859.529	21880
859.662	22021
859.795	22067
859.928	21991
860.061	22150
860.194	22166
860.327	22074
860.46	21983
860.592	22173
860.725	22090
860.858	22177
860.99	22097
861.123	21994
861.256	21991
861.388	22006
861.521	22721
861.653	21823
861.786	21895
861.918	21865
862.05	21934
862.183	22021
862.315	22055
862.447	22112
862.58	21994
862.712	21827
862.844	21652
862.976	21869
863.108	21831
863.24	22162
863.372	21686
863.504	21743
863.636	21781
863.768	21755
863.9	21724
864.032	21660
864.164	21781
864.296	21679
864.428	21945
864.559	21808
864.691	21876
864.823	21728
864.954	21739
865.086	21587
865.217	21595
865.349	21416
865.48	21633
865.612	21599
865.743	21720
865.875	21618
866.006	21534
866.137	21614
866.269	21542
866.4	21561
866.531	21523
866.662	21485
866.793	21481
866.924	21545
867.055	21526
867.186	21542
867.317	21515
867.448	21492
867.579	21469
867.71	21363
867.841	21386
867.972	21564
868.103	21648
868.233	21526
868.364	21610
868.495	21606
868.625	21713
868.756	21827
868.886	21622
869.017	21819
869.147	21956
869.278	21884
869.408	21747
869.539	21698
869.669	21857
869.799	21720
869.929	21812
870.06	21816
870.19	21941
870.32	22006
870.45	21975
870.58	22177
870.71	22238
870.84	22344
870.97	22124
871.1	22086
871.23	22329
871.36	22352
871.489	22188
871.619	22375
871.749	22363
871.879	22402
872.008	22474
872.138	22265
872.267	22295
872.397	22314
872.526	22280
872.656	22158
872.785	22207
872.915	22352
873.044	22531
873.173	22382
873.303	22390
873.432	22394
873.561	22565
873.69	22455
873.819	22394
873.948	22424
874.077	22394
874.206	22371
874.335	22451
874.464	22527
874.593	22599
874.722	22577
874.851	22630
874.979	22660
875.108	22649
875.237	22615
875.365	22478
875.494	22588
875.623	22679
875.751	22592
875.88	22618
876.008	22733
876.136	22717
876.265	22949
876.393	23197
876.521	23086
876.65	22972
876.778	23025
876.906	22904
877.034	22980
877.162	23048
877.29	22942
877.418	22930
877.546	22927
877.674	23060
877.802	23010
877.93	23014
878.058	22889
878.185	22873
878.313	22923
878.441	22889
878.568	22839
878.696	22858
878.824	22908
878.951	22934
879.079	23208
879.206	23337
879.333	23079
879.461	22957
879.588	22923
879.715	23109
879.842	23246
879.97	23071
880.097	22812
880.224	22835
880.351	22812
880.478	22858
880.605	22824
880.732	22710
880.859	22972
880.986	22717
881.112	22847
881.239	22656
881.366	22386
881.493	22382
881.619	22409
881.746	22318
881.872	22390
881.999	22291
882.125	22306
882.252	22314
882.378	22196
882.505	22455
882.631	22257
882.757	22181
882.883	22166
883.01	21956
883.136	22067
883.262	21975
883.388	21915
883.514	22131
883.64	21998
883.766	21964
883.892	21831
884.018	21743
884.143	21972
884.269	22067
884.395	21656
884.52	21675
884.646	21682
884.772	21667
884.897	21504
885.023	21682
885.148	21724
885.274	21778
885.399	21778
885.524	21614
885.65	21808
885.775	21652
885.9	21603
886.025	21911
886.15	21793
886.275	21538
886.4	21587
886.525	21618
886.65	21485
886.775	21599
886.9	21660
887.025	21994
887.149	21561
887.274	21420
887.399	21374
887.523	21473
887.648	21382
887.773	21389
887.897	21481
888.021	21405
888.146	21306
888.27	21485
888.395	21591
888.519	21454
888.643	21511
888.767	21348
888.891	21218
889.015	21230
889.139	21131
889.263	21207
889.387	21272
889.511	21241
889.635	21195
889.759	21291
889.883	21116
890.006	21184
890.13	21397
890.254	21165
890.377	21089
890.501	20910
890.624	20815
890.748	21036
890.871	20823
890.995	20781
891.118	20651
891.241	20781
891.364	20765
891.488	20781
891.611	20655
891.734	20777
891.857	20807
891.98	20705
892.103	20830
892.226	20788
892.349	20648
892.471	20526
892.594	20674
892.717	20644
892.839	20705
892.962	20667
893.085	20769
893.207	20686
893.33	20507
893.452	20533
893.575	20609
893.697	20621
893.819	20731
893.941	20864
894.064	20758
894.186	20571
894.308	20465
894.43	20716
894.552	20826
894.674	20655
894.796	20552
894.918	20613
895.04	20678
895.161	20727
895.283	20636
895.405	20507
895.526	20590
895.648	20651
895.769	20625
895.891	20606
896.012	20648
896.134	20583
896.255	20693
896.376	20511
896.498	20629
896.619	20754
896.74	20598
896.861	20750
896.982	20960
897.103	21058
897.224	20960
897.345	20883
897.466	20914
897.587	20765
897.708	20975
897.828	20895
897.949	20918
898.07	20697
898.19	20720
898.311	20948
898.431	20872
898.552	20918
898.672	20819
898.792	20921
898.913	20826
899.033	20731
899.153	20629
899.273	20415
899.393	20568
899.513	20518
899.633	20552
899.753	20545
899.873	20457
899.993	20469
900.113	20389
900.232	20526
900.352	20469
900.472	20408
900.591	20263
900.711	20290
900.83	20313
900.95	20404
901.069	20415
901.189	20168
901.308	19898
901.427	19902
901.546	19856
901.665	19993
901.784	19883
901.904	19700
902.023	19548
902.141	19400
902.26	19407
902.379	19495
902.498	19285
902.617	19301
902.735	19354
902.854	19400
902.973	19304
903.091	19008
903.21	18981
903.328	19072
903.446	18890
903.565	18863
903.683	18837
903.801	18745
903.919	18791
904.038	18760
904.156	18578
904.274	18856
904.392	18521
904.51	18620
904.627	18604
904.745	18582
904.863	18513
904.981	18448
905.098	18251
905.216	18277
905.334	18277
905.451	18296
905.569	18224
905.686	18247
905.803	18277
905.921	18068
906.038	18140
906.155	18114
906.272	17950
906.389	17901
906.506	17714
906.623	17817
906.74	17840
906.857	17623
906.974	17642
907.091	17802
907.208	17942
907.324	17802
907.441	17695
907.557	17436
907.674	17596
907.79	17516
907.907	17379
908.023	17474
908.139	17402
908.256	17360
908.372	17387
908.488	17204
908.604	17227
908.72	17159
908.836	17109
908.952	17128
909.068	17140
909.184	17246
909.3	17102
909.415	17121
909.531	17121
909.647	16904
909.762	16866
909.878	16820
909.993	16869
910.108	16816
910.224	16672
910.339	16961
910.454	16584
910.57	16611
910.685	16569
910.8	16831
910.915	16755
911.03	16618
911.145	16417
911.259	16428
911.374	16474
911.489	16443
911.604	16257
911.718	16200
911.833	16185
911.947	16090
912.062	16090
912.176	16280
912.291	16188
912.405	16207
912.519	16325
912.633	16238
912.748	16116
912.862	16188
912.976	15850
913.09	15827
913.204	15873
913.318	15835
913.431	16120
913.545	16010
913.659	16006
913.772	15892
913.886	15812
914	15709
914.113	15842
914.226	15842
914.34	15850
914.453	15606
914.566	15808
914.68	15580
914.793	15656
914.906	15466
915.019	15325
915.132	15298
915.245	15389
915.358	15382
915.47	15325
915.583	15329
915.696	15405
915.809	15473
915.921	15511
916.034	15351
916.146	15264
916.259	15188
916.371	15302
916.483	15146
916.595	15123
916.708	15237
916.82	15180
916.932	15104
917.044	15154
917.156	15070
917.268	14975
917.38	15036
917.491	14880
917.603	15017
917.715	15043
917.826	15032
917.938	14842
918.049	14914
918.161	14826
918.272	15131
918.384	14994
918.495	14960
918.606	14773
918.717	14788
918.828	14682
918.939	14781
919.05	14568
919.161	14678
919.272	14457
919.383	14499
919.494	14811
919.604	14906
919.715	14739
919.826	14587
919.936	14610
920.047	14670
920.157	14667
920.267	14804
920.378	14708
920.488	14621
920.598	14800
920.708	15009
920.818	14826
920.928	14826
921.038	14929
921.148	14864
921.258	14613
921.368	14514
921.477	14446
921.587	14309
921.697	14259
921.806	14301
921.916	14237
922.025	14096
922.134	14016
922.244	13989
922.353	14016
922.462	13841
922.571	13811
922.68	13700
922.789	13662
922.898	13681
923.007	13616
923.116	13666
923.224	13567
923.333	13624
923.442	13529
923.55	13491
923.659	13502
923.767	13518
923.876	13411
923.984	13449
924.092	13343
924.201	13445
924.309	13289
924.417	13369
924.525	13213
924.633	13327
924.741	14111
924.849	13137
924.956	13156
925.064	13129
925.172	13107
925.279	13004
925.387	13099
925.494	12962
925.602	13213
925.709	13107
925.816	13023
925.924	12935
926.031	13118
926.138	13023
926.245	13053
926.352	12886
926.459	12989
926.566	13137
926.673	12886
926.779	12825
926.886	12734
926.993	12650
927.099	12536
927.206	12589
927.312	12555
927.419	12593
927.525	12559
927.631	12700
927.737	12422
927.843	12433
927.95	12384
928.056	12380
928.162	12502
928.267	12460
928.373	13042
928.479	12475
928.585	12239
928.69	12323
928.796	12372
928.901	12273
929.007	12114
929.112	12292
929.218	12285
929.323	12175
929.428	12091
929.533	12289
929.638	12045
929.743	12087
929.848	12140
929.953	12140
930.058	11977
930.163	11786
930.267	11775
930.372	11969
930.477	11752
930.581	12030
930.685	11821
930.79	11627
930.894	11760
930.998	11714
931.103	11737
931.207	11436
931.311	11330
931.415	11197
931.519	11105
931.623	10972
