Data from test_V78500241_3137.txt Node
Date: Fri Mar 25 16:03:31 CST 2022
User: usil
Spectrometer: V785-0024
Trigger mode: 0
Integration Time (sec): 4.000000E-1
Scans to average: 1
Nonlinearity correction enabled: false
Boxcar width: 0
Storing dark spectrum: false
XAxis mode: Wavelengths
Number of Pixels in Spectrum: 1024
>>>>>Begin Spectral Data<<<<<
801.071	28816
801.214	28809
801.356	28641
801.499	28531
801.641	28485
801.783	28413
801.926	28584
802.068	28401
802.211	28500
802.353	28504
802.496	28223
802.638	28086
802.78	28280
802.923	28078
803.065	28105
803.208	28044
803.35	28223
803.492	28303
803.635	28284
803.777	28234
803.919	28421
804.061	28668
804.204	28531
804.346	28455
804.488	28322
804.63	28352
804.773	28413
804.915	28432
805.057	28470
805.199	28303
805.341	28443
805.483	28668
805.626	28592
805.768	28569
805.91	28565
806.052	28634
806.194	28451
806.336	28702
806.478	28554
806.62	28577
806.762	28622
806.904	28888
807.046	29147
807.188	29140
807.33	29018
807.472	29086
807.614	28987
807.756	29060
807.898	28972
808.04	28850
808.182	28831
808.324	28900
808.465	28984
808.607	29200
808.749	29269
808.891	29322
809.033	29299
809.174	29307
809.316	29212
809.458	29341
809.6	29220
809.741	29375
809.883	29425
810.025	29623
810.166	29630
810.308	29501
810.45	29707
810.591	29531
810.733	29349
810.875	29303
811.016	29261
811.158	29288
811.299	29391
811.441	29455
811.582	29589
811.724	29345
811.865	29220
812.007	29337
812.148	29444
812.29	29360
812.431	29501
812.573	29585
812.714	29558
812.855	29824
812.997	29767
813.138	29992
813.279	30091
813.421	29893
813.562	29851
813.703	29668
813.845	29596
813.986	29288
814.127	29041
814.268	28984
814.41	29083
814.551	28938
814.692	28972
814.833	28965
814.974	28965
815.115	29094
815.256	28858
815.397	28900
815.539	28862
815.68	28755
815.821	28915
815.962	28790
816.103	28835
816.244	28656
816.385	28630
816.526	28675
816.666	28554
816.807	28284
816.948	28443
817.089	28394
817.23	28344
817.371	28223
817.512	28337
817.653	28432
817.793	28447
817.934	28466
818.075	28333
818.216	28337
818.356	28337
818.497	28215
818.638	28135
818.778	28074
818.919	28211
819.06	28246
819.2	28246
819.341	28325
819.481	28344
819.622	28577
819.762	28675
819.903	28668
820.043	28687
820.184	28405
820.324	28489
820.465	28634
820.605	28508
820.746	28489
820.886	28394
821.026	28599
821.167	28455
821.307	28443
821.447	28337
821.588	28268
821.728	28059
821.868	27941
822.008	27816
822.149	27934
822.289	28021
822.429	27610
822.569	27439
822.709	27583
822.849	27420
822.99	27534
823.13	27294
823.27	27298
823.41	27230
823.55	27142
823.69	27207
823.83	27093
823.97	27127
824.11	26986
824.25	26982
824.389	27005
824.529	27077
824.669	27028
824.809	27047
824.949	27043
825.089	27127
825.228	27089
825.368	26864
825.508	26807
825.648	26834
825.787	26998
825.927	26933
826.067	26800
826.206	26956
826.346	26887
826.485	26994
826.625	26883
826.765	27150
826.904	26880
827.044	26785
827.183	26731
827.323	26560
827.462	26815
827.601	26659
827.741	26720
827.88	26594
828.02	26579
828.159	26514
828.298	26746
828.437	26708
828.577	26655
828.716	26663
828.855	26530
828.994	26415
829.134	26309
829.273	26343
829.412	26168
829.551	26237
829.69	26309
829.829	26332
829.968	26396
830.107	26427
830.246	26214
830.385	26263
830.524	26202
830.663	26263
830.802	26077
830.941	25944
831.08	25909
831.219	26031
831.357	26024
831.496	26267
831.635	25875
831.774	25864
831.913	25769
832.051	25685
832.19	25753
832.329	25685
832.467	25689
832.606	25544
832.744	25597
832.883	25575
833.022	25658
833.16	25571
833.299	25609
833.437	25544
833.576	25746
833.714	25628
833.852	25734
833.991	25807
834.129	25670
834.267	25750
834.406	25772
834.544	25757
834.682	25651
834.821	25597
834.959	25841
835.097	25685
835.235	25830
835.373	25803
835.511	25708
835.65	25616
835.788	25537
835.926	25327
836.064	25266
836.202	25453
836.34	25514
836.478	25571
836.615	25502
836.753	25460
836.891	25635
837.029	25453
837.167	25415
837.305	25369
837.443	25324
837.58	25362
837.718	25411
837.856	25400
837.993	25331
838.131	25343
838.269	25228
838.406	25187
838.544	25221
838.681	25023
838.819	24954
838.956	24749
839.094	24791
839.231	24840
839.369	24947
839.506	25183
839.643	25023
839.781	24707
839.918	24795
840.055	24817
840.193	24745
840.33	24578
840.467	24848
840.604	24677
840.742	24943
840.879	24574
841.016	24616
841.153	24536
841.29	24863
841.427	24654
841.564	24829
841.701	24715
841.838	24631
841.975	24422
842.112	24612
842.249	24479
842.385	24437
842.522	24665
842.659	24589
842.796	24437
842.933	24456
843.069	24372
843.206	24334
843.343	24513
843.479	24490
843.616	24448
843.752	24372
843.889	24148
844.025	24395
844.162	24174
844.298	24292
844.435	24140
844.571	24110
844.708	24327
844.844	24357
844.98	24338
845.117	24384
845.253	24182
845.389	24106
845.525	24174
845.661	24003
845.798	23935
845.934	23958
846.07	23863
846.206	24053
846.342	23977
846.478	23851
846.614	23859
846.75	23573
846.886	23672
847.022	23729
847.158	23714
847.294	23790
847.429	23627
847.565	23646
847.701	23870
847.837	23402
847.972	23250
848.108	23535
848.244	23463
848.379	23364
848.515	23208
848.65	23292
848.786	23258
848.921	23242
849.057	23379
849.192	23391
849.328	23383
849.463	23223
849.598	23132
849.734	23189
849.869	23109
850.004	23003
850.14	22957
850.275	23090
850.41	23018
850.545	23022
850.68	22908
850.815	23124
850.95	23029
851.085	23185
851.22	23128
851.355	23022
851.49	22999
851.625	22991
851.76	23037
851.895	22976
852.03	22854
852.165	23151
852.299	22980
852.434	23140
852.569	23052
852.703	22999
852.838	23079
852.973	23094
853.107	23071
853.242	23025
853.376	22911
853.511	22763
853.645	22858
853.78	22904
853.914	22908
854.048	22869
854.183	22862
854.317	22877
854.451	22980
854.585	22942
854.72	22835
854.854	22885
854.988	22771
855.122	22828
855.256	22828
855.39	22831
855.524	22972
855.658	22968
855.792	22824
855.926	22828
856.06	22961
856.194	22919
856.327	22896
856.461	22713
856.595	22835
856.729	22866
856.862	22892
856.996	22869
857.13	22881
857.263	22995
857.397	22930
857.53	22873
857.664	22839
857.797	22877
857.931	22930
858.064	22900
858.197	22984
858.331	22847
858.464	22949
858.597	22767
858.731	22607
858.864	22702
858.997	22774
859.13	22786
859.263	22873
859.396	22835
859.529	22869
859.662	22809
859.795	22828
859.928	22805
860.061	22957
860.194	23056
860.327	22908
860.46	22839
860.592	22900
860.725	22915
860.858	23014
860.99	22862
861.123	22729
861.256	22889
861.388	22831
861.521	23421
861.653	22641
861.786	22641
861.918	22691
862.05	22774
862.183	22812
862.315	22805
862.447	22729
862.58	22672
862.712	22630
862.844	22596
862.976	22641
863.108	22508
863.24	22984
863.372	22531
863.504	22485
863.636	22596
863.768	22656
863.9	22588
864.032	22424
864.164	22516
864.296	22542
864.428	22615
864.559	22653
864.691	22455
864.823	22489
864.954	22512
865.086	22371
865.217	22493
865.349	22390
865.48	22386
865.612	22481
865.743	22626
865.875	22493
866.006	22299
866.137	22382
866.269	22402
866.4	22356
866.531	22322
866.662	22299
866.793	22284
866.924	22367
867.055	22443
867.186	22367
867.317	22268
867.448	22280
867.579	22287
867.71	22211
867.841	22234
867.972	22299
868.103	22219
868.233	22352
868.364	22352
868.495	22352
868.625	22554
868.756	22675
868.886	22500
869.017	22523
869.147	22687
869.278	22744
869.408	22615
869.539	22481
869.669	22588
869.799	22710
869.929	22748
870.06	22664
870.19	22961
870.32	22915
870.45	22927
870.58	23018
870.71	23109
870.84	23121
870.97	22949
871.1	22946
871.23	23140
871.36	23155
871.489	23041
871.619	23246
871.749	23132
871.879	23223
872.008	23398
872.138	23246
872.267	23254
872.397	23041
872.526	23094
872.656	23010
872.785	22987
872.915	23098
873.044	23166
873.173	23277
873.303	23242
873.432	23353
873.561	23223
873.69	23147
873.819	23204
873.948	23246
874.077	23178
874.206	23102
874.335	23292
874.464	23277
874.593	23410
874.722	23356
874.851	23463
874.979	23455
875.108	23433
875.237	23417
875.365	23292
875.494	23372
875.623	23630
875.751	23265
875.88	23490
876.008	23505
876.136	23539
876.265	23802
876.393	23863
876.521	23855
876.65	23855
876.778	23851
876.906	23718
877.034	23767
877.162	23668
877.29	23726
877.418	23703
877.546	23817
877.674	23684
877.802	23726
877.93	23566
878.058	23726
878.185	23619
878.313	23642
878.441	23695
878.568	23585
878.696	23756
878.824	23695
878.951	23756
879.079	23927
879.206	23942
879.333	24026
879.461	23809
879.588	23920
879.715	23878
879.842	23980
879.97	23916
880.097	23585
880.224	23649
880.351	23467
880.478	23581
880.605	23615
880.732	23627
880.859	23954
880.986	23528
881.112	23554
881.239	23391
881.366	23197
881.493	23212
881.619	23124
881.746	23162
881.872	23143
881.999	23086
882.125	23067
882.252	23136
882.378	23143
882.505	23136
882.631	23041
882.757	22816
882.883	22866
883.01	22698
883.136	22725
883.262	22687
883.388	22596
883.514	22717
883.64	22771
883.766	22736
883.892	22535
884.018	22603
884.143	22634
884.269	22877
884.395	22371
884.52	22398
884.646	22432
884.772	22363
884.897	22344
885.023	22348
885.148	22451
885.274	22546
885.399	22531
885.524	22500
885.65	22417
885.775	22360
885.9	22363
886.025	22538
886.15	22577
886.275	22329
886.4	22413
886.525	22466
886.65	22299
886.775	22215
886.9	22569
887.025	22599
887.149	22322
887.274	22268
887.399	22169
887.523	22158
887.648	22169
887.773	22044
887.897	22299
888.021	22188
888.146	22097
888.27	22257
888.395	22284
888.519	22238
888.643	22070
888.767	22082
888.891	22101
889.015	21968
889.139	22021
889.263	21869
889.387	21949
889.511	22173
889.635	21994
889.759	21979
889.883	21903
890.006	21926
890.13	22086
890.254	21968
890.377	21983
890.501	21675
890.624	21743
890.748	21732
890.871	21618
890.995	21348
891.118	21545
891.241	21561
891.364	21557
891.488	21656
891.611	21572
891.734	21435
891.857	21587
891.98	21606
892.103	21488
892.226	21428
892.349	21447
892.471	21378
892.594	21454
892.717	21405
892.839	21511
892.962	21469
893.085	21515
893.207	21412
893.33	21359
893.452	21336
893.575	21485
893.697	21302
893.819	21485
893.941	21606
894.064	21424
894.186	21317
894.308	21275
894.43	21542
894.552	21473
894.674	21321
894.796	21233
894.918	21283
895.04	21386
895.161	21439
895.283	21401
895.405	21222
895.526	21264
895.648	21351
895.769	21325
895.891	21218
896.012	21431
896.134	21382
896.255	21321
896.376	21256
896.498	21351
896.619	21401
896.74	21329
896.861	21351
896.982	21667
897.103	21762
897.224	21694
897.345	21595
897.466	21599
897.587	21606
897.708	21595
897.828	21477
897.949	21488
898.07	21408
898.19	21408
898.311	21580
898.431	21435
898.552	21469
898.672	21587
898.792	21663
898.913	21500
899.033	21378
899.153	21473
899.273	21150
899.393	21218
899.513	21401
899.633	21355
899.753	21241
899.873	21252
899.993	21348
900.113	21112
900.232	21138
900.352	21127
900.472	21085
900.591	20975
900.711	20914
900.83	20830
900.95	21081
901.069	20941
901.189	20925
901.308	20644
901.427	20613
901.546	20609
901.665	20556
901.784	20670
901.904	20499
902.023	20400
902.141	20233
902.26	20081
902.379	20122
902.498	20240
902.617	20043
902.735	20107
902.854	19974
902.973	20115
903.091	19822
903.21	19902
903.328	19738
903.446	19590
903.565	19506
903.683	19620
903.801	19392
903.919	19460
904.038	19407
904.156	19293
904.274	19426
904.392	19236
904.51	19247
904.627	19365
904.745	19331
904.863	19381
904.981	19118
905.098	18958
905.216	18928
905.334	19019
905.451	18905
905.569	18916
905.686	19065
905.803	18913
905.921	18688
906.038	18913
906.155	18837
906.272	18635
906.389	18642
906.506	18403
906.623	18563
906.74	18547
906.857	18403
906.974	18330
907.091	18578
907.208	18608
907.324	18589
907.441	18380
907.557	18171
907.674	18300
907.79	18163
907.907	18247
908.023	18224
908.139	18163
908.256	18117
908.372	18041
908.488	18098
908.604	17958
908.72	17813
908.836	17946
908.952	17904
909.068	17996
909.184	18041
909.3	17805
909.415	17946
909.531	17870
909.647	17687
909.762	17589
909.878	17558
909.993	17615
910.108	17452
910.224	17528
910.339	17566
910.454	17573
910.57	17433
910.685	17376
910.8	17543
910.915	17551
911.03	17459
911.145	17200
911.259	17136
911.374	17261
911.489	17208
911.604	17014
911.718	16839
911.833	16972
911.947	16831
912.062	16771
912.176	16873
912.291	16877
912.405	16812
912.519	17052
912.633	17147
912.748	17037
912.862	16904
912.976	16755
913.09	16481
913.204	16672
913.318	16729
913.431	16820
913.545	16790
913.659	16740
913.772	16694
913.886	16637
914	16485
914.113	16672
914.226	16634
914.34	16577
914.453	16356
914.566	16554
914.68	16356
914.793	16318
914.906	16196
915.019	16143
915.132	16071
915.245	16074
915.358	15994
915.47	16154
915.583	16162
915.696	16074
915.809	16105
915.921	16246
916.034	16116
916.146	15960
916.259	15972
916.371	16071
916.483	16116
916.595	15949
916.708	15934
916.82	15854
916.932	15953
917.044	15804
917.156	15781
917.268	15694
917.38	15724
917.491	15823
917.603	15591
917.715	15823
917.826	15766
917.938	15686
918.049	15435
918.161	15705
918.272	15732
918.384	15789
918.495	15679
918.606	15454
918.717	15431
918.828	15473
918.939	15485
919.05	15332
919.161	15481
919.272	15226
919.383	15268
919.494	15424
919.604	15523
919.715	15485
919.826	15405
919.936	15351
920.047	15519
920.157	15332
920.267	15629
920.378	15412
920.488	15279
920.598	15435
920.708	15667
920.818	15458
920.928	15473
921.038	15671
921.148	15545
921.258	15279
921.368	15199
921.477	15176
921.587	15165
921.697	14960
921.806	15100
921.916	14975
922.025	14796
922.134	14678
922.244	14667
922.353	14792
922.462	14693
922.571	14549
922.68	14419
922.789	14465
922.898	14442
923.007	14347
923.116	14305
923.224	14339
923.333	14351
923.442	14263
923.55	14157
923.659	14267
923.767	14210
923.876	14161
923.984	14168
924.092	14081
924.201	14214
924.309	14134
924.417	14088
924.525	14005
924.633	13955
924.741	14739
924.849	13807
924.956	13947
925.064	13769
925.172	13776
925.279	13731
925.387	13788
925.494	13791
925.602	13795
925.709	13734
925.816	13651
925.924	13628
926.031	13734
926.138	13708
926.245	13712
926.352	13586
926.459	13636
926.566	13693
926.673	13544
926.779	13506
926.886	13510
926.993	13339
927.099	13350
927.206	13209
927.312	13247
927.419	13247
927.525	13316
927.631	13312
927.737	13114
927.843	13149
927.95	13168
928.056	13084
928.162	13149
928.267	13103
928.373	13772
928.479	13145
928.585	12920
928.69	12996
928.796	13061
928.901	13027
929.007	12738
929.112	13015
929.218	12894
929.323	12779
929.428	12779
929.533	12882
929.638	12715
929.743	12814
929.848	12798
929.953	12745
930.058	12566
930.163	12452
930.267	12502
930.372	12593
930.477	12475
930.581	12646
930.685	12414
930.79	12330
930.894	12376
930.998	12232
931.103	12452
931.207	12053
931.311	11954
931.415	11901
931.519	11718
931.623	11699
