Data from test_V78500241_2790.txt Node
Date: Fri Mar 25 16:01:07 CST 2022
User: usil
Spectrometer: V785-0024
Trigger mode: 0
Integration Time (sec): 4.000000E-1
Scans to average: 1
Nonlinearity correction enabled: false
Boxcar width: 0
Storing dark spectrum: false
XAxis mode: Wavelengths
Number of Pixels in Spectrum: 1024
>>>>>Begin Spectral Data<<<<<
801.071	29231
801.214	29006
801.356	28904
801.499	28755
801.641	28694
801.783	28759
801.926	28797
802.068	28702
802.211	28816
802.353	28656
802.496	28580
802.638	28428
802.78	28485
802.923	28333
803.065	28405
803.208	28230
803.35	28459
803.492	28656
803.635	28698
803.777	28360
803.919	28634
804.061	29075
804.204	28771
804.346	28634
804.488	28759
804.63	28721
804.773	28618
804.915	28679
805.057	28843
805.199	28759
805.341	28744
805.483	28835
805.626	28885
805.768	28733
805.91	28854
806.052	28972
806.194	28801
806.336	28919
806.478	28854
806.62	28828
806.762	29064
806.904	29071
807.046	29383
807.188	29322
807.33	29528
807.472	29364
807.614	29223
807.756	29353
807.898	29303
808.04	29094
808.182	29200
808.324	29166
808.465	29265
808.607	29531
808.749	29482
808.891	29592
809.033	29752
809.174	29714
809.316	29623
809.458	29570
809.6	29474
809.741	29745
809.883	29691
810.025	29760
810.166	29798
810.308	29824
810.45	29817
810.591	29741
810.733	29672
810.875	29497
811.016	29531
811.158	29562
811.299	29722
811.441	29695
811.582	29733
811.724	29630
811.865	29615
812.007	29657
812.148	29653
812.29	29703
812.431	29821
812.573	29996
812.714	30038
812.855	30125
812.997	30159
813.138	30342
813.279	30228
813.421	30114
813.562	30117
813.703	30003
813.845	29809
813.986	29703
814.127	29452
814.268	29383
814.41	29242
814.551	29254
814.692	29360
814.833	29326
814.974	29345
815.115	29307
815.256	29121
815.397	29280
815.539	29231
815.68	29121
815.821	29136
815.962	29117
816.103	29143
816.244	29117
816.385	28904
816.526	28938
816.666	28790
816.807	28565
816.948	28599
817.089	28790
817.23	28774
817.371	28656
817.512	28679
817.653	28550
817.793	28588
817.934	28672
818.075	28706
818.216	28725
818.356	28622
818.497	28561
818.638	28443
818.778	28489
818.919	28356
819.06	28459
819.2	28493
819.341	28664
819.481	28790
819.622	28805
819.762	29067
819.903	29140
820.043	28892
820.184	28858
820.324	28672
820.465	28858
820.605	28801
820.746	28790
820.886	28599
821.026	28691
821.167	28816
821.307	28877
821.447	28759
821.588	28538
821.728	28474
821.868	28261
822.008	28177
822.149	28063
822.289	28139
822.429	27903
822.569	27747
822.709	27842
822.849	27610
822.99	27701
823.13	27561
823.27	27739
823.41	27564
823.55	27336
823.69	27572
823.83	27507
823.97	27469
824.11	27344
824.25	27260
824.389	27294
824.529	27302
824.669	27298
824.809	27370
824.949	27511
825.089	27370
825.228	27294
825.368	27112
825.508	27146
825.648	27283
825.787	27165
825.927	27256
826.067	27100
826.206	27127
826.346	27283
826.485	27233
826.625	27161
826.765	27165
826.904	27329
827.044	27047
827.183	26986
827.323	26868
827.462	26925
827.601	26990
827.741	26826
827.88	26963
828.02	26765
828.159	26849
828.298	26952
828.437	26971
828.577	26830
828.716	27028
828.855	26800
828.994	26568
829.134	26602
829.273	26636
829.412	26549
829.551	26590
829.69	26575
829.829	26670
829.968	26743
830.107	26724
830.246	26621
830.385	26560
830.524	26564
830.663	26453
830.802	26343
830.941	26237
831.08	26103
831.219	26130
831.357	26214
831.496	26438
831.635	26320
831.774	26142
831.913	26161
832.051	25966
832.19	26084
832.329	25841
832.467	25986
832.606	25883
832.744	25807
832.883	25849
833.022	25906
833.16	25917
833.299	25856
833.437	25921
833.576	25993
833.714	25826
833.852	25955
833.991	25993
834.129	26046
834.267	26119
834.406	25890
834.544	25940
834.682	25993
834.821	25849
834.959	26172
835.097	25868
835.235	26103
835.373	25849
835.511	25913
835.65	25795
835.788	25940
835.926	25651
836.064	25613
836.202	25586
836.34	25761
836.478	25708
836.615	25776
836.753	25849
836.891	25780
837.029	25727
837.167	25685
837.305	25674
837.443	25620
837.58	25533
837.718	25647
837.856	25609
837.993	25499
838.131	25643
838.269	25415
838.406	25525
838.544	25362
838.681	25236
838.819	25225
838.956	25076
839.094	25000
839.231	25099
839.369	25221
839.506	25426
839.643	25335
839.781	25137
839.918	24837
840.055	24954
840.193	25088
840.33	24863
840.467	24932
840.604	24943
840.742	25358
840.879	24817
841.016	24802
841.153	24954
841.29	24939
841.427	24962
841.564	24871
841.701	24958
841.838	24913
841.975	24871
842.112	24863
842.249	24833
842.385	24703
842.522	24878
842.659	24814
842.796	24711
842.933	24745
843.069	24688
843.206	24566
843.343	24791
843.479	24749
843.616	24673
843.752	24509
843.889	24509
844.025	24593
844.162	24448
844.298	24536
844.435	24521
844.571	24414
844.708	24467
844.844	24684
844.98	24696
845.117	24601
845.253	24426
845.389	24376
845.525	24319
845.661	24464
845.798	24205
845.934	24304
846.07	24167
846.206	24296
846.342	24235
846.478	24129
846.614	23942
846.75	23908
846.886	23923
847.022	24007
847.158	23866
847.294	24007
847.429	23950
847.565	23847
847.701	24087
847.837	23646
847.972	23535
848.108	23653
848.244	23665
848.379	23691
848.515	23474
848.65	23516
848.786	23566
848.921	23543
849.057	23592
849.192	23608
849.328	23608
849.463	23611
849.598	23368
849.734	23433
849.869	23425
850.004	23269
850.14	23372
850.275	23322
850.41	23334
850.545	23174
850.68	23208
850.815	23318
850.95	23372
851.085	23524
851.22	23391
851.355	23398
851.49	23223
851.625	23334
851.76	23231
851.895	23254
852.03	23105
852.165	23337
852.299	23296
852.434	23471
852.569	23288
852.703	23193
852.838	23311
852.973	23448
853.107	23337
853.242	23220
853.376	23102
853.511	22961
853.645	23098
853.78	23155
853.914	23128
854.048	23071
854.183	23132
854.317	23128
854.451	23299
854.585	23067
854.72	23086
854.854	23124
854.988	22946
855.122	23094
855.256	22869
855.39	23071
855.524	23113
855.658	23006
855.792	23239
855.926	23025
856.06	23105
856.194	23242
856.327	23064
856.461	23132
856.595	22919
856.729	23052
856.862	23189
856.996	23140
857.13	23151
857.263	23166
857.397	23155
857.53	23033
857.664	23204
857.797	23098
857.931	23178
858.064	23193
858.197	23197
858.331	23170
858.464	23014
858.597	23010
858.731	23010
858.864	23090
858.997	23022
859.13	23102
859.263	23117
859.396	23166
859.529	23067
859.662	23079
859.795	23041
859.928	23022
860.061	23181
860.194	23330
860.327	23162
860.46	23162
860.592	23296
860.725	23197
860.858	23258
860.99	23064
861.123	23022
861.256	23128
861.388	23014
861.521	23760
861.653	22816
861.786	22984
861.918	22877
862.05	22984
862.183	23075
862.315	22995
862.447	23064
862.58	22984
862.712	22748
862.844	22744
862.976	22793
863.108	22835
863.24	23303
863.372	22725
863.504	22710
863.636	22847
863.768	22889
863.9	22733
864.032	22664
864.164	22694
864.296	22824
864.428	22862
864.559	22816
864.691	22820
864.823	22885
864.954	22687
865.086	22759
865.217	22744
865.349	22603
865.48	22729
865.612	22721
865.743	22843
865.875	22664
866.006	22542
866.137	22637
866.269	22664
866.4	22698
866.531	22561
866.662	22542
866.793	22573
866.924	22554
867.055	22584
867.186	22687
867.317	22580
867.448	22512
867.579	22497
867.71	22618
867.841	22512
867.972	22660
868.103	22599
868.233	22713
868.364	22535
868.495	22664
868.625	22839
868.756	22831
868.886	22744
869.017	22755
869.147	22904
869.278	22923
869.408	22809
869.539	22843
869.669	22831
869.799	22801
869.929	22995
870.06	22900
870.19	23105
870.32	23018
870.45	23189
870.58	23147
870.71	23151
870.84	23200
870.97	23235
871.1	23277
871.23	23349
871.36	23421
871.489	23303
871.619	23376
871.749	23478
871.879	23509
872.008	23501
872.138	23356
872.267	23414
872.397	23284
872.526	23239
872.656	23315
872.785	23315
872.915	23402
873.044	23581
873.173	23471
873.303	23463
873.432	23421
873.561	23615
873.69	23433
873.819	23509
873.948	23452
874.077	23436
874.206	23391
874.335	23490
874.464	23528
874.593	23668
874.722	23661
874.851	23638
874.979	23737
875.108	23630
875.237	23623
875.365	23657
875.494	23600
875.623	23687
875.751	23592
875.88	23661
876.008	23707
876.136	23771
876.265	24060
876.393	24197
876.521	24201
876.65	24152
876.778	23999
876.906	23935
877.034	23893
877.162	23977
877.29	23931
877.418	23942
877.546	24057
877.674	23908
877.802	23870
877.93	24110
878.058	23802
878.185	23851
878.313	24041
878.441	23908
878.568	23809
878.696	23878
878.824	23885
878.951	23893
879.079	24209
879.206	24171
879.333	24182
879.461	23965
879.588	24121
879.715	24064
879.842	24304
879.97	24110
880.097	23779
880.224	23885
880.351	23961
880.478	23859
880.605	23737
880.732	23889
880.859	24140
880.986	23775
881.112	23874
881.239	23615
881.366	23509
881.493	23539
881.619	23288
881.746	23330
881.872	23364
881.999	23318
882.125	23353
882.252	23387
882.378	23299
882.505	23364
882.631	23113
882.757	23010
882.883	23113
883.01	23113
883.136	23014
883.262	22972
883.388	22850
883.514	23010
883.64	22991
883.766	22881
883.892	22710
884.018	22752
884.143	22919
884.269	23067
884.395	22733
884.52	22675
884.646	22679
884.772	22611
884.897	22580
885.023	22660
885.148	22729
885.274	22717
885.399	22748
885.524	22653
885.65	22736
885.775	22580
885.9	22717
886.025	22816
886.15	22850
886.275	22557
886.4	22554
886.525	22577
886.65	22577
886.775	22527
886.9	22771
887.025	22694
887.149	22607
887.274	22421
887.399	22481
887.523	22462
887.648	22424
887.773	22432
887.897	22455
888.021	22493
888.146	22280
888.27	22599
888.395	22481
888.519	22352
888.643	22428
888.767	22394
888.891	22398
889.015	22204
889.139	22215
889.263	22188
889.387	22348
889.511	22417
889.635	22280
889.759	22192
889.883	22196
890.006	22196
890.13	22299
890.254	22032
890.377	22086
890.501	21998
890.624	21907
890.748	22055
890.871	21869
890.995	21694
891.118	21800
891.241	21785
891.364	21827
891.488	21884
891.611	21732
891.734	21698
891.857	21622
891.98	21759
892.103	21804
892.226	21682
892.349	21568
892.471	21504
892.594	21549
892.717	21705
892.839	21641
892.962	21698
893.085	21591
893.207	21526
893.33	21492
893.452	21530
893.575	21637
893.697	21682
893.819	21652
893.941	21747
894.064	21861
894.186	21568
894.308	21428
894.43	21637
894.552	21720
894.674	21564
894.796	21462
894.918	21606
895.04	21485
895.161	21732
895.283	21606
895.405	21542
895.526	21530
895.648	21500
895.769	21599
895.891	21610
896.012	21561
896.134	21705
896.255	21614
896.376	21488
896.498	21625
896.619	21603
896.74	21622
896.861	21637
896.982	21793
897.103	21998
897.224	21808
897.345	21755
897.466	21724
897.587	21888
897.708	21819
897.828	21880
897.949	21629
898.07	21603
898.19	21766
898.311	21884
898.431	21587
898.552	21762
898.672	21789
898.792	21751
898.913	21842
899.033	21625
899.153	21622
899.273	21447
899.393	21481
899.513	21538
899.633	21526
899.753	21336
899.873	21370
899.993	21523
900.113	21454
900.232	21355
900.352	21435
900.472	21329
900.591	21116
900.711	21222
900.83	21302
900.95	21397
901.069	21272
901.189	21077
901.308	20910
901.427	20895
901.546	20720
901.665	20838
901.784	20796
901.904	20701
902.023	20632
902.141	20393
902.26	20457
902.379	20431
902.498	20286
902.617	20244
902.735	20343
902.854	20298
902.973	20237
903.091	19974
903.21	19989
903.328	19978
903.446	19841
903.565	19814
903.683	19723
903.801	19613
903.919	19670
904.038	19700
904.156	19506
904.274	19590
904.392	19567
904.51	19480
904.627	19460
904.745	19594
904.863	19537
904.981	19343
905.098	19057
905.216	19209
905.334	19198
905.451	19088
905.569	19194
905.686	19266
905.803	19274
905.921	18875
906.038	19088
906.155	18970
906.272	18825
906.389	18825
906.506	18783
906.623	18814
906.74	18665
906.857	18658
906.974	18631
907.091	18688
907.208	18734
907.324	18578
907.441	18684
907.557	18319
907.674	18353
907.79	18365
907.907	18433
908.023	18422
908.139	18380
908.256	18258
908.372	18292
908.488	18144
908.604	18197
908.72	18030
908.836	18182
908.952	18068
909.068	18174
909.184	18235
909.3	18041
909.415	18114
909.531	18087
909.647	17771
909.762	17874
909.878	17741
909.993	17817
910.108	17786
910.224	17703
910.339	17646
910.454	17657
910.57	17630
910.685	17539
910.8	17798
910.915	17638
911.03	17558
911.145	17444
911.259	17452
911.374	17429
911.489	17292
911.604	17166
911.718	17086
911.833	17200
911.947	17003
912.062	16984
912.176	17060
912.291	17151
912.405	17052
912.519	17383
912.633	17204
912.748	17113
912.862	17113
912.976	16972
913.09	16801
913.204	16778
913.318	16778
913.431	16923
913.545	16980
913.659	17014
913.772	16816
913.886	16736
914	16664
914.113	16774
914.226	16721
914.34	16710
914.453	16645
914.566	16683
914.68	16542
914.793	16558
914.906	16314
915.019	16318
915.132	16173
915.245	16234
915.358	16379
915.47	16303
915.583	16291
915.696	16280
915.809	16348
915.921	16272
916.034	16128
916.146	16124
916.259	16093
916.371	16139
916.483	16154
916.595	16063
916.708	16032
916.82	16093
916.932	15953
917.044	16032
917.156	15987
917.268	15873
917.38	15899
917.491	15838
917.603	15793
917.715	15983
917.826	16017
917.938	15728
918.049	15705
918.161	15747
918.272	15842
918.384	15861
918.495	15846
918.606	15591
918.717	15542
918.828	15648
918.939	15675
919.05	15477
919.161	15519
919.272	15344
919.383	15557
919.494	15599
919.604	15694
919.715	15629
919.826	15511
919.936	15557
920.047	15545
920.157	15572
920.267	15766
920.378	15584
920.488	15488
920.598	15675
920.708	15854
920.818	15606
920.928	15561
921.038	15884
921.148	15747
921.258	15450
921.368	15405
921.477	15268
921.587	15313
921.697	15150
921.806	15268
921.916	15017
922.025	14967
922.134	15001
922.244	14872
922.353	14921
922.462	14750
922.571	14697
922.68	14610
922.789	14518
922.898	14667
923.007	14537
923.116	14629
923.224	14522
923.333	14526
923.442	14465
923.55	14320
923.659	14393
923.767	14488
923.876	14225
923.984	14465
924.092	14256
924.201	14320
924.309	14180
924.417	14229
924.525	14202
924.633	14218
924.741	15066
924.849	14001
924.956	14065
925.064	13982
925.172	13833
925.279	13928
925.387	13955
925.494	13947
925.602	14016
925.709	13982
925.816	13814
925.924	13879
926.031	13921
926.138	13708
926.245	13925
926.352	13780
926.459	13932
926.566	13974
926.673	13757
926.779	13647
926.886	13590
926.993	13502
927.099	13480
927.206	13400
927.312	13419
927.419	13460
927.525	13483
927.631	13518
927.737	13247
927.843	13266
927.95	13221
928.056	13301
928.162	13293
928.267	13259
928.373	13849
928.479	13362
928.585	13129
928.69	13209
928.796	13289
928.901	13088
929.007	12951
929.112	13103
929.218	13046
929.323	13023
929.428	12993
929.533	13084
929.638	12878
929.743	12939
929.848	12928
929.953	12829
930.058	12840
930.163	12612
930.267	12707
930.372	12738
930.477	12547
930.581	12791
930.685	12627
930.79	12536
930.894	12536
930.998	12502
931.103	12566
931.207	12190
931.311	12155
931.415	12057
931.519	11863
931.623	11832
