Data from test_V78500241_2563.txt Node
Date: Fri Mar 25 15:59:33 CST 2022
User: usil
Spectrometer: V785-0024
Trigger mode: 0
Integration Time (sec): 4.000000E-1
Scans to average: 1
Nonlinearity correction enabled: false
Boxcar width: 0
Storing dark spectrum: false
XAxis mode: Wavelengths
Number of Pixels in Spectrum: 1024
>>>>>Begin Spectral Data<<<<<
801.071	28691
801.214	28687
801.356	28470
801.499	28375
801.641	28318
801.783	28329
801.926	28276
802.068	28257
802.211	28234
802.353	28306
802.496	28059
802.638	27979
802.78	27880
802.923	27922
803.065	27918
803.208	27857
803.35	28040
803.492	28128
803.635	28116
803.777	28032
803.919	28219
804.061	28493
804.204	28242
804.346	28169
804.488	28013
804.63	28238
804.773	28150
804.915	28371
805.057	28424
805.199	28078
805.341	28303
805.483	28337
805.626	28413
805.768	28382
805.91	28550
806.052	28409
806.194	28409
806.336	28424
806.478	28394
806.62	28360
806.762	28519
806.904	28634
807.046	28892
807.188	28782
807.33	28835
807.472	28968
807.614	28702
807.756	28752
807.898	28672
808.04	28577
808.182	28561
808.324	28630
808.465	28767
808.607	28972
808.749	29083
808.891	29064
809.033	29132
809.174	29147
809.316	29006
809.458	29022
809.6	28942
809.741	29132
809.883	29246
810.025	29334
810.166	29307
810.308	29242
810.45	29265
810.591	29086
810.733	29060
810.875	29140
811.016	28961
811.158	29075
811.299	29147
811.441	29155
811.582	29265
811.724	28999
811.865	29044
812.007	29029
812.148	29121
812.29	29170
812.431	29193
812.573	29398
812.714	29531
812.855	29459
812.997	29608
813.138	29836
813.279	29710
813.421	29600
813.562	29471
813.703	29448
813.845	29341
813.986	28881
814.127	28911
814.268	28713
814.41	28733
814.551	28759
814.692	28847
814.833	28656
814.974	28778
815.115	28748
815.256	28470
815.397	28733
815.539	28752
815.68	28626
815.821	28630
815.962	28546
816.103	28649
816.244	28413
816.385	28455
816.526	28310
816.666	28112
816.807	28006
816.948	28306
817.089	28200
817.23	28169
817.371	28036
817.512	28196
817.653	28169
817.793	28010
817.934	28044
818.075	28116
818.216	28067
818.356	28131
818.497	27956
818.638	27812
818.778	27770
818.919	27956
819.06	27903
819.2	27972
819.341	28055
819.481	28086
819.622	28177
819.762	28398
819.903	28348
820.043	28257
820.184	28196
820.324	28128
820.465	28318
820.605	28280
820.746	28188
820.886	28078
821.026	28086
821.167	28090
821.307	28162
821.447	28124
821.588	27914
821.728	27857
821.868	27835
822.008	27549
822.149	27580
822.289	27561
822.429	27336
822.569	27298
822.709	27252
822.849	27077
822.99	27112
823.13	27055
823.27	27047
823.41	26944
823.55	26731
823.69	26891
823.83	26925
823.97	26933
824.11	26804
824.25	26587
824.389	26644
824.529	26796
824.669	26682
824.809	26963
824.949	26674
825.089	26754
825.228	26956
825.368	26617
825.508	26598
825.648	26530
825.787	26651
825.927	26670
826.067	26511
826.206	26632
826.346	26549
826.485	26701
826.625	26613
826.765	26693
826.904	26590
827.044	26590
827.183	26400
827.323	26320
827.462	26305
827.601	26400
827.741	26214
827.88	26294
828.02	26168
828.159	26263
828.298	26339
828.437	26320
828.577	26199
828.716	26503
828.855	26145
828.994	25989
829.134	25989
829.273	26058
829.412	25932
829.551	25974
829.69	26005
829.829	26054
829.968	26100
830.107	25890
830.246	26027
830.385	25940
830.524	25925
830.663	25655
830.802	25609
830.941	25635
831.08	25620
831.219	25696
831.357	25647
831.496	25826
831.635	25567
831.774	25464
831.913	25556
832.051	25335
832.19	25282
832.329	25472
832.467	25331
832.606	25293
832.744	25331
832.883	25213
833.022	25206
833.16	25324
833.299	25179
833.437	25293
833.576	25369
833.714	25285
833.852	25388
833.991	25255
834.129	25430
834.267	25419
834.406	25388
834.544	25506
834.682	25441
834.821	25168
834.959	25487
835.097	25392
835.235	25396
835.373	25411
835.511	25419
835.65	25251
835.788	25152
835.926	25095
836.064	24935
836.202	25015
836.34	25129
836.478	25289
836.615	25164
836.753	25217
836.891	25297
837.029	25088
837.167	25080
837.305	25057
837.443	25065
837.58	24973
837.718	25129
837.856	25110
837.993	24992
838.131	25091
838.269	24871
838.406	25091
838.544	24760
838.681	24726
838.819	24776
838.956	24456
839.094	24460
839.231	24665
839.369	24719
839.506	24981
839.643	24760
839.781	24452
839.918	24407
840.055	24490
840.193	24323
840.33	24410
840.467	24467
840.604	24498
840.742	24798
840.879	24353
841.016	24365
841.153	24247
841.29	24555
841.427	24243
841.564	24350
841.701	24308
841.838	24262
841.975	24254
842.112	24258
842.249	24213
842.385	24064
842.522	24422
842.659	24197
842.796	24102
842.933	24106
843.069	24022
843.206	24148
843.343	24346
843.479	24239
843.616	24167
843.752	23866
843.889	23973
844.025	24064
844.162	23893
844.298	24030
844.435	24034
844.571	23840
844.708	23931
844.844	24076
844.98	24121
845.117	23942
845.253	23923
845.389	23901
845.525	23912
845.661	23836
845.798	23737
845.934	23729
846.07	23543
846.206	23680
846.342	23836
846.478	23661
846.614	23520
846.75	23356
846.886	23258
847.022	23490
847.158	23486
847.294	23372
847.429	23322
847.565	23353
847.701	23566
847.837	22953
847.972	23029
848.108	23174
848.244	23181
848.379	23037
848.515	22873
848.65	22938
848.786	23044
848.921	23006
849.057	23060
849.192	23086
849.328	23048
849.463	22957
849.598	22885
849.734	22786
849.869	22771
850.004	22767
850.14	22729
850.275	22831
850.41	22550
850.545	22679
850.68	22550
850.815	22759
850.95	22748
851.085	22953
851.22	22835
851.355	22858
851.49	22797
851.625	22698
851.76	22740
851.895	22668
852.03	22649
852.165	22664
852.299	22809
852.434	22885
852.569	22767
852.703	22664
852.838	22801
852.973	22816
853.107	22847
853.242	22706
853.376	22500
853.511	22500
853.645	22481
853.78	22668
853.914	22615
854.048	22561
854.183	22615
854.317	22538
854.451	22706
854.585	22653
854.72	22561
854.854	22748
854.988	22447
855.122	22592
855.256	22394
855.39	22550
855.524	22531
855.658	22489
855.792	22451
855.926	22592
856.06	22675
856.194	22668
856.327	22432
856.461	22447
856.595	22436
856.729	22519
856.862	22702
856.996	22474
857.13	22573
857.263	22557
857.397	22622
857.53	22653
857.664	22592
857.797	22561
857.931	22713
858.064	22436
858.197	22565
858.331	22622
858.464	22500
858.597	22382
858.731	22493
858.864	22584
858.997	22481
859.13	22504
859.263	22584
859.396	22618
859.529	22493
859.662	22470
859.795	22550
859.928	22599
860.061	22706
860.194	22702
860.327	22481
860.46	22630
860.592	22706
860.725	22569
860.858	22607
860.99	22580
861.123	22432
861.256	22402
861.388	22523
861.521	23174
861.653	22379
861.786	22314
861.918	22341
862.05	22432
862.183	22440
862.315	22455
862.447	22409
862.58	22428
862.712	22280
862.844	22246
862.976	22306
863.108	22185
863.24	22687
863.372	22181
863.504	22181
863.636	22265
863.768	22295
863.9	22344
864.032	22249
864.164	22265
864.296	22249
864.428	22367
864.559	22333
864.691	22234
864.823	22215
864.954	22306
865.086	22211
865.217	22154
865.349	22143
865.48	22044
865.612	22188
865.743	22348
865.875	22086
866.006	22093
866.137	22109
866.269	22158
866.4	22158
866.531	21994
866.662	22051
866.793	22040
866.924	22116
867.055	22219
867.186	21998
867.317	21876
867.448	21968
867.579	22040
867.71	21975
867.841	21899
867.972	21979
868.103	22002
868.233	22029
868.364	22025
868.495	22192
868.625	22356
868.756	22322
868.886	22185
869.017	22306
869.147	22470
869.278	22329
869.408	22375
869.539	22238
869.669	22421
869.799	22398
869.929	22440
870.06	22569
870.19	22653
870.32	22451
870.45	22664
870.58	22774
870.71	22740
870.84	22805
870.97	22607
871.1	22679
871.23	22801
871.36	22889
871.489	22805
871.619	22839
871.749	22881
871.879	22881
872.008	22980
872.138	22919
872.267	22877
872.397	22835
872.526	22782
872.656	22702
872.785	22729
872.915	22934
873.044	22919
873.173	22961
873.303	22930
873.432	22915
873.561	23003
873.69	23044
873.819	22831
873.948	23052
874.077	22908
874.206	22881
874.335	22980
874.464	23010
874.593	23235
874.722	23071
874.851	23102
874.979	23170
875.108	23155
875.237	23071
875.365	23075
875.494	23132
875.623	23109
875.751	23052
875.88	23052
876.008	23284
876.136	23383
876.265	23455
876.393	23649
876.521	23512
876.65	23589
876.778	23547
876.906	23505
877.034	23471
877.162	23444
877.29	23246
877.418	23387
877.546	23535
877.674	23425
877.802	23436
877.93	23337
878.058	23414
878.185	23345
878.313	23402
878.441	23387
878.568	23334
878.696	23376
878.824	23440
878.951	23531
879.079	23585
879.206	23828
879.333	23623
879.461	23539
879.588	23608
879.715	23699
879.842	23866
879.97	23581
880.097	23337
880.224	23254
880.351	23334
880.478	23311
880.605	23231
880.732	23197
880.859	23524
880.986	23170
881.112	23231
881.239	23159
881.366	23079
881.493	22991
881.619	22850
881.746	22942
881.872	22847
881.999	22740
882.125	22706
882.252	22877
882.378	22755
882.505	22904
882.631	22733
882.757	22675
882.883	22607
883.01	22622
883.136	22371
883.262	22367
883.388	22405
883.514	22577
883.64	22599
883.766	22375
883.892	22299
884.018	22257
884.143	22363
884.269	22500
884.395	22284
884.52	22044
884.646	22074
884.772	21991
884.897	22135
885.023	22192
885.148	22246
885.274	22363
885.399	22272
885.524	22090
885.65	22192
885.775	22253
885.9	22158
886.025	22246
886.15	22265
886.275	22139
886.4	22143
886.525	22090
886.65	22093
886.775	22135
886.9	22238
887.025	22382
887.149	22128
887.274	21983
887.399	21930
887.523	21918
887.648	21831
887.773	21869
887.897	22013
888.021	21865
888.146	21903
888.27	22067
888.395	21934
888.519	21991
888.643	21850
888.767	22006
888.891	21812
889.015	21717
889.139	21770
889.263	21614
889.387	21698
889.511	21907
889.635	21884
889.759	21553
889.883	21568
890.006	21622
890.13	21785
890.254	21671
890.377	21500
890.501	21481
890.624	21454
890.748	21488
890.871	21325
890.995	21344
891.118	21108
891.241	21260
891.364	21272
891.488	21256
891.611	21291
891.734	21161
891.857	21252
891.98	21176
892.103	21302
892.226	21195
892.349	21135
892.471	20994
892.594	21039
892.717	21176
892.839	21169
892.962	21214
893.085	21169
893.207	21081
893.33	21089
893.452	21100
893.575	21127
893.697	21108
893.819	21272
893.941	21294
894.064	21287
894.186	21009
894.308	21199
894.43	21108
894.552	21207
894.674	21188
894.796	20975
894.918	21100
895.04	21104
895.161	21112
895.283	21074
895.405	21104
895.526	21230
895.648	21135
895.769	21195
895.891	21188
896.012	21138
896.134	21108
896.255	21123
896.376	21066
896.498	21123
896.619	21142
896.74	21089
896.861	21013
896.982	21450
897.103	21481
897.224	21351
897.345	21424
897.466	21165
897.587	21294
897.708	21405
897.828	21291
897.949	21306
898.07	21096
898.19	21283
898.311	21469
898.431	21214
898.552	21344
898.672	21287
898.792	21401
898.913	21351
899.033	21142
899.153	21112
899.273	21005
899.393	20929
899.513	21093
899.633	20963
899.753	20933
899.873	20906
899.993	21081
900.113	21070
900.232	21009
900.352	20918
900.472	20906
900.591	20701
900.711	20758
900.83	20773
900.95	20857
901.069	20796
901.189	20667
901.308	20450
901.427	20339
901.546	20355
901.665	20389
901.784	20298
901.904	20180
902.023	20168
902.141	19894
902.26	19925
902.379	20012
902.498	19841
902.617	19708
902.735	19970
902.854	19849
902.973	19753
903.091	19556
903.21	19525
903.328	19476
903.446	19407
903.565	19460
903.683	19419
903.801	19240
903.919	19293
904.038	19206
904.156	19107
904.274	19160
904.392	18935
904.51	19069
904.627	19072
904.745	19103
904.863	19099
904.981	18913
905.098	18795
905.216	18757
905.334	18791
905.451	18772
905.569	18722
905.686	18764
905.803	18681
905.921	18582
906.038	18677
906.155	18551
906.272	18327
906.389	18506
906.506	18281
906.623	18418
906.74	18319
906.857	18159
906.974	18232
907.091	18334
907.208	18429
907.324	18251
907.441	18186
907.557	18053
907.674	17992
907.79	17927
907.907	18007
908.023	18007
908.139	17988
908.256	17904
908.372	17878
908.488	17824
908.604	17691
908.72	17691
908.836	17649
908.952	17710
909.068	17589
909.184	17760
909.3	17722
909.415	17691
909.531	17726
909.647	17368
909.762	17463
909.878	17493
909.993	17398
910.108	17391
910.224	17421
910.339	17368
910.454	17334
910.57	17212
910.685	17170
910.8	17398
910.915	17360
911.03	17204
911.145	17056
911.259	16946
911.374	16995
911.489	16968
911.604	16923
911.718	16805
911.833	16850
911.947	16683
912.062	16649
912.176	16763
912.291	16744
912.405	16721
912.519	16949
912.633	16919
912.748	16778
912.862	16622
912.976	16565
913.09	16489
913.204	16565
913.318	16546
913.431	16641
913.545	16584
913.659	16630
913.772	16531
913.886	16322
914	16386
914.113	16455
914.226	16554
914.34	16287
914.453	16192
914.566	16386
914.68	16249
914.793	16135
914.906	16101
915.019	15892
915.132	15842
915.245	16013
915.358	15960
915.47	15994
915.583	15880
915.696	16025
915.809	16029
915.921	16032
916.034	15774
916.146	15747
916.259	15743
916.371	15880
916.483	15934
916.595	15797
916.708	15823
916.82	15614
916.932	15690
917.044	15686
917.156	15625
917.268	15584
917.38	15561
917.491	15485
917.603	15469
917.715	15538
917.826	15606
917.938	15466
918.049	15416
918.161	15481
918.272	15603
918.384	15610
918.495	15466
918.606	15321
918.717	15230
918.828	15306
918.939	15344
919.05	15173
919.161	15264
919.272	15173
919.383	15169
919.494	15237
919.604	15405
919.715	15287
919.826	15154
919.936	15192
920.047	15306
920.157	15321
920.267	15435
920.378	15203
920.488	15214
920.598	15443
920.708	15549
920.818	15302
920.928	15359
921.038	15530
921.148	15511
921.258	15066
921.368	15058
921.477	15127
921.587	14944
921.697	14811
921.806	14918
921.916	14853
922.025	14705
922.134	14606
922.244	14552
922.353	14594
922.462	14476
922.571	14332
922.68	14267
922.789	14313
922.898	14263
923.007	14180
923.116	14225
923.224	14187
923.333	14153
923.442	14138
923.55	14092
923.659	14161
923.767	14126
923.876	14046
923.984	14103
924.092	13860
924.201	14024
924.309	13925
924.417	13936
924.525	13940
924.633	13917
924.741	14765
924.849	13609
924.956	13822
925.064	13594
925.172	13571
925.279	13582
925.387	13670
925.494	13658
925.602	13765
925.709	13677
925.816	13590
925.924	13533
926.031	13719
926.138	13491
926.245	13586
926.352	13441
926.459	13552
926.566	13636
926.673	13487
926.779	13365
926.886	13419
926.993	13179
927.099	13160
927.206	13202
927.312	13145
927.419	13183
927.525	13160
927.631	13175
927.737	13027
927.843	12981
927.95	12890
928.056	12973
928.162	12932
928.267	13008
928.373	13468
928.479	13019
928.585	12806
928.69	12802
928.796	12935
928.901	12844
929.007	12658
929.112	12821
929.218	12814
929.323	12703
929.428	12715
929.533	12764
929.638	12582
929.743	12566
929.848	12627
929.953	12585
930.058	12498
930.163	12361
930.267	12346
930.372	12410
930.477	12266
930.581	12540
930.685	12391
930.79	12235
930.894	12216
930.998	12171
931.103	12330
931.207	11908
931.311	11908
931.415	11836
931.519	11646
931.623	11551
