Data from test_V78500241_1525.txt Node
Date: Fri Mar 25 15:52:21 CST 2022
User: usil
Spectrometer: V785-0024
Trigger mode: 0
Integration Time (sec): 4.000000E-1
Scans to average: 1
Nonlinearity correction enabled: false
Boxcar width: 0
Storing dark spectrum: false
XAxis mode: Wavelengths
Number of Pixels in Spectrum: 1024
>>>>>Begin Spectral Data<<<<<
801.071	27994
801.214	27983
801.356	27812
801.499	27869
801.641	27523
801.783	27663
801.926	27587
802.068	27561
802.211	27549
802.353	27473
802.496	27332
802.638	27195
802.78	27321
802.923	27268
803.065	27176
803.208	27245
803.35	27222
803.492	27329
803.635	27473
803.777	27454
803.919	27534
804.061	27797
804.204	27477
804.346	27454
804.488	27363
804.63	27553
804.773	27405
804.915	27553
805.057	27648
805.199	27526
805.341	27454
805.483	27690
805.626	27770
805.768	27618
805.91	27625
806.052	27599
806.194	27633
806.336	27701
806.478	27667
806.62	27587
806.762	27892
806.904	27785
807.046	28169
807.188	28128
807.33	28055
807.472	28032
807.614	28021
807.756	28124
807.898	27949
808.04	27736
808.182	27880
808.324	27838
808.465	27869
808.607	28223
808.749	28284
808.891	28348
809.033	28291
809.174	28268
809.316	28329
809.458	28287
809.6	28261
809.741	28401
809.883	28459
810.025	28694
810.166	28493
810.308	28596
810.45	28451
810.591	28436
810.733	28363
810.875	28215
811.016	28166
811.158	28143
811.299	28341
811.441	28470
811.582	28550
811.724	28348
811.865	28242
812.007	28234
812.148	28249
812.29	28291
812.431	28535
812.573	28592
812.714	28519
812.855	28713
812.997	28740
813.138	28919
813.279	28949
813.421	28702
813.562	28698
813.703	28656
813.845	28478
813.986	28059
814.127	28105
814.268	28063
814.41	28246
814.551	27945
814.692	28101
814.833	27739
814.974	27956
815.115	27937
815.256	27823
815.397	27861
815.539	27793
815.68	27804
815.821	27743
815.962	27732
816.103	27690
816.244	27599
816.385	27671
816.526	27492
816.666	27420
816.807	27180
816.948	27325
817.089	27481
817.23	27329
817.371	27416
817.512	27176
817.653	27412
817.793	27222
817.934	27268
818.075	27359
818.216	27298
818.356	27207
818.497	27214
818.638	26944
818.778	27116
818.919	27020
819.06	27051
819.2	27112
819.341	27032
819.481	27306
819.622	27351
819.762	27728
819.903	27576
820.043	27545
820.184	27420
820.324	27454
820.465	27431
820.605	27294
820.746	27310
820.886	27214
821.026	27424
821.167	27348
821.307	27538
821.447	27397
821.588	27226
821.728	27165
821.868	26971
822.008	26864
822.149	26689
822.289	26682
822.429	26484
822.569	26461
822.709	26434
822.849	26206
822.99	26210
823.13	26176
823.27	26168
823.41	26122
823.55	25978
823.69	26065
823.83	26024
823.97	25963
824.11	25883
824.25	25906
824.389	25902
824.529	25917
824.669	25925
824.809	26016
824.949	25959
825.089	26008
825.228	25940
825.368	25791
825.508	25681
825.648	25788
825.787	25746
825.927	25803
826.067	25731
826.206	25761
826.346	25803
826.485	25849
826.625	25879
826.765	25833
826.904	25696
827.044	25495
827.183	25491
827.323	25476
827.462	25540
827.601	25575
827.741	25339
827.88	25670
828.02	25487
828.159	25468
828.298	25514
828.437	25639
828.577	25457
828.716	25578
828.855	25407
828.994	25107
829.134	25168
829.273	25240
829.412	25209
829.551	25103
829.69	25129
829.829	25274
829.968	25362
830.107	25282
830.246	25202
830.385	25118
830.524	25042
830.663	24871
830.802	24806
830.941	24837
831.08	24814
831.219	24673
831.357	24741
831.496	24837
831.635	24749
831.774	24692
831.913	24661
832.051	24650
832.19	24483
832.329	24627
832.467	24521
832.606	24319
832.744	24502
832.883	24414
833.022	24369
833.16	24536
833.299	24452
833.437	24437
833.576	24540
833.714	24521
833.852	24585
833.991	24578
834.129	24654
834.267	24528
834.406	24612
834.544	24650
834.682	24456
834.821	24475
834.959	24681
835.097	24540
835.235	24517
835.373	24456
835.511	24555
835.65	24441
835.788	24338
835.926	24273
836.064	24167
836.202	24224
836.34	24410
836.478	24414
836.615	24350
836.753	24319
836.891	24437
837.029	24376
837.167	24178
837.305	24346
837.443	24121
837.58	24129
837.718	24296
837.856	24121
837.993	24136
838.131	24220
838.269	23977
838.406	24167
838.544	24007
838.681	23798
838.819	23767
838.956	23642
839.094	23535
839.231	23646
839.369	23901
839.506	23958
839.643	23851
839.781	23592
839.918	23509
840.055	23714
840.193	23676
840.33	23615
840.467	23524
840.604	23623
840.742	23882
840.879	23577
841.016	23547
841.153	23406
841.29	23573
841.427	23516
841.564	23630
841.701	23520
841.838	23421
841.975	23402
842.112	23478
842.249	23341
842.385	23235
842.522	23592
842.659	23493
842.796	23318
842.933	23166
843.069	23223
843.206	23258
843.343	23250
843.479	23292
843.616	23406
843.752	22972
843.889	23155
844.025	23151
844.162	23098
844.298	23181
844.435	23113
844.571	23044
844.708	23162
844.844	23204
844.98	23220
845.117	23178
845.253	22995
845.389	22892
845.525	22968
845.661	22946
845.798	22725
845.934	22774
846.07	22691
846.206	22877
846.342	22980
846.478	22790
846.614	22622
846.75	22466
846.886	22447
847.022	22634
847.158	22660
847.294	22596
847.429	22478
847.565	22455
847.701	22763
847.837	22306
847.972	22299
848.108	22314
848.244	22287
848.379	22196
848.515	22097
848.65	22097
848.786	22192
848.921	22230
849.057	22162
849.192	22200
849.328	22169
849.463	22177
849.598	22051
849.734	22055
849.869	22032
850.004	21842
850.14	21949
850.275	21838
850.41	21766
850.545	21762
850.68	21945
850.815	22025
850.95	22029
851.085	21994
851.22	22044
851.355	21888
851.49	21827
851.625	21812
851.76	21926
851.895	21880
852.03	21842
852.165	21899
852.299	21949
852.434	22036
852.569	21903
852.703	21945
852.838	21903
852.973	22040
853.107	21930
853.242	21785
853.376	21778
853.511	21709
853.645	21599
853.78	21816
853.914	21679
854.048	21656
854.183	21739
854.317	21720
854.451	21972
854.585	21789
854.72	21793
854.854	21713
854.988	21720
855.122	21762
855.256	21629
855.39	21690
855.524	21865
855.658	21800
855.792	21819
855.926	21698
856.06	21728
856.194	21789
856.327	21720
856.461	21625
856.595	21667
856.729	21759
856.862	21865
856.996	21774
857.13	21755
857.263	21823
857.397	21831
857.53	21690
857.664	21800
857.797	21785
857.931	21819
858.064	21823
858.197	21895
858.331	21713
858.464	21660
858.597	21637
858.731	21732
858.864	21568
858.997	21652
859.13	21629
859.263	21679
859.396	21789
859.529	21838
859.662	21705
859.795	21614
859.928	21797
860.061	21911
860.194	22029
860.327	21880
860.46	21743
860.592	21846
860.725	21876
860.858	21835
860.99	21838
861.123	21781
861.256	21675
861.388	21587
861.521	22295
861.653	21572
861.786	21526
861.918	21637
862.05	21564
862.183	21580
862.315	21644
862.447	21663
862.58	21728
862.712	21458
862.844	21473
862.976	21507
863.108	21618
863.24	21819
863.372	21450
863.504	21340
863.636	21500
863.768	21523
863.9	21473
864.032	21488
864.164	21351
864.296	21393
864.428	21549
864.559	21511
864.691	21576
864.823	21534
864.954	21450
865.086	21424
865.217	21454
865.349	21329
865.48	21348
865.612	21367
865.743	21462
865.875	21412
866.006	21321
866.137	21116
866.269	21397
866.4	21321
866.531	21294
866.662	21127
866.793	21268
866.924	21241
867.055	21249
867.186	21272
867.317	21245
867.448	21211
867.579	21230
867.71	21169
867.841	21287
867.972	21222
868.103	21317
868.233	21279
868.364	21317
868.495	21332
868.625	21511
868.756	21587
868.886	21405
869.017	21416
869.147	21534
869.278	21583
869.408	21542
869.539	21458
869.669	21622
869.799	21583
869.929	21629
870.06	21492
870.19	21827
870.32	21759
870.45	21743
870.58	22025
870.71	22051
870.84	22036
870.97	21956
871.1	21960
871.23	22036
871.36	22192
871.489	22029
871.619	22055
871.749	22135
871.879	22124
872.008	22181
872.138	21983
872.267	22120
872.397	21953
872.526	21873
872.656	22002
872.785	21949
872.915	22181
873.044	22219
873.173	22139
873.303	22158
873.432	22131
873.561	22169
873.69	22162
873.819	22150
873.948	22177
874.077	22166
874.206	22090
874.335	22002
874.464	22211
874.593	22249
874.722	22234
874.851	22394
874.979	22318
875.108	22284
875.237	22314
875.365	22268
875.494	22371
875.623	22417
875.751	22249
875.88	22337
876.008	22497
876.136	22413
876.265	22839
876.393	22911
876.521	22908
876.65	22774
876.778	22611
876.906	22672
877.034	22592
877.162	22675
877.29	22710
877.418	22668
877.546	22687
877.674	22668
877.802	22622
877.93	22630
878.058	22656
878.185	22546
878.313	22599
878.441	22599
878.568	22550
878.696	22615
878.824	22641
878.951	22755
879.079	22919
879.206	22972
879.333	22820
879.461	22721
879.588	22900
879.715	22797
879.842	22930
879.97	22786
880.097	22474
880.224	22432
880.351	22679
880.478	22455
880.605	22497
880.732	22455
880.859	22713
880.986	22508
881.112	22443
881.239	22306
881.366	22246
881.493	22226
881.619	22158
881.746	22128
881.872	22025
881.999	22158
882.125	22192
882.252	22067
882.378	21998
882.505	22128
882.631	21956
882.757	21766
882.883	21880
883.01	21778
883.136	21648
883.262	21671
883.388	21667
883.514	21690
883.64	21789
883.766	21561
883.892	21458
884.018	21682
884.143	21739
884.269	21873
884.395	21416
884.52	21519
884.646	21481
884.772	21435
884.897	21310
885.023	21557
885.148	21519
885.274	21682
885.399	21507
885.524	21420
885.65	21370
885.775	21454
885.9	21386
886.025	21477
886.15	21416
886.275	21492
886.4	21386
886.525	21386
886.65	21275
886.775	21321
886.9	21477
887.025	21595
887.149	21466
887.274	21233
887.399	21252
887.523	21317
887.648	21173
887.773	21237
887.897	21310
888.021	21176
888.146	21100
888.27	21279
888.395	21355
888.519	21199
888.643	21332
888.767	21226
888.891	21123
889.015	20960
889.139	21020
889.263	21020
889.387	21138
889.511	21127
889.635	20998
889.759	21074
889.883	21001
890.006	20994
890.13	21112
890.254	20906
890.377	20902
890.501	20667
890.624	20720
890.748	20716
890.871	20587
890.995	20587
891.118	20492
891.241	20469
891.364	20518
891.488	20743
891.611	20549
891.734	20560
891.857	20651
891.98	20556
892.103	20560
892.226	20442
892.349	20465
892.471	20263
892.594	20541
892.717	20484
892.839	20427
892.962	20400
893.085	20419
893.207	20511
893.33	20415
893.452	20324
893.575	20518
893.697	20298
893.819	20549
893.941	20568
894.064	20454
894.186	20423
894.308	20347
894.43	20537
894.552	20636
894.674	20556
894.796	20374
894.918	20434
895.04	20381
895.161	20446
895.283	20461
895.405	20465
895.526	20499
895.648	20427
895.769	20385
895.891	20499
896.012	20507
896.134	20514
896.255	20469
896.376	20412
896.498	20473
896.619	20400
896.74	20438
896.861	20549
896.982	20720
897.103	20944
897.224	20739
897.345	20648
897.466	20552
897.587	20682
897.708	20689
897.828	20594
897.949	20514
898.07	20492
898.19	20602
898.311	20765
898.431	20583
898.552	20663
898.672	20739
898.792	20762
898.913	20606
899.033	20484
899.153	20473
899.273	20248
899.393	20324
899.513	20305
899.633	20442
899.753	20358
899.873	20374
899.993	20473
900.113	20282
900.232	20362
900.352	20233
900.472	20062
900.591	20149
900.711	20145
900.83	20043
900.95	20191
901.069	20244
901.189	20062
901.308	19879
901.427	19746
901.546	19712
901.665	19811
901.784	19841
901.904	19651
902.023	19559
902.141	19411
902.26	19316
902.379	19312
902.498	19293
902.617	19175
902.735	19320
902.854	19183
902.973	19160
903.091	19031
903.21	18840
903.328	18791
903.446	18817
903.565	18719
903.683	18681
903.801	18715
903.919	18715
904.038	18608
904.156	18467
904.274	18521
904.392	18494
904.51	18513
904.627	18441
904.745	18593
904.863	18525
904.981	18277
905.098	18182
905.216	18072
905.334	18125
905.451	18125
905.569	18136
905.686	18163
905.803	18114
905.921	18007
906.038	18019
906.155	18030
906.272	17897
906.389	17950
906.506	17824
906.623	17745
906.74	17615
906.857	17558
906.974	17577
907.091	17840
907.208	17748
907.324	17687
907.441	17672
907.557	17478
907.674	17425
907.79	17292
907.907	17315
908.023	17539
908.139	17395
908.256	17353
908.372	17231
908.488	17200
908.604	17200
908.72	17124
908.836	17185
908.952	17041
909.068	17147
909.184	17117
909.3	17098
909.415	17235
909.531	17079
909.647	16873
909.762	16828
909.878	16748
909.993	16850
910.108	16774
910.224	16793
910.339	16687
910.454	16694
910.57	16687
910.685	16577
910.8	16790
910.915	16733
911.03	16607
911.145	16485
911.259	16398
911.374	16519
911.489	16386
911.604	16337
911.718	16242
911.833	16139
911.947	16082
912.062	16154
912.176	16181
912.291	16154
912.405	16188
912.519	16306
912.633	16246
912.748	16124
912.862	16105
912.976	15975
913.09	15911
913.204	16013
913.318	15926
913.431	16067
913.545	16093
913.659	16067
913.772	15941
913.886	15888
914	15835
914.113	15903
914.226	15823
914.34	15816
914.453	15724
914.566	15812
914.68	15686
914.793	15747
914.906	15496
915.019	15412
915.132	15401
915.245	15408
915.358	15397
915.47	15416
915.583	15416
915.696	15443
915.809	15519
915.921	15534
916.034	15340
916.146	15199
916.259	15260
916.371	15397
916.483	15386
916.595	15302
916.708	15237
916.82	15207
916.932	15176
917.044	15272
917.156	15165
917.268	15036
917.38	15047
917.491	15058
917.603	15062
917.715	15123
917.826	15146
917.938	14975
918.049	14906
918.161	15005
918.272	15154
918.384	15108
918.495	14967
918.606	14872
918.717	14773
918.828	14819
918.939	14853
919.05	14689
919.161	14758
919.272	14575
919.383	14636
919.494	14788
919.604	15051
919.715	14868
919.826	14640
919.936	14876
920.047	14804
920.157	14823
920.267	14960
920.378	14735
920.488	14670
920.598	14849
920.708	15123
920.818	14868
920.928	14925
921.038	15017
921.148	14944
921.258	14781
921.368	14674
921.477	14632
921.587	14438
921.697	14412
921.806	14499
921.916	14301
922.025	14126
922.134	14206
922.244	14119
922.353	14161
922.462	14012
922.571	13902
922.68	13791
922.789	13776
922.898	13845
923.007	13689
923.116	13757
923.224	13852
923.333	13799
923.442	13556
923.55	13590
923.659	13651
923.767	13609
923.876	13533
923.984	13605
924.092	13457
924.201	13537
924.309	13609
924.417	13578
924.525	13468
924.633	13506
924.741	14400
924.849	13259
924.956	13426
925.064	13293
925.172	13126
925.279	13149
925.387	13236
925.494	13194
925.602	13308
925.709	13251
925.816	13069
925.924	13145
926.031	13187
926.138	13084
926.245	13183
926.352	13008
926.459	13126
926.566	13133
926.673	13137
926.779	12901
926.886	12985
926.993	12738
927.099	12734
927.206	12700
927.312	12612
927.419	12871
927.525	12684
927.631	12768
927.737	12677
927.843	12642
927.95	12437
928.056	12604
928.162	12620
928.267	12559
928.373	13270
928.479	12544
928.585	12327
928.69	12559
928.796	12604
928.901	12418
929.007	12281
929.112	12517
929.218	12369
929.323	12338
929.428	12327
929.533	12395
929.638	12232
929.743	12224
929.848	12251
929.953	12213
930.058	12197
930.163	12019
930.267	12057
930.372	12125
930.477	11828
930.581	12167
930.685	12011
930.79	11836
930.894	11904
930.998	11748
931.103	11965
931.207	11623
931.311	11532
931.415	11429
931.519	11288
931.623	11181
