Data from test_V78500241_1861.txt Node
Date: Fri Mar 25 15:54:41 CST 2022
User: usil
Spectrometer: V785-0024
Trigger mode: 0
Integration Time (sec): 4.000000E-1
Scans to average: 1
Nonlinearity correction enabled: false
Boxcar width: 0
Storing dark spectrum: false
XAxis mode: Wavelengths
Number of Pixels in Spectrum: 1024
>>>>>Begin Spectral Data<<<<<
801.071	28512
801.214	28481
801.356	28356
801.499	28234
801.641	28131
801.783	28116
801.926	28192
802.068	28124
802.211	28070
802.353	28070
802.496	27812
802.638	27766
802.78	27759
802.923	27709
803.065	27682
803.208	27682
803.35	27774
803.492	27956
803.635	28032
803.777	27865
803.919	28116
804.061	28413
804.204	28166
804.346	27975
804.488	27876
804.63	27975
804.773	27979
804.915	27964
805.057	28143
805.199	27816
805.341	28029
805.483	28120
805.626	28154
805.768	28173
805.91	28253
806.052	28268
806.194	28181
806.336	28341
806.478	28253
806.62	28196
806.762	28440
806.904	28367
807.046	28702
807.188	28649
807.33	28508
807.472	28729
807.614	28519
807.756	28634
807.898	28527
808.04	28417
808.182	28322
808.324	28550
808.465	28440
808.607	28790
808.749	28976
808.891	28946
809.033	29056
809.174	28972
809.316	28873
809.458	28877
809.6	28862
809.741	28843
809.883	28888
810.025	29231
810.166	29181
810.308	29204
810.45	29231
810.591	29037
810.733	28877
810.875	28904
811.016	28786
811.158	28713
811.299	28881
811.441	29105
811.582	29056
811.724	28866
811.865	28828
812.007	28828
812.148	28866
812.29	28976
812.431	29041
812.573	29204
812.714	29429
812.855	29379
812.997	29531
813.138	29600
813.279	29531
813.421	29482
813.562	29261
813.703	29277
813.845	29060
813.986	28862
814.127	28793
814.268	28577
814.41	28649
814.551	28577
814.692	28668
814.833	28462
814.974	28588
815.115	28645
815.256	28440
815.397	28352
815.539	28527
815.68	28478
815.821	28481
815.962	28481
816.103	28360
816.244	28226
816.385	28173
816.526	28185
816.666	28078
816.807	27907
816.948	27975
817.089	28006
817.23	27842
817.371	27907
817.512	27869
817.653	27751
817.793	27831
817.934	28006
818.075	27892
818.216	28040
818.356	27903
818.497	27926
818.638	27587
818.778	27709
818.919	27603
819.06	27762
819.2	27751
819.341	27918
819.481	27808
819.622	28002
819.762	28356
819.903	28204
820.043	28029
820.184	27998
820.324	28139
820.465	28150
820.605	28116
820.746	28029
820.886	27880
821.026	27907
821.167	27953
821.307	28017
821.447	27953
821.588	27892
821.728	27652
821.868	27431
822.008	27454
822.149	27325
822.289	27325
822.429	27241
822.569	27123
822.709	27230
822.849	26929
822.99	26963
823.13	26826
823.27	26830
823.41	26617
823.55	26495
823.69	26762
823.83	26667
823.97	26606
824.11	26461
824.25	26503
824.389	26396
824.529	26594
824.669	26434
824.809	26549
824.949	26609
825.089	26609
825.228	26613
825.368	26381
825.508	26473
825.648	26434
825.787	26358
825.927	26484
826.067	26404
826.206	26461
826.346	26412
826.485	26533
826.625	26374
826.765	26450
826.904	26473
827.044	26199
827.183	26096
827.323	26237
827.462	26088
827.601	26096
827.741	26039
827.88	26187
828.02	25986
828.159	26020
828.298	26046
828.437	26237
828.577	25993
828.716	26221
828.855	26027
828.994	25811
829.134	25894
829.273	25890
829.412	25715
829.551	25734
829.69	25677
829.829	25887
829.968	25849
830.107	25959
830.246	25746
830.385	25757
830.524	25651
830.663	25529
830.802	25491
830.941	25403
831.08	25537
831.219	25384
831.357	25400
831.496	25666
831.635	25491
831.774	25297
831.913	25426
832.051	25346
832.19	25346
832.329	25168
832.467	25160
832.606	25198
832.744	25027
832.883	25099
833.022	25065
833.16	24962
833.299	25088
833.437	25228
833.576	25088
833.714	25168
833.852	25247
833.991	25217
834.129	25194
834.267	25183
834.406	25179
834.544	25217
834.682	25129
834.821	25069
834.959	25331
835.097	25076
835.235	25145
835.373	25114
835.511	25126
835.65	25008
835.788	24943
835.926	24951
836.064	24734
836.202	24772
836.34	24920
836.478	24962
836.615	24977
836.753	24962
836.891	25000
837.029	24939
837.167	24939
837.305	24844
837.443	24837
837.58	24779
837.718	24825
837.856	24882
837.993	24776
838.131	24627
838.269	24536
838.406	24684
838.544	24597
838.681	24570
838.819	24475
838.956	24376
839.094	24353
839.231	24251
839.369	24361
839.506	24627
839.643	24490
839.781	24178
839.918	24125
840.055	24167
840.193	24163
840.33	24171
840.467	24201
840.604	24251
840.742	24467
840.879	23977
841.016	24064
841.153	24045
841.29	24232
841.427	24178
841.564	24258
841.701	24060
841.838	24171
841.975	23977
842.112	24045
842.249	23923
842.385	23931
842.522	24152
842.659	23996
842.796	23805
842.933	24015
843.069	23748
843.206	23920
843.343	23961
843.479	23889
843.616	23927
843.752	23672
843.889	23661
844.025	23851
844.162	23581
844.298	23703
844.435	23676
844.571	23745
844.708	23691
844.844	23992
844.98	23805
845.117	23824
845.253	23710
845.389	23600
845.525	23619
845.661	23516
845.798	23440
845.934	23463
846.07	23410
846.206	23414
846.342	23630
846.478	23406
846.614	23159
846.75	23204
846.886	23128
847.022	23166
847.158	23102
847.294	23330
847.429	23181
847.565	23147
847.701	23436
847.837	22934
847.972	22873
848.108	22927
848.244	22995
848.379	22854
848.515	22702
848.65	22713
848.786	22748
848.921	22729
849.057	22885
849.192	22839
849.328	22763
849.463	22687
849.598	22675
849.734	22622
849.869	22546
850.004	22542
850.14	22519
850.275	22481
850.41	22341
850.545	22424
850.68	22504
850.815	22481
850.95	22485
851.085	22596
851.22	22615
851.355	22538
851.49	22580
851.625	22409
851.76	22455
851.895	22466
852.03	22424
852.165	22580
852.299	22519
852.434	22523
852.569	22653
852.703	22485
852.838	22500
852.973	22637
853.107	22615
853.242	22459
853.376	22363
853.511	22166
853.645	22226
853.78	22546
853.914	22379
854.048	22333
854.183	22299
854.317	22405
854.451	22546
854.585	22352
854.72	22367
854.854	22375
854.988	22249
855.122	22265
855.256	22158
855.39	22238
855.524	22382
855.658	22440
855.792	22299
855.926	22238
856.06	22443
856.194	22478
856.327	22310
856.461	22314
856.595	22234
856.729	22287
856.862	22405
856.996	22291
857.13	22432
857.263	22523
857.397	22360
857.53	22428
857.664	22333
857.797	22375
857.931	22493
858.064	22344
858.197	22402
858.331	22390
858.464	22249
858.597	22299
858.731	22169
858.864	22287
858.997	22249
859.13	22447
859.263	22337
859.396	22375
859.529	22344
859.662	22417
859.795	22215
859.928	22348
860.061	22379
860.194	22485
860.327	22314
860.46	22371
860.592	22538
860.725	22478
860.858	22493
860.99	22352
861.123	22181
861.256	22352
861.388	22272
861.521	23132
861.653	22246
861.786	22154
861.918	22143
862.05	22211
862.183	22211
862.315	22158
862.447	22409
862.58	22188
862.712	22025
862.844	21911
862.976	22143
863.108	22158
863.24	22363
863.372	21899
863.504	22036
863.636	21991
863.768	22017
863.9	22048
864.032	21972
864.164	21941
864.296	22013
864.428	22124
864.559	22013
864.691	22032
864.823	21983
864.954	22021
865.086	22074
865.217	21911
865.349	21953
865.48	21857
865.612	21964
865.743	22124
865.875	21960
866.006	21937
866.137	21892
866.269	21899
866.4	21861
866.531	21812
866.662	21854
866.793	21819
866.924	21793
867.055	21915
867.186	21831
867.317	21732
867.448	21679
867.579	21831
867.71	21694
867.841	21762
867.972	21816
868.103	21838
868.233	21759
868.364	21838
868.495	22032
868.625	21899
868.756	22185
868.886	22025
869.017	22044
869.147	22226
869.278	22219
869.408	22162
869.539	22040
869.669	22207
869.799	22109
869.929	22181
870.06	22234
870.19	22310
870.32	22329
870.45	22367
870.58	22371
870.71	22493
870.84	22573
870.97	22531
871.1	22436
871.23	22481
871.36	22672
871.489	22577
871.619	22755
871.749	22698
871.879	22710
872.008	22645
872.138	22672
872.267	22683
872.397	22474
872.526	22402
872.656	22428
872.785	22538
872.915	22729
873.044	22615
873.173	22683
873.303	22698
873.432	22660
873.561	22812
873.69	22771
873.819	22615
873.948	22919
874.077	22675
874.206	22683
874.335	22729
874.464	22809
874.593	22991
874.722	22908
874.851	22923
874.979	22843
875.108	23029
875.237	22911
875.365	22786
875.494	22923
875.623	22965
875.751	22896
875.88	22831
876.008	22904
876.136	23003
876.265	23235
876.393	23459
876.521	23406
876.65	23383
876.778	23284
876.906	23322
877.034	23174
877.162	23265
877.29	23109
877.418	23318
877.546	23242
877.674	23277
877.802	23292
877.93	23071
878.058	23189
878.185	23098
878.313	23143
878.441	23395
878.568	23094
878.696	23265
878.824	23250
878.951	23284
879.079	23292
879.206	23509
879.333	23303
879.461	23315
879.588	23398
879.715	23379
879.842	23448
879.97	23334
880.097	23189
880.224	23056
880.351	23003
880.478	23159
880.605	22995
880.732	23117
880.859	23284
880.986	23223
881.112	23010
881.239	22835
881.366	22877
881.493	22729
881.619	22592
881.746	22755
881.872	22603
881.999	22641
882.125	22611
882.252	22561
882.378	22569
882.505	22660
882.631	22470
882.757	22280
882.883	22329
883.01	22363
883.136	22314
883.262	22196
883.388	22154
883.514	22242
883.64	22409
883.766	22223
883.892	22063
884.018	21937
884.143	22265
884.269	22211
884.395	22109
884.52	21922
884.646	22059
884.772	21827
884.897	21778
885.023	21991
885.148	22082
885.274	22116
885.399	22044
885.524	21964
885.65	21991
885.775	21964
885.9	21911
886.025	22032
886.15	21998
886.275	21892
886.4	21800
886.525	21922
886.65	21865
886.775	21857
886.9	21975
887.025	22135
887.149	21854
887.274	21690
887.399	21663
887.523	21728
887.648	21526
887.773	21545
887.897	21808
888.021	21747
888.146	21747
888.27	21774
888.395	21778
888.519	21793
888.643	21717
888.767	21865
888.891	21629
889.015	21485
889.139	21568
889.263	21466
889.387	21507
889.511	21675
889.635	21641
889.759	21507
889.883	21458
890.006	21553
890.13	21618
890.254	21363
890.377	21374
890.501	21378
890.624	21252
890.748	21348
890.871	21272
890.995	20933
891.118	21055
891.241	21081
891.364	21051
891.488	21089
891.611	21024
891.734	21116
891.857	21024
891.98	20967
892.103	21077
892.226	21017
892.349	21039
892.471	20815
892.594	21047
892.717	20967
892.839	21009
892.962	21001
893.085	20906
893.207	20849
893.33	20773
893.452	20826
893.575	20929
893.697	20941
893.819	21055
893.941	20941
894.064	21093
894.186	20785
894.308	20883
894.43	20990
894.552	20956
894.674	21020
894.796	20876
894.918	20864
895.04	20967
895.161	20914
895.283	20998
895.405	20864
895.526	20883
895.648	21009
895.769	20864
895.891	20941
896.012	21020
896.134	20963
896.255	20986
896.376	20853
896.498	20998
896.619	21119
896.74	20956
896.861	20963
896.982	21245
897.103	21340
897.224	21214
897.345	21245
897.466	21138
897.587	21195
897.708	21207
897.828	21047
897.949	21009
898.07	20948
898.19	21017
898.311	21104
898.431	21188
898.552	21184
898.672	21150
898.792	21135
898.913	21104
899.033	21199
899.153	20887
899.273	20868
899.393	20948
899.513	20842
899.633	20902
899.753	20830
899.873	20705
899.993	20902
900.113	20785
900.232	20853
900.352	20804
900.472	20583
900.591	20636
900.711	20735
900.83	20613
900.95	20689
901.069	20815
901.189	20583
901.308	20358
901.427	20229
901.546	20138
901.665	20301
901.784	20180
901.904	20077
902.023	20039
902.141	19727
902.26	19780
902.379	19742
902.498	19746
902.617	19738
902.735	19742
902.854	19563
902.973	19597
903.091	19381
903.21	19274
903.328	19354
903.446	19312
903.565	19171
903.683	19129
903.801	19050
903.919	19156
904.038	19031
904.156	18913
904.274	19053
904.392	18810
904.51	18954
904.627	18935
904.745	18985
904.863	18985
904.981	18783
905.098	18703
905.216	18559
905.334	18631
905.451	18627
905.569	18547
905.686	18646
905.803	18521
905.921	18403
906.038	18517
906.155	18433
906.272	18342
906.389	18410
906.506	18129
906.623	18030
906.74	18114
906.857	17999
906.974	18034
907.091	18163
907.208	18171
907.324	18110
907.441	18003
907.557	17866
907.674	17824
907.79	17821
907.907	17859
908.023	17771
908.139	17802
908.256	17798
908.372	17684
908.488	17714
908.604	17505
908.72	17532
908.836	17615
908.952	17486
909.068	17573
909.184	17596
909.3	17532
909.415	17592
909.531	17482
909.647	17311
909.762	17246
909.878	17254
909.993	17280
910.108	17212
910.224	17140
910.339	17227
910.454	16972
910.57	17117
910.685	17064
910.8	17261
910.915	17128
911.03	17045
911.145	16915
911.259	16866
911.374	16885
911.489	16767
911.604	16694
911.718	16558
911.833	16538
911.947	16459
912.062	16478
912.176	16523
912.291	16565
912.405	16569
912.519	16740
912.633	16717
912.748	16508
912.862	16500
912.976	16363
913.09	16284
913.204	16276
913.318	16405
913.431	16508
913.545	16451
913.659	16428
913.772	16280
913.886	16287
914	16196
914.113	16211
914.226	16253
914.34	16173
914.453	15968
914.566	16173
914.68	15991
914.793	15960
914.906	15823
915.019	15713
915.132	15728
915.245	15686
915.358	15793
915.47	15789
915.583	15690
915.696	15732
915.809	15831
915.921	15945
916.034	15652
916.146	15656
916.259	15561
916.371	15633
916.483	15610
916.595	15523
916.708	15526
916.82	15599
916.932	15473
917.044	15496
917.156	15462
917.268	15397
917.38	15397
917.491	15424
917.603	15401
917.715	15408
917.826	15458
917.938	15313
918.049	15245
918.161	15321
918.272	15428
918.384	15439
918.495	15214
918.606	15214
918.717	15062
918.828	15157
918.939	15192
919.05	14933
919.161	15028
919.272	15001
919.383	15036
919.494	15150
919.604	15351
919.715	15070
919.826	15062
919.936	15127
920.047	15192
920.157	14956
920.267	15287
920.378	15085
920.488	14941
920.598	15291
920.708	15389
920.818	15226
920.928	15199
921.038	15355
921.148	15260
921.258	14979
921.368	14792
921.477	14842
921.587	14758
921.697	14632
921.806	14731
921.916	14610
922.025	14526
922.134	14415
922.244	14434
922.353	14507
922.462	14294
922.571	14248
922.68	14096
922.789	14012
922.898	14088
923.007	13967
923.116	14164
923.224	14065
923.333	14069
923.442	13928
923.55	13894
923.659	13947
923.767	13955
923.876	13849
923.984	13917
924.092	13772
924.201	13780
924.309	13875
924.417	13784
924.525	13830
924.633	13750
924.741	14511
924.849	13514
924.956	13643
925.064	13590
925.172	13396
925.279	13438
925.387	13422
925.494	13430
925.602	13597
925.709	13537
925.816	13441
925.924	13483
926.031	13419
926.138	13445
926.245	13468
926.352	13213
926.459	13426
926.566	13384
926.673	13274
926.779	13373
926.886	13202
926.993	13046
927.099	13031
927.206	12970
927.312	12913
927.419	12993
927.525	12981
927.631	13084
927.737	12875
927.843	12779
927.95	12772
928.056	12791
928.162	12863
928.267	12852
928.373	13449
928.479	12833
928.585	12574
928.69	12798
928.796	12837
928.901	12635
929.007	12517
929.112	12555
929.218	12616
929.323	12525
929.428	12475
929.533	12703
929.638	12467
929.743	12388
929.848	12483
929.953	12437
930.058	12384
930.163	12266
930.267	12197
930.372	12361
930.477	12171
930.581	12399
930.685	12281
930.79	12140
930.894	12175
930.998	12041
931.103	12186
931.207	11764
931.311	11756
931.415	11600
931.519	11467
931.623	11440
