Data from test_V78500241_1693.txt Node
Date: Fri Mar 25 15:53:31 CST 2022
User: usil
Spectrometer: V785-0024
Trigger mode: 0
Integration Time (sec): 4.000000E-1
Scans to average: 1
Nonlinearity correction enabled: false
Boxcar width: 0
Storing dark spectrum: false
XAxis mode: Wavelengths
Number of Pixels in Spectrum: 1024
>>>>>Begin Spectral Data<<<<<
801.071	27816
801.214	27804
801.356	27614
801.499	27603
801.641	27606
801.783	27496
801.926	27424
802.068	27504
802.211	27336
802.353	27336
802.496	27283
802.638	27032
802.78	27077
802.923	27043
803.065	26895
803.208	26979
803.35	26944
803.492	27321
803.635	27386
803.777	27058
803.919	27329
804.061	27534
804.204	27344
804.346	27283
804.488	27249
804.63	27222
804.773	27245
804.915	27283
805.057	27412
805.199	27112
805.341	27298
805.483	27302
805.626	27374
805.768	27321
805.91	27313
806.052	27542
806.194	27226
806.336	27622
806.478	27454
806.62	27439
806.762	27450
806.904	27739
807.046	27953
807.188	27759
807.33	27816
807.472	28013
807.614	27812
807.756	27793
807.898	27663
808.04	27553
808.182	27804
808.324	27690
808.465	27633
808.607	27873
808.749	27998
808.891	28097
809.033	28291
809.174	28051
809.316	28013
809.458	28090
809.6	28021
809.741	28223
809.883	28097
810.025	28401
810.166	28413
810.308	28356
810.45	28310
810.591	28219
810.733	28169
810.875	28063
811.016	28029
811.158	28044
811.299	28082
811.441	28109
811.582	28139
811.724	27994
811.865	28109
812.007	28044
812.148	27983
812.29	28082
812.431	28257
812.573	28409
812.714	28542
812.855	28596
812.997	28599
813.138	28801
813.279	28634
813.421	28634
813.562	28577
813.703	28356
813.845	28234
813.986	27983
814.127	27880
814.268	27736
814.41	27705
814.551	27770
814.692	27728
814.833	27686
814.974	27660
815.115	27800
815.256	27576
815.397	27431
815.539	27625
815.68	27481
815.821	27454
815.962	27473
816.103	27580
816.244	27302
816.385	27374
816.526	27135
816.666	27096
816.807	27036
816.948	27127
817.089	27096
817.23	27154
817.371	27039
817.512	27108
817.653	27017
817.793	26925
817.934	26979
818.075	27161
818.216	26967
818.356	26940
818.497	26918
818.638	26781
818.778	26689
818.919	26727
819.06	26735
819.2	26807
819.341	27047
819.481	26918
819.622	27093
819.762	27431
819.903	27104
820.043	27214
820.184	27188
820.324	27222
820.465	27127
820.605	27100
820.746	27192
820.886	27013
821.026	27161
821.167	27127
821.307	27199
821.447	27066
821.588	26857
821.728	26857
821.868	26670
822.008	26427
822.149	26667
822.289	26480
822.429	26161
822.569	26073
822.709	26168
822.849	26138
822.99	25982
823.13	26012
823.27	25947
823.41	25727
823.55	25738
823.69	25875
823.83	25738
823.97	25738
824.11	25681
824.25	25559
824.389	25620
824.529	25700
824.669	25616
824.809	25738
824.949	25689
825.089	25685
825.228	25662
825.368	25381
825.508	25487
825.648	25362
825.787	25567
825.927	25533
826.067	25441
826.206	25510
826.346	25590
826.485	25495
826.625	25434
826.765	25616
826.904	25502
827.044	25194
827.183	25194
827.323	25148
827.462	25373
827.601	25225
827.741	25274
827.88	25148
828.02	25099
828.159	25012
828.298	25225
828.437	25346
828.577	25148
828.716	25217
828.855	25034
828.994	24996
829.134	24852
829.273	25046
829.412	24882
829.551	24768
829.69	24996
829.829	25008
829.968	25099
830.107	25141
830.246	24947
830.385	24783
830.524	24711
830.663	24673
830.802	24642
830.941	24403
831.08	24437
831.219	24517
831.357	24574
831.496	24703
831.635	24494
831.774	24426
831.913	24403
832.051	24285
832.19	24197
832.329	24429
832.467	24262
832.606	24030
832.744	24072
832.883	24102
833.022	24228
833.16	24152
833.299	24186
833.437	24243
833.576	24308
833.714	24254
833.852	24266
833.991	24235
834.129	24327
834.267	24163
834.406	24258
834.544	24281
834.682	24289
834.821	24243
834.959	24395
835.097	24159
835.235	24239
835.373	24266
835.511	24136
835.65	24106
835.788	24194
835.926	23920
836.064	23965
836.202	23965
836.34	24041
836.478	24136
836.615	24076
836.753	24133
836.891	24258
837.029	24270
837.167	23961
837.305	23935
837.443	24030
837.58	23927
837.718	24076
837.856	23885
837.993	23870
838.131	23946
838.269	23687
838.406	23832
838.544	23737
838.681	23604
838.819	23467
838.956	23410
839.094	23459
839.231	23391
839.369	23440
839.506	23684
839.643	23676
839.781	23467
839.918	23334
840.055	23349
840.193	23444
840.33	23398
840.467	23341
840.604	23444
840.742	23493
840.879	23185
841.016	23277
841.153	23159
841.29	23467
841.427	23189
841.564	23212
841.701	23288
841.838	23147
841.975	23269
842.112	23208
842.249	23041
842.385	23132
842.522	23235
842.659	23132
842.796	23086
842.933	23079
843.069	22999
843.206	23056
843.343	23052
843.479	22980
843.616	23003
843.752	22790
843.889	22786
844.025	22919
844.162	22843
844.298	22938
844.435	22847
844.571	22797
844.708	22854
844.844	22976
844.98	22953
845.117	22797
845.253	22866
845.389	22767
845.525	22664
845.661	22546
845.798	22618
845.934	22603
846.07	22535
846.206	22466
846.342	22694
846.478	22596
846.614	22371
846.75	22318
846.886	22188
847.022	22352
847.158	22344
847.294	22356
847.429	22234
847.565	22223
847.701	22462
847.837	22006
847.972	22021
848.108	22143
848.244	22044
848.379	21846
848.515	21823
848.65	21854
848.786	21816
848.921	21850
849.057	21979
849.192	21899
849.328	21865
849.463	21850
849.598	21690
849.734	21736
849.869	21671
850.004	21679
850.14	21583
850.275	21652
850.41	21500
850.545	21595
850.68	21576
850.815	21781
850.95	21656
851.085	21846
851.22	21720
851.355	21622
851.49	21583
851.625	21542
851.76	21686
851.895	21568
852.03	21405
852.165	21553
852.299	21667
852.434	21724
852.569	21675
852.703	21679
852.838	21747
852.973	21781
853.107	21770
853.242	21466
853.376	21458
853.511	21466
853.645	21336
853.78	21477
853.914	21568
854.048	21431
854.183	21397
854.317	21564
854.451	21599
854.585	21542
854.72	21348
854.854	21420
854.988	21450
855.122	21340
855.256	21256
855.39	21420
855.524	21549
855.658	21397
855.792	21481
855.926	21458
856.06	21504
856.194	21618
856.327	21363
856.461	21336
856.595	21367
856.729	21447
856.862	21599
856.996	21481
857.13	21500
857.263	21576
857.397	21473
857.53	21485
857.664	21466
857.797	21511
857.931	21534
858.064	21523
858.197	21553
858.331	21439
858.464	21515
858.597	21424
858.731	21370
858.864	21351
858.997	21397
859.13	21481
859.263	21500
859.396	21473
859.529	21416
859.662	21408
859.795	21264
859.928	21332
860.061	21656
860.194	21580
860.327	21526
860.46	21500
860.592	21485
860.725	21660
860.858	21557
860.99	21500
861.123	21367
861.256	21321
861.388	21526
861.521	22090
861.653	21367
861.786	21184
861.918	21279
862.05	21340
862.183	21359
862.315	21447
862.447	21507
862.58	21367
862.712	21047
862.844	21127
862.976	21241
863.108	21256
863.24	21633
863.372	21085
863.504	21313
863.636	21252
863.768	21302
863.9	21260
864.032	21070
864.164	21116
864.296	21154
864.428	21298
864.559	21226
864.691	21233
864.823	21157
864.954	21283
865.086	21192
865.217	21123
865.349	21005
865.48	21154
865.612	21188
865.743	21241
865.875	21081
866.006	21032
866.137	21131
866.269	21108
866.4	21062
866.531	20979
866.662	20952
866.793	20979
866.924	20921
867.055	21036
867.186	21051
867.317	20960
867.448	20929
867.579	21051
867.71	20956
867.841	20994
867.972	21127
868.103	20971
868.233	20921
868.364	21100
868.495	21055
868.625	21169
868.756	21268
868.886	21173
869.017	21157
869.147	21355
869.278	21203
869.408	21252
869.539	21203
869.669	21332
869.799	21298
869.929	21408
870.06	21382
870.19	21481
870.32	21424
870.45	21553
870.58	21785
870.71	21720
870.84	21705
870.97	21591
871.1	21622
871.23	21728
871.36	21854
871.489	21709
871.619	21880
871.749	21823
871.879	21869
872.008	21873
872.138	21770
872.267	21838
872.397	21686
872.526	21751
872.656	21690
872.785	21644
872.915	21766
873.044	21983
873.173	21960
873.303	21991
873.432	21934
873.561	21960
873.69	21873
873.819	21759
873.948	22017
874.077	21888
874.206	21728
874.335	21838
874.464	21953
874.593	22105
874.722	22010
874.851	22067
874.979	22055
875.108	22181
875.237	21960
875.365	21987
875.494	22036
875.623	22150
875.751	22021
875.88	22299
876.008	22181
876.136	22280
876.265	22527
876.393	22626
876.521	22462
876.65	22546
876.778	22402
876.906	22409
877.034	22462
877.162	22443
877.29	22341
877.418	22497
877.546	22481
877.674	22402
877.802	22379
877.93	22379
878.058	22451
878.185	22246
878.313	22424
878.441	22519
878.568	22325
878.696	22295
878.824	22413
878.951	22523
879.079	22630
879.206	22763
879.333	22500
879.461	22424
879.588	22592
879.715	22733
879.842	22790
879.97	22462
880.097	22280
880.224	22325
880.351	22322
880.478	22360
880.605	22128
880.732	22230
880.859	22443
880.986	22314
881.112	22329
881.239	22223
881.366	22067
881.493	21945
881.619	21747
881.746	21854
881.872	21816
881.999	21838
882.125	21755
882.252	21899
882.378	21854
882.505	21759
882.631	21759
882.757	21576
882.883	21542
883.01	21389
883.136	21599
883.262	21412
883.388	21363
883.514	21515
883.64	21545
883.766	21405
883.892	21264
884.018	21306
884.143	21523
884.269	21629
884.395	21272
884.52	21226
884.646	21150
884.772	21024
884.897	21085
885.023	21180
885.148	21245
885.274	21378
885.399	21214
885.524	21093
885.65	21108
885.775	21195
885.9	21123
886.025	21332
886.15	21310
886.275	21104
886.4	21119
886.525	21127
886.65	21100
886.775	21237
886.9	21173
887.025	21416
887.149	21066
887.274	20971
887.399	21005
887.523	20910
887.648	20925
887.773	20804
887.897	21085
888.021	20994
888.146	20883
888.27	21024
888.395	21066
888.519	21043
888.643	20918
888.767	21024
888.891	20857
889.015	20781
889.139	20800
889.263	20720
889.387	20902
889.511	20823
889.635	20864
889.759	20731
889.883	20598
890.006	20644
890.13	20834
890.254	20648
890.377	20750
890.501	20419
890.624	20457
890.748	20450
890.871	20317
890.995	20233
891.118	20332
891.241	20374
891.364	20423
891.488	20419
891.611	20415
891.734	20267
891.857	20351
891.98	20309
892.103	20305
892.226	20259
892.349	20263
892.471	20248
892.594	20275
892.717	20309
892.839	20214
892.962	20214
893.085	20328
893.207	20168
893.33	20130
893.452	20183
893.575	20328
893.697	20199
893.819	20237
893.941	20355
894.064	20244
894.186	20172
894.308	20065
894.43	20286
894.552	20381
894.674	20195
894.796	20043
894.918	20252
895.04	20122
895.161	20206
895.283	20206
895.405	20039
895.526	20153
895.648	20290
895.769	20252
895.891	20176
896.012	20332
896.134	20225
896.255	20267
896.376	20206
896.498	20305
896.619	20107
896.74	20138
896.861	20221
896.982	20556
897.103	20655
897.224	20404
897.345	20370
897.466	20328
897.587	20465
897.708	20598
897.828	20503
897.949	20427
898.07	20305
898.19	20263
898.311	20465
898.431	20320
898.552	20423
898.672	20427
898.792	20484
898.913	20480
899.033	20377
899.153	20298
899.273	20069
899.393	20206
899.513	20286
899.633	20149
899.753	20206
899.873	20111
899.993	20126
900.113	20107
900.232	20164
900.352	20027
900.472	20069
900.591	19944
900.711	19925
900.83	19940
900.95	20096
901.069	20111
901.189	19947
901.308	19651
901.427	19559
901.546	19491
901.665	19533
901.784	19529
901.904	19438
902.023	19392
902.141	19133
902.26	19053
902.379	19110
902.498	19065
902.617	18951
902.735	19183
902.854	19042
902.973	18852
903.091	18673
903.21	18764
903.328	18738
903.446	18582
903.565	18448
903.683	18696
903.801	18418
903.919	18422
904.038	18486
904.156	18281
904.274	18369
904.392	18285
904.51	18235
904.627	18289
904.745	18300
904.863	18270
904.981	18076
905.098	17878
905.216	18038
905.334	17992
905.451	18007
905.569	17988
905.686	17923
905.803	17885
905.921	17809
906.038	17863
906.155	17779
906.272	17653
906.389	17687
906.506	17528
906.623	17570
906.74	17551
906.857	17436
906.974	17292
907.091	17455
907.208	17520
907.324	17543
907.441	17421
907.557	17265
907.674	17258
907.79	17166
907.907	17136
908.023	17239
908.139	17185
908.256	17121
908.372	17105
908.488	17113
908.604	16980
908.72	16923
908.836	17014
908.952	16885
909.068	17029
909.184	16919
909.3	16908
909.415	16957
909.531	16824
909.647	16672
909.762	16542
909.878	16599
909.993	16672
910.108	16603
910.224	16588
910.339	16504
910.454	16493
910.57	16413
910.685	16394
910.8	16550
910.915	16599
911.03	16314
911.145	16200
911.259	16238
911.374	16131
911.489	16223
911.604	16017
911.718	16101
911.833	16029
911.947	15873
912.062	15793
912.176	15865
912.291	15991
912.405	15964
912.519	16173
912.633	16101
912.748	16078
912.862	15907
912.976	15816
913.09	15751
913.204	15732
913.318	15797
913.431	15861
913.545	15865
913.659	15823
913.772	15793
913.886	15564
914	15606
914.113	15595
914.226	15686
914.34	15553
914.453	15473
914.566	15603
914.68	15462
914.793	15408
914.906	15386
915.019	15077
915.132	15100
915.245	15161
915.358	15157
915.47	15161
915.583	15150
915.696	15131
915.809	15192
915.921	15279
916.034	15058
916.146	15043
916.259	15188
916.371	15188
916.483	15104
916.595	14982
916.708	15013
916.82	15017
916.932	15005
917.044	14990
917.156	14975
917.268	14857
917.38	14937
917.491	14849
917.603	14849
917.715	14902
917.826	14883
917.938	14842
918.049	14689
918.161	14823
918.272	14979
918.384	14902
918.495	14792
918.606	14689
918.717	14606
918.828	14537
918.939	14560
919.05	14537
919.161	14495
919.272	14389
919.383	14415
919.494	14648
919.604	14765
919.715	14564
919.826	14514
919.936	14560
920.047	14659
920.157	14636
920.267	14769
920.378	14514
920.488	14511
920.598	14689
920.708	14872
920.818	14743
920.928	14568
921.038	14842
921.148	14792
921.258	14484
921.368	14526
921.477	14339
921.587	14240
921.697	14142
921.806	14385
921.916	14134
922.025	14016
922.134	14005
922.244	13925
922.353	13822
922.462	13868
922.571	13761
922.68	13666
922.789	13613
922.898	13601
923.007	13548
923.116	13613
923.224	13499
923.333	13514
923.442	13476
923.55	13460
923.659	13476
923.767	13499
923.876	13335
923.984	13373
924.092	13289
924.201	13350
924.309	13304
924.417	13308
924.525	13247
924.633	13255
924.741	14001
924.849	12977
924.956	13141
925.064	13038
925.172	12905
925.279	12943
925.387	13080
925.494	12928
925.602	13072
925.709	13061
925.816	12947
925.924	12913
926.031	13046
926.138	12890
926.245	12973
926.352	12821
926.459	12935
926.566	12970
926.673	12894
926.779	12772
926.886	12757
926.993	12650
927.099	12559
927.206	12486
927.312	12525
927.419	12521
927.525	12540
927.631	12566
927.737	12498
927.843	12399
927.95	12285
928.056	12346
928.162	12388
928.267	12471
928.373	13046
928.479	12464
928.585	12224
928.69	12338
928.796	12384
928.901	12262
929.007	12095
929.112	12220
929.218	12239
929.323	12201
929.428	12114
929.533	12175
929.638	12034
929.743	12049
929.848	12091
929.953	11958
930.058	11988
930.163	11745
930.267	11824
930.372	11901
930.477	11729
930.581	11992
930.685	11863
930.79	11680
930.894	11771
930.998	11589
931.103	11764
931.207	11429
931.311	11356
931.415	11277
931.519	11071
931.623	11067
