Data from test_V78500241_159.txt Node
Date: Fri Mar 25 15:42:54 CST 2022
User: usil
Spectrometer: V785-0024
Trigger mode: 0
Integration Time (sec): 4.000000E-1
Scans to average: 1
Nonlinearity correction enabled: false
Boxcar width: 0
Storing dark spectrum: false
XAxis mode: Wavelengths
Number of Pixels in Spectrum: 1024
>>>>>Begin Spectral Data<<<<<
801.071	29448
801.214	29258
801.356	28984
801.499	28946
801.641	28812
801.783	28927
801.926	28904
802.068	28850
802.211	28809
802.353	28717
802.496	28538
802.638	28394
802.78	28478
802.923	28470
803.065	28314
803.208	28344
803.35	28493
803.492	28596
803.635	28508
803.777	28421
803.919	28641
804.061	28843
804.204	28542
804.346	28538
804.488	28516
804.63	28500
804.773	28424
804.915	28523
805.057	28569
805.199	28512
805.341	28417
805.483	28557
805.626	28508
805.768	28459
805.91	28694
806.052	28687
806.194	28592
806.336	28850
806.478	28615
806.62	28656
806.762	28782
806.904	28869
807.046	29162
807.188	29121
807.33	29037
807.472	28995
807.614	28946
807.756	28915
807.898	28790
808.04	28782
808.182	28869
808.324	28896
808.465	28812
808.607	28984
808.749	29212
808.891	29299
809.033	29315
809.174	29322
809.316	29102
809.458	29227
809.6	29086
809.741	29227
809.883	29250
810.025	29402
810.166	29398
810.308	29535
810.45	29292
810.591	29288
810.733	29280
810.875	29003
811.016	29071
811.158	29044
811.299	29178
811.441	29242
811.582	29322
811.724	29185
811.865	29041
812.007	29143
812.148	29064
812.29	29102
812.431	29292
812.573	29360
812.714	29406
812.855	29668
812.997	29691
813.138	29840
813.279	29657
813.421	29646
813.562	29562
813.703	29433
813.845	29307
813.986	29014
814.127	28866
814.268	28877
814.41	28717
814.551	28862
814.692	28839
814.833	28782
814.974	28702
815.115	28725
815.256	28489
815.397	28580
815.539	28592
815.68	28470
815.821	28455
815.962	28497
816.103	28360
816.244	28314
816.385	28329
816.526	28337
816.666	28086
816.807	27960
816.948	27945
817.089	28044
817.23	27842
817.371	27835
817.512	27888
817.653	27724
817.793	27854
817.934	27793
818.075	27907
818.216	27857
818.356	27759
818.497	27610
818.638	27488
818.778	27717
818.919	27500
819.06	27633
819.2	27793
819.341	27861
819.481	27728
819.622	28040
819.762	28143
819.903	28090
820.043	27998
820.184	27914
820.324	27895
820.465	28067
820.605	27827
820.746	27842
820.886	27625
821.026	27842
821.167	27736
821.307	27926
821.447	27701
821.588	27747
821.728	27526
821.868	27367
822.008	27233
822.149	27256
822.289	27260
822.429	26925
822.569	26952
822.709	26868
822.849	26701
822.99	26590
823.13	26716
823.27	26598
823.41	26473
823.55	26442
823.69	26545
823.83	26480
823.97	26450
824.11	26267
824.25	26294
824.389	26244
824.529	26431
824.669	26290
824.809	26366
824.949	26362
825.089	26396
825.228	26290
825.368	26199
825.508	26084
825.648	26206
825.787	26221
825.927	26199
826.067	26020
826.206	26020
826.346	26058
826.485	26115
826.625	26027
826.765	26111
826.904	26058
827.044	25719
827.183	25811
827.323	25723
827.462	25841
827.601	25693
827.741	25826
827.88	25605
828.02	25670
828.159	25677
828.298	25689
828.437	25757
828.577	25761
828.716	25769
828.855	25670
828.994	25369
829.134	25392
829.273	25479
829.412	25304
829.551	25392
829.69	25297
829.829	25502
829.968	25445
830.107	25438
830.246	25308
830.385	25434
830.524	25198
830.663	25190
830.802	25088
830.941	24958
831.08	24764
831.219	25190
831.357	24924
831.496	25179
831.635	24882
831.774	24802
831.913	24798
832.051	24650
832.19	24646
832.329	24627
832.467	24665
832.606	24426
832.744	24585
832.883	24608
833.022	24639
833.16	24418
833.299	24639
833.437	24608
833.576	24498
833.714	24639
833.852	24757
833.991	24608
834.129	24722
834.267	24597
834.406	24623
834.544	24589
834.682	24582
834.821	24509
834.959	24722
835.097	24517
835.235	24623
835.373	24559
835.511	24566
835.65	24437
835.788	24388
835.926	24304
836.064	24224
836.202	24254
836.34	24285
836.478	24475
836.615	24380
836.753	24346
836.891	24426
837.029	24407
837.167	24270
837.305	24171
837.443	24220
837.58	24235
837.718	24239
837.856	24247
837.993	24087
838.131	24205
838.269	24026
838.406	24095
838.544	24060
838.681	23843
838.819	23942
838.956	23684
839.094	23630
839.231	23623
839.369	23798
839.506	23988
839.643	23893
839.781	23589
839.918	23619
840.055	23672
840.193	23581
840.33	23520
840.467	23589
840.604	23570
840.742	23859
840.879	23383
841.016	23543
841.153	23459
841.29	23577
841.427	23509
841.564	23551
841.701	23505
841.838	23455
841.975	23277
842.112	23326
842.249	23345
842.385	23322
842.522	23486
842.659	23345
842.796	23155
842.933	23269
843.069	23086
843.206	23178
843.343	23296
843.479	23288
843.616	23261
843.752	23083
843.889	22934
844.025	23162
844.162	22999
844.298	23056
844.435	22946
844.571	22904
844.708	22942
844.844	23098
844.98	23155
845.117	22976
845.253	22911
845.389	22790
845.525	22889
845.661	22713
845.798	22778
845.934	22668
846.07	22626
846.206	22660
846.342	22740
846.478	22618
846.614	22375
846.75	22314
846.886	22405
847.022	22474
847.158	22504
847.294	22299
847.429	22375
847.565	22306
847.701	22622
847.837	22162
847.972	22040
848.108	22185
848.244	22105
848.379	21972
848.515	21888
848.65	21956
848.786	21998
848.921	22120
849.057	22032
849.192	21956
849.328	21964
849.463	21880
849.598	21960
849.734	21831
849.869	21747
850.004	21526
850.14	21656
850.275	21694
850.41	21572
850.545	21507
850.68	21675
850.815	21587
850.95	21606
851.085	21835
851.22	21797
851.355	21629
851.49	21542
851.625	21622
851.76	21504
851.895	21500
852.03	21477
852.165	21633
852.299	21633
852.434	21713
852.569	21603
852.703	21610
852.838	21701
852.973	21755
853.107	21793
853.242	21545
853.376	21443
853.511	21230
853.645	21389
853.78	21504
853.914	21591
854.048	21405
854.183	21420
854.317	21382
854.451	21530
854.585	21447
854.72	21447
854.854	21466
854.988	21378
855.122	21523
855.256	21279
855.39	21431
855.524	21466
855.658	21420
855.792	21389
855.926	21450
856.06	21416
856.194	21473
856.327	21477
856.461	21367
856.595	21408
856.729	21397
856.862	21428
856.996	21488
857.13	21534
857.263	21473
857.397	21583
857.53	21466
857.664	21458
857.797	21408
857.931	21469
858.064	21321
858.197	21477
858.331	21393
858.464	21351
858.597	21374
858.731	21283
858.864	21325
858.997	21374
859.13	21428
859.263	21412
859.396	21469
859.529	21382
859.662	21317
859.795	21302
859.928	21302
860.061	21485
860.194	21424
860.327	21393
860.46	21363
860.592	21363
860.725	21564
860.858	21405
860.99	21405
861.123	21329
861.256	21298
861.388	21283
861.521	22048
861.653	21241
861.786	21199
861.918	21252
862.05	21203
862.183	21306
862.315	21321
862.447	21519
862.58	21370
862.712	21150
862.844	21116
862.976	21298
863.108	21169
863.24	21488
863.372	21001
863.504	21081
863.636	21055
863.768	21161
863.9	21001
864.032	20994
864.164	20963
864.296	20929
864.428	21096
864.559	21123
864.691	21135
864.823	20979
864.954	21055
865.086	21009
865.217	21169
865.349	20918
865.48	20864
865.612	20891
865.743	20979
865.875	20918
866.006	20902
866.137	20899
866.269	20906
866.4	20925
866.531	21036
866.662	20765
866.793	20857
866.924	20979
867.055	20925
867.186	20986
867.317	20842
867.448	20724
867.579	20845
867.71	20876
867.841	20842
867.972	20857
868.103	20773
868.233	20891
868.364	20804
868.495	21032
868.625	21039
868.756	21146
868.886	21024
869.017	21096
869.147	21287
869.278	21218
869.408	21214
869.539	21089
869.669	21127
869.799	21024
869.929	21138
870.06	21207
870.19	21488
870.32	21317
870.45	21431
870.58	21580
870.71	21690
870.84	21458
870.97	21580
871.1	21397
871.23	21679
871.36	21838
871.489	21587
871.619	21599
871.749	21656
871.879	21732
872.008	21679
872.138	21690
872.267	21698
872.397	21625
872.526	21504
872.656	21549
872.785	21542
872.915	21629
873.044	21778
873.173	21698
873.303	21675
873.432	21861
873.561	21838
873.69	21724
873.819	21755
873.948	21812
874.077	21728
874.206	21686
874.335	21778
874.464	21797
874.593	21945
874.722	21903
874.851	22021
874.979	22021
875.108	22109
875.237	21930
875.365	21827
875.494	22002
875.623	22048
875.751	21926
875.88	21880
876.008	22204
876.136	22131
876.265	22363
876.393	22512
876.521	22344
876.65	22440
876.778	22451
876.906	22272
877.034	22219
877.162	22284
877.29	22303
877.418	22352
877.546	22253
877.674	22306
877.802	22268
877.93	22360
878.058	22185
878.185	22188
878.313	22291
878.441	22314
878.568	22093
878.696	22162
878.824	22341
878.951	22394
879.079	22561
879.206	22557
879.333	22462
879.461	22314
879.588	22405
879.715	22500
879.842	22580
879.97	22432
880.097	22230
880.224	22169
880.351	22048
880.478	22120
880.605	22131
880.732	22036
880.859	22360
880.986	22078
881.112	22204
881.239	21998
881.366	21827
881.493	21812
881.619	21709
881.746	21652
881.872	21606
881.999	21679
882.125	21717
882.252	21705
882.378	21603
882.505	21869
882.631	21599
882.757	21545
882.883	21530
883.01	21462
883.136	21431
883.262	21344
883.388	21325
883.514	21408
883.64	21473
883.766	21306
883.892	21233
884.018	21260
884.143	21367
884.269	21504
884.395	21074
884.52	21070
884.646	21199
884.772	21055
884.897	21005
885.023	21104
885.148	21218
885.274	21306
885.399	21070
885.524	21005
885.65	21169
885.775	21100
885.9	21009
886.025	21051
886.15	21165
886.275	21116
886.4	20952
886.525	21047
886.65	20902
886.775	21070
886.9	21214
887.025	21218
887.149	21062
887.274	20849
887.399	20838
887.523	20785
887.648	20773
887.773	20796
887.897	20838
888.021	20864
888.146	20754
888.27	20880
888.395	20815
888.519	20750
888.643	20826
888.767	20861
888.891	20629
889.015	20617
889.139	20632
889.263	20541
889.387	20674
889.511	20762
889.635	20655
889.759	20617
889.883	20598
890.006	20522
890.13	20674
890.254	20476
890.377	20484
890.501	20412
890.624	20324
890.748	20495
890.871	20221
890.995	20187
891.118	19959
891.241	20149
891.364	20168
891.488	20305
891.611	20062
891.734	20172
891.857	20305
891.98	20115
892.103	20199
892.226	20130
892.349	20081
892.471	20069
892.594	20111
892.717	20069
892.839	20031
892.962	20096
893.085	20065
893.207	20103
893.33	20020
893.452	20050
893.575	20172
893.697	19974
893.819	20351
893.941	20374
894.064	20183
894.186	19978
894.308	20035
894.43	20046
894.552	20347
894.674	20062
894.796	19963
894.918	20069
895.04	20008
895.161	20050
895.283	20191
895.405	20020
895.526	20081
895.648	20046
895.769	20107
895.891	20081
896.012	20172
896.134	20130
896.255	20073
896.376	20012
896.498	20103
896.619	20183
896.74	20142
896.861	20111
896.982	20423
897.103	20640
897.224	20495
897.345	20290
897.466	20278
897.587	20358
897.708	20484
897.828	20431
897.949	20214
898.07	20176
898.19	20320
898.311	20431
898.431	20313
898.552	20275
898.672	20328
898.792	20377
898.913	20339
899.033	20096
899.153	20088
899.273	20012
899.393	20016
899.513	20069
899.633	19944
899.753	20012
899.873	19974
899.993	19997
900.113	19833
900.232	20008
900.352	19875
900.472	19833
900.591	19776
900.711	19826
900.83	19734
900.95	19830
901.069	19936
901.189	19708
901.308	19449
901.427	19358
901.546	19373
901.665	19324
901.784	19464
901.904	19240
902.023	19133
902.141	18913
902.26	18913
902.379	18916
902.498	18840
902.617	18844
902.735	18859
902.854	18817
902.973	18738
903.091	18582
903.21	18551
903.328	18471
903.446	18460
903.565	18452
903.683	18403
903.801	18152
903.919	18273
904.038	18289
904.156	18174
904.274	18167
904.392	18083
904.51	18034
904.627	17977
904.745	18060
904.863	18136
904.981	17863
905.098	17672
905.216	17722
905.334	17691
905.451	17718
905.569	17733
905.686	17790
905.803	17786
905.921	17535
906.038	17627
906.155	17615
906.272	17471
906.389	17436
906.506	17330
906.623	17299
906.74	17227
906.857	17136
906.974	17178
907.091	17307
907.208	17402
907.324	17387
907.441	17212
907.557	17052
907.674	17041
907.79	16869
907.907	16927
908.023	17056
908.139	16984
908.256	16828
908.372	16896
908.488	16885
908.604	16812
908.72	16641
908.836	16664
908.952	16679
909.068	16698
909.184	16713
909.3	16668
909.415	16611
909.531	16588
909.647	16421
909.762	16466
909.878	16428
909.993	16379
910.108	16348
910.224	16253
910.339	16352
910.454	16158
910.57	16173
910.685	16196
910.8	16508
910.915	16390
911.03	16101
911.145	16051
911.259	15937
911.374	15915
911.489	15949
911.604	15854
911.718	15709
911.833	15717
911.947	15580
912.062	15515
912.176	15823
912.291	15698
912.405	15629
912.519	15766
912.633	15766
912.748	15694
912.862	15610
912.976	15454
913.09	15336
913.204	15397
913.318	15534
913.431	15504
913.545	15504
913.659	15610
913.772	15439
913.886	15306
914	15249
914.113	15359
914.226	15492
914.34	15367
914.453	15211
914.566	15279
914.68	15218
914.793	15127
914.906	14986
915.019	14967
915.132	14868
915.245	15043
915.358	14819
915.47	14956
915.583	14933
915.696	14891
915.809	15009
915.921	15005
916.034	14857
916.146	14758
916.259	14811
916.371	14823
916.483	14838
916.595	14705
916.708	14796
916.82	14644
916.932	14727
917.044	14632
917.156	14705
917.268	14537
917.38	14579
917.491	14446
917.603	14457
917.715	14606
917.826	14670
917.938	14446
918.049	14374
918.161	14530
918.272	14602
918.384	14636
918.495	14530
918.606	14298
918.717	14225
918.828	14290
918.939	14305
919.05	14240
919.161	14294
919.272	14138
919.383	14164
919.494	14408
919.604	14431
919.715	14252
919.826	14221
919.936	14176
920.047	14271
920.157	14248
920.267	14507
920.378	14183
920.488	14142
920.598	14332
920.708	14541
920.818	14320
920.928	14480
921.038	14537
921.148	14461
921.258	14176
921.368	14126
921.477	14024
921.587	13970
921.697	13746
921.806	13982
921.916	13883
922.025	13727
922.134	13578
922.244	13537
922.353	13662
922.462	13430
922.571	13548
922.68	13236
922.789	13225
922.898	13263
923.007	13263
923.116	13282
923.224	13244
923.333	13141
923.442	13069
923.55	13065
923.659	13095
923.767	13183
923.876	13046
923.984	13133
924.092	12916
924.201	12966
924.309	13012
924.417	13012
924.525	12985
924.633	12913
924.741	13712
924.849	12757
924.956	12783
925.064	12662
925.172	12551
925.279	12650
925.387	12730
925.494	12700
925.602	12749
925.709	12772
925.816	12521
925.924	12673
926.031	12696
926.138	12578
926.245	12540
926.352	12612
926.459	12616
926.566	12711
926.673	12639
926.779	12448
926.886	12433
926.993	12277
927.099	12266
927.206	12216
927.312	12167
927.419	12239
927.525	12175
927.631	12232
927.737	12144
927.843	12110
927.95	12015
928.056	12083
928.162	12133
928.267	12148
928.373	12646
928.479	12125
928.585	11961
928.69	12057
928.796	12110
928.901	11942
929.007	11901
929.112	11965
929.218	11931
929.323	11798
929.428	11794
929.533	11882
929.638	11688
929.743	11817
929.848	11748
929.953	11764
930.058	11646
930.163	11474
930.267	11512
930.372	11596
930.477	11486
930.581	11634
930.685	11505
930.79	11341
930.894	11410
930.998	11395
931.103	11433
931.207	11083
931.311	11102
931.415	10938
931.519	10729
931.623	10736
