Data from test_V78500241_3041.txt Node
Date: Fri Mar 25 16:02:52 CST 2022
User: usil
Spectrometer: V785-0024
Trigger mode: 0
Integration Time (sec): 4.000000E-1
Scans to average: 1
Nonlinearity correction enabled: false
Boxcar width: 0
Storing dark spectrum: false
XAxis mode: Wavelengths
Number of Pixels in Spectrum: 1024
>>>>>Begin Spectral Data<<<<<
801.071	28565
801.214	28504
801.356	28428
801.499	28261
801.641	28105
801.783	28226
801.926	28013
802.068	28261
802.211	28185
802.353	28002
802.496	27991
802.638	27831
802.78	27823
802.923	27770
803.065	27656
803.208	27983
803.35	27880
803.492	28063
803.635	28070
803.777	28090
803.919	28204
804.061	28478
804.204	28093
804.346	27968
804.488	28021
804.63	27979
804.773	28013
804.915	28143
805.057	28314
805.199	28059
805.341	28230
805.483	28242
805.626	28185
805.768	28128
805.91	28242
806.052	28306
806.194	28078
806.336	28356
806.478	28200
806.62	28367
806.762	28485
806.904	28523
807.046	28820
807.188	28653
807.33	28687
807.472	28698
807.614	28736
807.756	28630
807.898	28573
808.04	28447
808.182	28455
808.324	28725
808.465	28668
808.607	28755
808.749	28824
808.891	28927
809.033	29079
809.174	28987
809.316	28980
809.458	28721
809.6	28869
809.741	28908
809.883	29067
810.025	29326
810.166	29258
810.308	29220
810.45	29181
810.591	29086
810.733	29048
810.875	29018
811.016	28854
811.158	28896
811.299	28942
811.441	29159
811.582	29117
811.724	28961
811.865	29037
812.007	28896
812.148	28965
812.29	29006
812.431	29041
812.573	29189
812.714	29501
812.855	29448
812.997	29509
813.138	29653
813.279	29551
813.421	29505
813.562	29509
813.703	29216
813.845	29208
813.986	28786
814.127	28778
814.268	28759
814.41	28687
814.551	28679
814.692	28793
814.833	28596
814.974	28615
815.115	28733
815.256	28443
815.397	28607
815.539	28542
815.68	28519
815.821	28405
815.962	28497
816.103	28561
816.244	28394
816.385	28367
816.526	28154
816.666	28013
816.807	27949
816.948	28040
817.089	28112
817.23	27914
817.371	28010
817.512	28078
817.653	27751
817.793	27869
817.934	27831
818.075	27979
818.216	28078
818.356	27838
818.497	27781
818.638	27637
818.778	27724
818.919	27755
819.06	27880
819.2	27888
819.341	28036
819.481	27907
819.622	28116
819.762	28379
819.903	28223
820.043	28105
820.184	28067
820.324	28017
820.465	28128
820.605	28105
820.746	27949
820.886	27960
821.026	28124
821.167	28032
821.307	28059
821.447	27907
821.588	27717
821.728	27789
821.868	27671
822.008	27439
822.149	27427
822.289	27427
822.429	27131
822.569	27036
822.709	27233
822.849	27089
822.99	26979
823.13	26876
823.27	26937
823.41	26750
823.55	26621
823.69	26826
823.83	26746
823.97	26735
824.11	26590
824.25	26518
824.389	26651
824.529	26568
824.669	26518
824.809	26693
824.949	26621
825.089	26651
825.228	26735
825.368	26298
825.508	26488
825.648	26511
825.787	26533
825.927	26568
826.067	26446
826.206	26476
826.346	26434
826.485	26594
826.625	26457
826.765	26625
826.904	26518
827.044	26256
827.183	26157
827.323	26320
827.462	26259
827.601	26282
827.741	26229
827.88	26229
828.02	26187
828.159	26145
828.298	26320
828.437	26161
828.577	26005
828.716	26332
828.855	25997
828.994	25871
829.134	25890
829.273	25947
829.412	25849
829.551	25753
829.69	25944
829.829	26016
829.968	25959
830.107	25966
830.246	25807
830.385	25795
830.524	25799
830.663	25791
830.802	25693
830.941	25533
831.08	25438
831.219	25670
831.357	25411
831.496	25651
831.635	25441
831.774	25373
831.913	25472
832.051	25369
832.19	25247
832.329	25331
832.467	25206
832.606	25141
832.744	25019
832.883	25183
833.022	25152
833.16	25312
833.299	25217
833.437	25103
833.576	25236
833.714	25171
833.852	25236
833.991	25236
834.129	25285
834.267	25324
834.406	25148
834.544	25171
834.682	25217
834.821	25228
834.959	25350
835.097	25137
835.235	25327
835.373	25316
835.511	25320
835.65	25118
835.788	25027
835.926	24935
836.064	24913
836.202	24890
836.34	25015
836.478	25118
836.615	24901
836.753	24913
836.891	25152
837.029	25148
837.167	24954
837.305	24981
837.443	24802
837.58	24787
837.718	24913
837.856	24810
837.993	24992
838.131	24650
838.269	24738
838.406	24871
838.544	24665
838.681	24540
838.819	24525
838.956	24365
839.094	24483
839.231	24475
839.369	24505
839.506	24753
839.643	24631
839.781	24399
839.918	24292
840.055	24380
840.193	24342
840.33	24152
840.467	24289
840.604	24319
840.742	24566
840.879	24041
841.016	24174
841.153	24125
841.29	24357
841.427	24159
841.564	24285
841.701	24121
841.838	24213
841.975	23999
842.112	24266
842.249	24102
842.385	24018
842.522	24174
842.659	24034
842.796	24098
842.933	24038
843.069	23996
843.206	24045
843.343	24076
843.479	23893
843.616	24095
843.752	23904
843.889	23748
844.025	23878
844.162	23714
844.298	23889
844.435	23771
844.571	23859
844.708	23760
844.844	23969
844.98	23882
845.117	23790
845.253	23794
845.389	23653
845.525	23573
845.661	23790
845.798	23410
845.934	23528
846.07	23478
846.206	23691
846.342	23707
846.478	23440
846.614	23269
846.75	23296
846.886	23189
847.022	23277
847.158	23105
847.294	23170
847.429	23311
847.565	23212
847.701	23349
847.837	23018
847.972	22927
848.108	23025
848.244	22957
848.379	22987
848.515	22801
848.65	22820
848.786	22797
848.921	22942
849.057	22873
849.192	22889
849.328	22828
849.463	22866
849.598	22759
849.734	22656
849.869	22660
850.004	22531
850.14	22603
850.275	22698
850.41	22462
850.545	22618
850.68	22588
850.815	22618
850.95	22615
851.085	22774
851.22	22672
851.355	22599
851.49	22706
851.625	22474
851.76	22596
851.895	22417
852.03	22398
852.165	22470
852.299	22664
852.434	22626
852.569	22653
852.703	22611
852.838	22725
852.973	22763
853.107	22645
853.242	22546
853.376	22459
853.511	22162
853.645	22348
853.78	22432
853.914	22390
854.048	22367
854.183	22432
854.317	22443
854.451	22550
854.585	22462
854.72	22352
854.854	22417
854.988	22371
855.122	22489
855.256	22371
855.39	22344
855.524	22379
855.658	22375
855.792	22485
855.926	22500
856.06	22466
856.194	22512
856.327	22238
856.461	22443
856.595	22386
856.729	22379
856.862	22557
856.996	22459
857.13	22527
857.263	22474
857.397	22561
857.53	22440
857.664	22413
857.797	22436
857.931	22512
858.064	22459
858.197	22542
858.331	22398
858.464	22253
858.597	22375
858.731	22287
858.864	22348
858.997	22390
859.13	22508
859.263	22462
859.396	22512
859.529	22394
859.662	22451
859.795	22303
859.928	22440
860.061	22508
860.194	22653
860.327	22512
860.46	22538
860.592	22630
860.725	22557
860.858	22557
860.99	22390
861.123	22325
861.256	22402
861.388	22272
861.521	23162
861.653	22226
861.786	22230
861.918	22215
862.05	22280
862.183	22329
862.315	22390
862.447	22329
862.58	22299
862.712	22234
862.844	22116
862.976	22200
863.108	22192
863.24	22554
863.372	22051
863.504	22135
863.636	22158
863.768	22154
863.9	22177
864.032	22101
864.164	22234
864.296	22166
864.428	22291
864.559	22223
864.691	22188
864.823	22223
864.954	22112
865.086	22017
865.217	22105
865.349	21930
865.48	21994
865.612	22025
865.743	22230
865.875	21956
866.006	21949
866.137	22116
866.269	22025
866.4	21850
866.531	21983
866.662	21876
866.793	21991
866.924	21991
867.055	22010
867.186	21972
867.317	21983
867.448	21850
867.579	21835
867.71	21895
867.841	21838
867.972	21953
868.103	21892
868.233	21994
868.364	22017
868.495	22067
868.625	22120
868.756	22344
868.886	22211
869.017	22261
869.147	22257
869.278	22299
869.408	22325
869.539	22253
869.669	22322
869.799	22310
869.929	22207
870.06	22367
870.19	22527
870.32	22489
870.45	22523
870.58	22645
870.71	22691
870.84	22672
870.97	22596
871.1	22641
871.23	22782
871.36	22812
871.489	22622
871.619	22763
871.749	22706
871.879	22801
872.008	22900
872.138	22824
872.267	22702
872.397	22771
872.526	22580
872.656	22519
872.785	22554
872.915	22904
873.044	22858
873.173	22869
873.303	22873
873.432	22972
873.561	22965
873.69	22816
873.819	22869
873.948	22896
874.077	22896
874.206	22862
874.335	22858
874.464	22953
874.593	23109
874.722	23124
874.851	22984
874.979	23052
875.108	23090
875.237	22957
875.365	22881
875.494	22999
875.623	23083
875.751	22908
875.88	22995
876.008	23140
876.136	23212
876.265	23433
876.393	23573
876.521	23417
876.65	23474
876.778	23402
876.906	23326
877.034	23353
877.162	23505
877.29	23330
877.418	23512
877.546	23474
877.674	23296
877.802	23459
877.93	23296
878.058	23322
878.185	23132
878.313	23315
878.441	23345
878.568	23083
878.696	23364
878.824	23402
878.951	23395
879.079	23615
879.206	23630
879.333	23638
879.461	23414
879.588	23490
879.715	23528
879.842	23668
879.97	23364
880.097	23006
880.224	23136
880.351	23121
880.478	23258
880.605	23159
880.732	23178
880.859	23410
880.986	23231
881.112	23258
881.239	23159
881.366	22896
881.493	22987
881.619	22911
881.746	22820
881.872	22869
881.999	22725
882.125	22725
882.252	22847
882.378	22797
882.505	22828
882.631	22603
882.757	22485
882.883	22447
883.01	22459
883.136	22542
883.262	22314
883.388	22367
883.514	22409
883.64	22512
883.766	22295
883.892	22158
884.018	22166
884.143	22276
884.269	22557
884.395	22196
884.52	22116
884.646	22154
884.772	21998
884.897	21991
885.023	22025
885.148	22200
885.274	22120
885.399	21994
885.524	22063
885.65	22101
885.775	22169
885.9	22055
886.025	22207
886.15	22124
886.275	21975
886.4	22002
886.525	22010
886.65	21983
886.775	22067
886.9	22067
887.025	22185
887.149	22131
887.274	21831
887.399	21842
887.523	21876
887.648	21781
887.773	21762
887.897	21979
888.021	21846
888.146	21789
888.27	22036
888.395	21930
888.519	21926
888.643	21975
888.767	21831
888.891	21816
889.015	21690
889.139	21679
889.263	21458
889.387	21720
889.511	21903
889.635	21690
889.759	21618
889.883	21675
890.006	21728
890.13	21641
890.254	21492
890.377	21523
890.501	21298
890.624	21294
890.748	21382
890.871	21378
890.995	21108
891.118	21081
891.241	21154
891.364	21157
891.488	21329
891.611	21214
891.734	21074
891.857	21340
891.98	21313
892.103	21131
892.226	21146
892.349	21146
892.471	21009
892.594	21146
892.717	21043
892.839	21100
892.962	21081
893.085	21093
893.207	21074
893.33	21020
893.452	20998
893.575	20986
893.697	20975
893.819	21157
893.941	21233
894.064	21180
894.186	21039
894.308	21047
894.43	21062
894.552	21203
894.674	21081
894.796	20948
894.918	21009
895.04	21070
895.161	21070
895.283	21081
895.405	21017
895.526	20956
895.648	20971
895.769	21081
895.891	21123
896.012	21085
896.134	21275
896.255	21119
896.376	20967
896.498	21062
896.619	21032
896.74	21100
896.861	21100
896.982	21462
897.103	21526
897.224	21344
897.345	21252
897.466	21291
897.587	21329
897.708	21176
897.828	21237
897.949	21184
898.07	21138
898.19	21135
898.311	21230
898.431	21039
898.552	21207
898.672	21268
898.792	21477
898.913	21142
899.033	21169
899.153	21074
899.273	20899
899.393	20982
899.513	21051
899.633	20918
899.753	20944
899.873	20906
899.993	21001
900.113	20823
900.232	20914
900.352	20872
900.472	20842
900.591	20712
900.711	20590
900.83	20651
900.95	20754
901.069	20792
901.189	20590
901.308	20347
901.427	20336
901.546	20370
901.665	20313
901.784	20298
901.904	20180
902.023	20058
902.141	19925
902.26	19830
902.379	19963
902.498	19826
902.617	19666
902.735	19849
902.854	19814
902.973	19734
903.091	19457
903.21	19445
903.328	19445
903.446	19358
903.565	19289
903.683	19312
903.801	19126
903.919	19274
904.038	19126
904.156	19076
904.274	19156
904.392	18875
904.51	18943
904.627	18966
904.745	19122
904.863	19118
904.981	18795
905.098	18772
905.216	18833
905.334	18654
905.451	18597
905.569	18669
905.686	18715
905.803	18692
905.921	18452
906.038	18574
906.155	18433
906.272	18486
906.389	18369
906.506	18114
906.623	18239
906.74	18167
906.857	18034
906.974	18072
907.091	18224
907.208	18346
907.324	18201
907.441	18068
907.557	17920
907.674	17920
907.79	17901
907.907	17939
908.023	17958
908.139	17935
908.256	17977
908.372	17836
908.488	17783
908.604	17596
908.72	17581
908.836	17668
908.952	17577
909.068	17676
909.184	17699
909.3	17657
909.415	17767
909.531	17649
909.647	17345
909.762	17280
909.878	17353
909.993	17421
910.108	17277
910.224	17235
910.339	17265
910.454	17208
910.57	17121
910.685	17136
910.8	17353
910.915	17277
911.03	17212
911.145	16938
911.259	16908
911.374	16968
911.489	16915
911.604	16839
911.718	16561
911.833	16683
911.947	16622
912.062	16500
912.176	16656
912.291	16611
912.405	16656
912.519	16767
912.633	16805
912.748	16687
912.862	16504
912.976	16561
913.09	16322
913.204	16356
913.318	16546
913.431	16569
913.545	16516
913.659	16584
913.772	16310
913.886	16356
914	16379
914.113	16329
914.226	16325
914.34	16299
914.453	16162
914.566	16344
914.68	16158
914.793	16109
914.906	15892
915.019	15831
915.132	15785
915.245	15831
915.358	15861
915.47	15895
915.583	15831
915.696	15808
915.809	15945
915.921	15949
916.034	15812
916.146	15751
916.259	15774
916.371	15720
916.483	15892
916.595	15663
916.708	15694
916.82	15690
916.932	15671
917.044	15549
917.156	15618
917.268	15485
917.38	15488
917.491	15492
917.603	15511
917.715	15576
917.826	15469
917.938	15469
918.049	15382
918.161	15344
918.272	15656
918.384	15492
918.495	15325
918.606	15264
918.717	15154
918.828	15287
918.939	15230
919.05	15116
919.161	15142
919.272	15005
919.383	15055
919.494	15214
919.604	15405
919.715	15260
919.826	15100
919.936	15100
920.047	15279
920.157	15226
920.267	15424
920.378	15024
920.488	15089
920.598	15367
920.708	15458
920.818	15310
920.928	15264
921.038	15401
921.148	15386
921.258	15116
921.368	14887
921.477	14895
921.587	14868
921.697	14750
921.806	14883
921.916	14667
922.025	14583
922.134	14457
922.244	14450
922.353	14530
922.462	14389
922.571	14355
922.68	14237
922.789	14214
922.898	14164
923.007	14134
923.116	14210
923.224	14214
923.333	14130
923.442	14046
923.55	14020
923.659	13940
923.767	13986
923.876	13963
923.984	13947
924.092	13795
924.201	13864
924.309	13852
924.417	13860
924.525	13833
924.633	13761
924.741	14499
924.849	13540
924.956	13708
925.064	13582
925.172	13552
925.279	13575
925.387	13533
925.494	13525
925.602	13753
925.709	13575
925.816	13403
925.924	13476
926.031	13575
926.138	13422
926.245	13491
926.352	13308
926.459	13559
926.566	13559
926.673	13419
926.779	13255
926.886	13285
926.993	13084
927.099	13103
927.206	13015
927.312	13015
927.419	13080
927.525	13088
927.631	13129
927.737	12916
927.843	12935
927.95	12810
928.056	12924
928.162	12894
928.267	12909
928.373	13533
928.479	12996
928.585	12703
928.69	12852
928.796	12753
928.901	12749
929.007	12681
929.112	12825
929.218	12635
929.323	12665
929.428	12593
929.533	12688
929.638	12494
929.743	12627
929.848	12612
929.953	12578
930.058	12437
930.163	12273
930.267	12300
930.372	12502
930.477	12289
930.581	12441
930.685	12304
930.79	12140
930.894	12205
930.998	12220
931.103	12277
931.207	11904
931.311	11882
931.415	11798
931.519	11539
931.623	11535
