Data from test_V78500241_1363.txt Node
Date: Fri Mar 25 15:51:14 CST 2022
User: usil
Spectrometer: V785-0024
Trigger mode: 0
Integration Time (sec): 4.000000E-1
Scans to average: 1
Nonlinearity correction enabled: false
Boxcar width: 0
Storing dark spectrum: false
XAxis mode: Wavelengths
Number of Pixels in Spectrum: 1024
>>>>>Begin Spectral Data<<<<<
801.071	28162
801.214	28291
801.356	27918
801.499	27861
801.641	27625
801.783	27819
801.926	27637
802.068	27625
802.211	27641
802.353	27625
802.496	27492
802.638	27374
802.78	27439
802.923	27351
803.065	27233
803.208	27382
803.35	27401
803.492	27568
803.635	27622
803.777	27572
803.919	27633
804.061	27812
804.204	27568
804.346	27488
804.488	27435
804.63	27572
804.773	27454
804.915	27580
805.057	27720
805.199	27549
805.341	27679
805.483	27892
805.626	27736
805.768	27606
805.91	27698
806.052	27774
806.194	27728
806.336	27991
806.478	27903
806.62	27857
806.762	28002
806.904	27983
807.046	28249
807.188	28139
807.33	28291
807.472	28181
807.614	28090
807.756	28322
807.898	28006
808.04	28044
808.182	28082
808.324	28093
808.465	28101
808.607	28287
808.749	28489
808.891	28523
809.033	28607
809.174	28443
809.316	28466
809.458	28523
809.6	28398
809.741	28607
809.883	28588
810.025	28634
810.166	28637
810.308	28729
810.45	28717
810.591	28653
810.733	28417
810.875	28466
811.016	28367
811.158	28371
811.299	28577
811.441	28565
811.582	28630
811.724	28508
811.865	28474
812.007	28360
812.148	28421
812.29	28455
812.431	28649
812.573	28812
812.714	28809
812.855	28885
812.997	29041
813.138	29220
813.279	29022
813.421	28797
813.562	29018
813.703	28729
813.845	28664
813.986	28401
814.127	28257
814.268	28112
814.41	28318
814.551	28181
814.692	28169
814.833	28059
814.974	28109
815.115	28112
815.256	28029
815.397	28051
815.539	28067
815.68	27876
815.821	27827
815.962	27895
816.103	27930
816.244	27766
816.385	27785
816.526	27781
816.666	27488
816.807	27401
816.948	27496
817.089	27515
817.23	27591
817.371	27405
817.512	27519
817.653	27435
817.793	27401
817.934	27473
818.075	27530
818.216	27511
818.356	27344
818.497	27291
818.638	27051
818.778	27302
818.919	27184
819.06	27249
819.2	27382
819.341	27481
819.481	27412
819.622	27568
819.762	27686
819.903	27660
820.043	27576
820.184	27572
820.324	27557
820.465	27553
820.605	27648
820.746	27557
820.886	27389
821.026	27507
821.167	27523
821.307	27542
821.447	27424
821.588	27317
821.728	27298
821.868	27089
822.008	27009
822.149	26925
822.289	26902
822.429	26606
822.569	26606
822.709	26697
822.849	26495
822.99	26503
823.13	26324
823.27	26320
823.41	26187
823.55	26187
823.69	26309
823.83	26263
823.97	26168
824.11	26077
824.25	26073
824.389	26046
824.529	26339
824.669	25868
824.809	26199
824.949	26256
825.089	26233
825.228	26240
825.368	26016
825.508	25974
825.648	25940
825.787	25966
825.927	25932
826.067	25921
826.206	25894
826.346	25997
826.485	25959
826.625	25906
826.765	26142
826.904	26084
827.044	25750
827.183	25727
827.323	25715
827.462	25822
827.601	25651
827.741	25567
827.88	25795
828.02	25563
828.159	25693
828.298	25780
828.437	25757
828.577	25540
828.716	25670
828.855	25506
828.994	25407
829.134	25293
829.273	25419
829.412	25320
829.551	25316
829.69	25335
829.829	25400
829.968	25445
830.107	25445
830.246	25278
830.385	25320
830.524	25244
830.663	25133
830.802	25061
830.941	24928
831.08	24722
831.219	25076
831.357	25122
831.496	25118
831.635	24992
831.774	24726
831.913	24852
832.051	24768
832.19	24764
832.329	24734
832.467	24608
832.606	24555
832.744	24551
832.883	24623
833.022	24486
833.16	24513
833.299	24525
833.437	24719
833.576	24730
833.714	24738
833.852	24878
833.991	24673
834.129	24711
834.267	24776
834.406	24654
834.544	24776
834.682	24745
834.821	24585
834.959	24810
835.097	24639
835.235	24787
835.373	24608
835.511	24684
835.65	24513
835.788	24521
835.926	24391
836.064	24338
836.202	24376
836.34	24658
836.478	24612
836.615	24403
836.753	24502
836.891	24684
837.029	24509
837.167	24467
837.305	24350
837.443	24509
837.58	24292
837.718	24437
837.856	24338
837.993	24338
838.131	24228
838.269	24205
838.406	24289
838.544	24224
838.681	24045
838.819	24049
838.956	23779
839.094	23760
839.231	23878
839.369	24125
839.506	24262
839.643	24190
839.781	23756
839.918	23805
840.055	23832
840.193	23687
840.33	23794
840.467	23775
840.604	23737
840.742	24114
840.879	23634
841.016	23859
841.153	23535
841.29	23851
841.427	23710
841.564	23760
841.701	23581
841.838	23638
841.975	23642
842.112	23642
842.249	23531
842.385	23585
842.522	23611
842.659	23558
842.796	23558
842.933	23573
843.069	23356
843.206	23337
843.343	23505
843.479	23547
843.616	23573
843.752	23197
843.889	23181
844.025	23398
844.162	23261
844.298	23330
844.435	23067
844.571	23212
844.708	23296
844.844	23383
844.98	23303
845.117	23303
845.253	23181
845.389	23151
845.525	23136
845.661	23162
845.798	22938
845.934	23079
846.07	22908
846.206	23102
846.342	23121
846.478	22850
846.614	22881
846.75	22717
846.886	22607
847.022	22683
847.158	22755
847.294	22782
847.429	22752
847.565	22725
847.701	22797
847.837	22519
847.972	22413
848.108	22489
848.244	22424
848.379	22280
848.515	22287
848.65	22257
848.786	22249
848.921	22382
849.057	22299
849.192	22299
849.328	22314
849.463	22268
849.598	22219
849.734	22177
849.869	22135
850.004	22101
850.14	22093
850.275	22074
850.41	21953
850.545	22006
850.68	22097
850.815	21998
850.95	22006
851.085	22371
851.22	22070
851.355	22059
851.49	22124
851.625	21991
851.76	22036
851.895	21979
852.03	22059
852.165	22093
852.299	22048
852.434	22188
852.569	22090
852.703	22090
852.838	22177
852.973	22226
853.107	22120
853.242	21953
853.376	21865
853.511	21728
853.645	21804
853.78	22025
853.914	21876
854.048	21903
854.183	21797
854.317	21956
854.451	22032
854.585	21819
854.72	21759
854.854	21808
854.988	21755
855.122	21797
855.256	21743
855.39	21884
855.524	21915
855.658	21915
855.792	22025
855.926	21930
856.06	21945
856.194	21983
856.327	21876
856.461	21720
856.595	21823
856.729	21800
856.862	21926
856.996	21934
857.13	21964
857.263	21972
857.397	21865
857.53	21880
857.664	21899
857.797	22006
857.931	22055
858.064	21960
858.197	21979
858.331	21884
858.464	21816
858.597	21694
858.731	21930
858.864	21819
858.997	21781
859.13	21907
859.263	21835
859.396	21983
859.529	21770
859.662	21827
859.795	21739
859.928	21861
860.061	22086
860.194	22101
860.327	21964
860.46	21918
860.592	21930
860.725	21979
860.858	22070
860.99	21911
861.123	21835
861.256	21827
861.388	21869
861.521	22622
861.653	21762
861.786	21728
861.918	21739
862.05	21778
862.183	21827
862.315	21774
862.447	21895
862.58	21804
862.712	21667
862.844	21500
862.976	21625
863.108	21720
863.24	22067
863.372	21622
863.504	21576
863.636	21526
863.768	21656
863.9	21538
864.032	21496
864.164	21534
864.296	21622
864.428	21663
864.559	21610
864.691	21606
864.823	21606
864.954	21572
865.086	21561
865.217	21603
865.349	21332
865.48	21492
865.612	21492
865.743	21534
865.875	21526
866.006	21450
866.137	21507
866.269	21431
866.4	21359
866.531	21424
866.662	21325
866.793	21310
866.924	21466
867.055	21412
867.186	21496
867.317	21386
867.448	21367
867.579	21317
867.71	21378
867.841	21298
867.972	21469
868.103	21317
868.233	21473
868.364	21496
868.495	21553
868.625	21663
868.756	21728
868.886	21553
869.017	21682
869.147	21682
869.278	21793
869.408	21698
869.539	21660
869.669	21827
869.799	21694
869.929	21812
870.06	21739
870.19	21941
870.32	21857
870.45	21960
870.58	22078
870.71	22162
870.84	22169
870.97	21987
871.1	22002
871.23	22325
871.36	22295
871.489	22070
871.619	22158
871.749	22124
871.879	22242
872.008	22417
872.138	22356
872.267	22287
872.397	22158
872.526	22131
872.656	22055
872.785	22143
872.915	22356
873.044	22295
873.173	22192
873.303	22268
873.432	22303
873.561	22322
873.69	22337
873.819	22284
873.948	22360
874.077	22322
874.206	22215
874.335	22344
874.464	22249
874.593	22588
874.722	22474
874.851	22596
874.979	22523
875.108	22500
875.237	22375
875.365	22318
875.494	22436
875.623	22508
875.751	22462
875.88	22584
876.008	22512
876.136	22713
876.265	22923
876.393	22904
876.521	22923
876.65	22980
876.778	22915
876.906	22778
877.034	22828
877.162	22820
877.29	22744
877.418	22744
877.546	22866
877.674	22889
877.802	22911
877.93	22835
878.058	22782
878.185	22679
878.313	22858
878.441	22881
878.568	22588
878.696	22679
878.824	22771
878.951	22949
879.079	22968
879.206	23178
879.333	22949
879.461	22831
879.588	22896
879.715	23033
879.842	23193
879.97	22953
880.097	22744
880.224	22668
880.351	22607
880.478	22584
880.605	22740
880.732	22843
880.859	22733
880.986	22607
881.112	22668
881.239	22634
881.366	22394
881.493	22265
881.619	22181
881.746	22280
881.872	22284
881.999	22059
882.125	22207
882.252	22314
882.378	22055
882.505	22234
882.631	22150
882.757	21926
882.883	21987
883.01	21755
883.136	21774
883.262	21717
883.388	21789
883.514	21876
883.64	21915
883.766	21812
883.892	21709
884.018	21652
884.143	21778
884.269	21956
884.395	21610
884.52	21485
884.646	21542
884.772	21526
884.897	21386
885.023	21625
885.148	21637
885.274	21701
885.399	21656
885.524	21519
885.65	21557
885.775	21564
885.9	21454
886.025	21717
886.15	21622
886.275	21462
886.4	21545
886.525	21408
886.65	21469
886.775	21378
886.9	21641
887.025	21720
887.149	21496
887.274	21428
887.399	21264
887.523	21207
887.648	21233
887.773	21256
887.897	21382
888.021	21363
888.146	21329
888.27	21374
888.395	21378
888.519	21287
888.643	21447
888.767	21313
888.891	21180
889.015	21081
889.139	21188
889.263	21058
889.387	21195
889.511	21252
889.635	21230
889.759	20918
889.883	21077
890.006	21066
890.13	21230
890.254	21017
890.377	21028
890.501	20853
890.624	20788
890.748	20883
890.871	20758
890.995	20629
891.118	20632
891.241	20640
891.364	20746
891.488	20720
891.611	20598
891.734	20632
891.857	20792
891.98	20720
892.103	20815
892.226	20705
892.349	20507
892.471	20419
892.594	20590
892.717	20590
892.839	20602
892.962	20549
893.085	20606
893.207	20412
893.33	20469
893.452	20400
893.575	20590
893.697	20541
893.819	20613
893.941	20674
894.064	20667
894.186	20590
894.308	20377
894.43	20716
894.552	20606
894.674	20659
894.796	20404
894.918	20389
895.04	20594
895.161	20571
895.283	20568
895.405	20526
895.526	20514
895.648	20514
895.769	20670
895.891	20526
896.012	20697
896.134	20663
896.255	20556
896.376	20598
896.498	20625
896.619	20632
896.74	20530
896.861	20587
896.982	20929
897.103	21108
897.224	20842
897.345	20804
897.466	20769
897.587	20864
897.708	20785
897.828	20804
897.949	20674
898.07	20663
898.19	20785
898.311	20701
898.431	20712
898.552	20838
898.672	20712
898.792	20796
898.913	20724
899.033	20701
899.153	20617
899.273	20454
899.393	20480
899.513	20556
899.633	20560
899.753	20545
899.873	20484
899.993	20438
900.113	20503
900.232	20427
900.352	20450
900.472	20290
900.591	20259
900.711	20301
900.83	20324
900.95	20332
901.069	20336
901.189	20191
901.308	19955
901.427	19936
901.546	19875
901.665	19906
901.784	19890
901.904	19757
902.023	19765
902.141	19457
902.26	19415
902.379	19457
902.498	19384
902.617	19327
902.735	19350
902.854	19335
902.973	19225
903.091	19050
903.21	18993
903.328	19031
903.446	18894
903.565	18837
903.683	18871
903.801	18684
903.919	18688
904.038	18700
904.156	18703
904.274	18722
904.392	18620
904.51	18616
904.627	18635
904.745	18620
904.863	18604
904.981	18464
905.098	18163
905.216	18441
905.334	18357
905.451	18384
905.569	18201
905.686	18338
905.803	18224
905.921	18038
906.038	18098
906.155	18053
906.272	17889
906.389	17969
906.506	17851
906.623	17737
906.74	17760
906.857	17668
906.974	17775
907.091	17939
907.208	17882
907.324	17798
907.441	17680
907.557	17535
907.674	17554
907.79	17478
907.907	17391
908.023	17395
908.139	17467
908.256	17429
908.372	17414
908.488	17303
908.604	17265
908.72	17189
908.836	17299
908.952	17178
909.068	17208
909.184	17261
909.3	17204
909.415	17292
909.531	17204
909.647	16942
909.762	16957
909.878	16889
909.993	16904
910.108	16896
910.224	16904
910.339	16968
910.454	16820
910.57	16748
910.685	16634
910.8	16915
910.915	16900
911.03	16809
911.145	16584
911.259	16459
911.374	16649
911.489	16367
911.604	16432
911.718	16291
911.833	16226
911.947	16234
912.062	15972
912.176	16246
912.291	16310
912.405	16249
912.519	16417
912.633	16428
912.748	16215
912.862	16181
912.976	16051
913.09	15987
913.204	16105
913.318	16097
913.431	16181
913.545	16185
913.659	16192
913.772	16029
913.886	15960
914	15797
914.113	15876
914.226	16010
914.34	15869
914.453	15793
914.566	15892
914.68	15770
914.793	15732
914.906	15496
915.019	15393
915.132	15378
915.245	15515
915.358	15393
915.47	15428
915.583	15443
915.696	15485
915.809	15549
915.921	15622
916.034	15351
916.146	15207
916.259	15310
916.371	15428
916.483	15348
916.595	15382
916.708	15287
916.82	15298
916.932	15218
917.044	15245
917.156	15214
917.268	15127
917.38	15138
917.491	15005
917.603	15195
917.715	15131
917.826	15211
917.938	15074
918.049	14979
918.161	15017
918.272	15085
918.384	15085
918.495	15150
918.606	14944
918.717	14800
918.828	14777
918.939	14921
919.05	14773
919.161	14857
919.272	14640
919.383	14693
919.494	14853
919.604	15039
919.715	14849
919.826	14762
919.936	14724
920.047	14906
920.157	14933
920.267	14929
920.378	14823
920.488	14781
920.598	14891
920.708	15180
920.818	14895
920.928	14842
921.038	15089
921.148	15112
921.258	14708
921.368	14693
921.477	14560
921.587	14568
921.697	14446
921.806	14564
921.916	14358
922.025	14332
922.134	14225
922.244	14142
922.353	14244
922.462	14107
922.571	14062
922.68	13814
922.789	13879
922.898	13818
923.007	13761
923.116	13845
923.224	13799
923.333	13826
923.442	13708
923.55	13655
923.659	13765
923.767	13636
923.876	13586
923.984	13601
924.092	13563
924.201	13643
924.309	13582
924.417	13521
924.525	13464
924.633	13537
924.741	14339
924.849	13343
924.956	13339
925.064	13202
925.172	13266
925.279	13156
925.387	13297
925.494	13190
925.602	13282
925.709	13236
925.816	13114
925.924	13278
926.031	13255
926.138	13160
926.245	13206
926.352	13084
926.459	13266
926.566	13232
926.673	13095
926.779	13000
926.886	12951
926.993	12848
927.099	12798
927.206	12753
927.312	12692
927.419	12844
927.525	12829
927.631	12772
927.737	12844
927.843	12650
927.95	12475
928.056	12654
928.162	12616
928.267	12692
928.373	13251
928.479	12703
928.585	12410
928.69	12547
928.796	12589
928.901	12441
929.007	12258
929.112	12502
929.218	12330
929.323	12376
929.428	12357
929.533	12342
929.638	12258
929.743	12330
929.848	12388
929.953	12311
930.058	12194
930.163	11999
930.267	11992
930.372	12114
930.477	11920
930.581	12125
930.685	12076
930.79	11961
930.894	11916
930.998	11889
931.103	11992
931.207	11577
931.311	11577
931.415	11478
931.519	11235
931.623	11307
