Data from test_V78500241_1730.txt Node
Date: Fri Mar 25 15:53:47 CST 2022
User: usil
Spectrometer: V785-0024
Trigger mode: 0
Integration Time (sec): 4.000000E-1
Scans to average: 1
Nonlinearity correction enabled: false
Boxcar width: 0
Storing dark spectrum: false
XAxis mode: Wavelengths
Number of Pixels in Spectrum: 1024
>>>>>Begin Spectral Data<<<<<
801.071	28196
801.214	28074
801.356	28021
801.499	27854
801.641	27751
801.783	27770
801.926	27865
802.068	27751
802.211	27606
802.353	27667
802.496	27534
802.638	27416
802.78	27367
802.923	27363
803.065	27237
803.208	27348
803.35	27462
803.492	27614
803.635	27747
803.777	27382
803.919	27549
804.061	28029
804.204	27717
804.346	27595
804.488	27572
804.63	27667
804.773	27534
804.915	27793
805.057	27660
805.199	27549
805.341	27747
805.483	27949
805.626	27622
805.768	27698
805.91	27778
806.052	27793
806.194	27728
806.336	27949
806.478	27774
806.62	27774
806.762	27987
806.904	28116
807.046	28462
807.188	28185
807.33	28257
807.472	28128
807.614	28055
807.756	28196
807.898	28013
808.04	27991
808.182	28036
808.324	28059
808.465	28150
808.607	28325
808.749	28401
808.891	28493
809.033	28637
809.174	28440
809.316	28356
809.458	28325
809.6	28428
809.741	28519
809.883	28607
810.025	28725
810.166	28725
810.308	28771
810.45	28565
810.591	28607
810.733	28599
810.875	28436
811.016	28333
811.158	28360
811.299	28599
811.441	28474
811.582	28618
811.724	28577
811.865	28344
812.007	28303
812.148	28440
812.29	28405
812.431	28683
812.573	28702
812.714	28869
812.855	28843
812.997	29083
813.138	29185
813.279	29018
813.421	29037
813.562	28995
813.703	28649
813.845	28694
813.986	28523
814.127	28169
814.268	28032
814.41	28162
814.551	28131
814.692	28063
814.833	28013
814.974	28051
815.115	28017
815.256	27838
815.397	28055
815.539	27934
815.68	28006
815.821	27854
815.962	27937
816.103	27895
816.244	27690
816.385	27633
816.526	27736
816.666	27545
816.807	27291
816.948	27462
817.089	27488
817.23	27515
817.371	27485
817.512	27469
817.653	27294
817.793	27157
817.934	27310
818.075	27382
818.216	27348
818.356	27245
818.497	27222
818.638	27218
818.778	27260
818.919	27104
819.06	27146
819.2	27211
819.341	27466
819.481	27481
819.622	27496
819.762	27682
819.903	27622
820.043	27671
820.184	27511
820.324	27545
820.465	27667
820.605	27485
820.746	27488
820.886	27374
821.026	27439
821.167	27397
821.307	27538
821.447	27515
821.588	27374
821.728	27272
821.868	27058
822.008	26807
822.149	26971
822.289	26940
822.429	26697
822.569	26613
822.709	26492
822.849	26404
822.99	26404
823.13	26339
823.27	26347
823.41	26221
823.55	26100
823.69	26225
823.83	26343
823.97	26172
824.11	25955
824.25	26058
824.389	25966
824.529	26161
824.669	25974
824.809	25982
824.949	26058
825.089	25997
825.228	26107
825.368	26012
825.508	25883
825.648	25940
825.787	25906
825.927	25951
826.067	25833
826.206	25894
826.346	25940
826.485	26024
826.625	25864
826.765	25928
826.904	25868
827.044	25666
827.183	25521
827.323	25571
827.462	25731
827.601	25556
827.741	25556
827.88	25540
828.02	25457
828.159	25552
828.298	25677
828.437	25685
828.577	25533
828.716	25658
828.855	25502
828.994	25362
829.134	25324
829.273	25236
829.412	25327
829.551	25114
829.69	25285
829.829	25369
829.968	25297
830.107	25449
830.246	25403
830.385	25278
830.524	25179
830.663	25034
830.802	24905
830.941	24779
831.08	24924
831.219	24935
831.357	24958
831.496	25247
831.635	24886
831.774	24806
831.913	24856
832.051	24738
832.19	24646
832.329	24696
832.467	24604
832.606	24593
832.744	24422
832.883	24403
833.022	24479
833.16	24521
833.299	24711
833.437	24517
833.576	24707
833.714	24639
833.852	24635
833.991	24665
834.129	24779
834.267	24745
834.406	24635
834.544	24654
834.682	24574
834.821	24616
834.959	24692
835.097	24563
835.235	24700
835.373	24703
835.511	24555
835.65	24327
835.788	24452
835.926	24311
836.064	24292
836.202	24243
836.34	24399
836.478	24574
836.615	24433
836.753	24418
836.891	24612
837.029	24319
837.167	24292
837.305	24414
837.443	24258
837.58	24266
837.718	24361
837.856	24247
837.993	24144
838.131	24296
838.269	24232
838.406	24201
838.544	24057
838.681	23999
838.819	23878
838.956	23805
839.094	23558
839.231	23847
839.369	23874
839.506	24182
839.643	23897
839.781	23874
839.918	23733
840.055	23604
840.193	23737
840.33	23665
840.467	23611
840.604	23676
840.742	23920
840.879	23531
841.016	23570
841.153	23509
841.29	23809
841.427	23604
841.564	23764
841.701	23642
841.838	23493
841.975	23577
842.112	23535
842.249	23486
842.385	23414
842.522	23619
842.659	23531
842.796	23345
842.933	23448
843.069	23334
843.206	23284
843.343	23512
843.479	23364
843.616	23303
843.752	23181
843.889	23273
844.025	23368
844.162	23143
844.298	23345
844.435	23204
844.571	23246
844.708	23227
844.844	23376
844.98	23387
845.117	23383
845.253	23242
845.389	23151
845.525	23094
845.661	23014
845.798	23037
845.934	22919
846.07	22904
846.206	23033
846.342	23071
846.478	22828
846.614	22816
846.75	22577
846.886	22679
847.022	22763
847.158	22698
847.294	22698
847.429	22752
847.565	22717
847.701	22892
847.837	22287
847.972	22341
848.108	22432
848.244	22512
848.379	22333
848.515	22257
848.65	22207
848.786	22147
848.921	22333
849.057	22344
849.192	22291
849.328	22417
849.463	22242
849.598	22219
849.734	22074
849.869	22109
850.004	22090
850.14	22017
850.275	22029
850.41	22070
850.545	21930
850.68	21975
850.815	22090
850.95	21964
851.085	22055
851.22	22093
851.355	22139
851.49	21972
851.625	22017
851.76	21934
851.895	21823
852.03	21934
852.165	22006
852.299	22010
852.434	22120
852.569	22059
852.703	22021
852.838	22048
852.973	22074
853.107	22135
853.242	21972
853.376	21827
853.511	21717
853.645	21724
853.78	21968
853.914	21842
854.048	21774
854.183	21823
854.317	21778
854.451	22101
854.585	21892
854.72	21759
854.854	21838
854.988	21743
855.122	21930
855.256	21865
855.39	21857
855.524	21926
855.658	21854
855.792	21854
855.926	21823
856.06	21892
856.194	21953
856.327	21770
856.461	21762
856.595	21842
856.729	21774
856.862	21895
856.996	21793
857.13	21789
857.263	21800
857.397	21873
857.53	21751
857.664	22002
857.797	21880
857.931	21892
858.064	21835
858.197	21975
858.331	21842
858.464	21778
858.597	21816
858.731	21774
858.864	21797
858.997	21755
859.13	21926
859.263	21850
859.396	21918
859.529	21732
859.662	21759
859.795	21804
859.928	21812
860.061	22010
860.194	22006
860.327	21907
860.46	21789
860.592	21975
860.725	22074
860.858	21953
860.99	21762
861.123	21739
861.256	21739
861.388	21736
861.521	22683
861.653	21785
861.786	21747
861.918	21644
862.05	21686
862.183	21690
862.315	21694
862.447	21789
862.58	21671
862.712	21473
862.844	21553
862.976	21701
863.108	21583
863.24	21892
863.372	21435
863.504	21507
863.636	21564
863.768	21572
863.9	21515
864.032	21408
864.164	21435
864.296	21675
864.428	21705
864.559	21454
864.691	21622
864.823	21523
864.954	21591
865.086	21519
865.217	21412
865.349	21431
865.48	21340
865.612	21496
865.743	21530
865.875	21454
866.006	21370
866.137	21325
866.269	21370
866.4	21283
866.531	21466
866.662	21401
866.793	21340
866.924	21355
867.055	21412
867.186	21378
867.317	21272
867.448	21203
867.579	21325
867.71	21435
867.841	21218
867.972	21386
868.103	21386
868.233	21370
868.364	21317
868.495	21424
868.625	21606
868.756	21690
868.886	21492
869.017	21572
869.147	21663
869.278	21682
869.408	21633
869.539	21606
869.669	21660
869.799	21618
869.929	21720
870.06	21838
870.19	21854
870.32	21888
870.45	21911
870.58	21937
870.71	22116
870.84	22067
870.97	21975
871.1	21956
871.23	22200
871.36	22207
871.489	22158
871.619	22059
871.749	22303
871.879	22200
872.008	22303
872.138	22158
872.267	22276
872.397	22128
872.526	22139
872.656	22006
872.785	22067
872.915	22249
873.044	22306
873.173	22169
873.303	22299
873.432	22398
873.561	22333
873.69	22314
873.819	22306
873.948	22322
874.077	22226
874.206	22006
874.335	22314
874.464	22375
874.593	22379
874.722	22466
874.851	22459
874.979	22466
875.108	22379
875.237	22413
875.365	22356
875.494	22428
875.623	22360
875.751	22402
875.88	22554
876.008	22577
876.136	22611
876.265	22824
876.393	22999
876.521	22972
876.65	22759
876.778	22850
876.906	22885
877.034	22767
877.162	22835
877.29	22774
877.418	22869
877.546	22824
877.674	22713
877.802	22812
877.93	22752
878.058	22717
878.185	22565
878.313	22824
878.441	22771
878.568	22573
878.696	22744
878.824	22839
878.951	22938
879.079	23010
879.206	23136
879.333	22915
879.461	22885
879.588	22858
879.715	22873
879.842	23124
879.97	22839
880.097	22733
880.224	22592
880.351	22687
880.478	22508
880.605	22592
880.732	22664
880.859	22713
880.986	22599
881.112	22546
881.239	22588
881.366	22352
881.493	22280
881.619	22139
881.746	22192
881.872	22166
881.999	22173
882.125	22124
882.252	22230
882.378	22192
882.505	22280
882.631	22063
882.757	21998
882.883	21903
883.01	21880
883.136	21888
883.262	21812
883.388	21603
883.514	21972
883.64	21854
883.766	21797
883.892	21667
884.018	21713
884.143	21816
884.269	21812
884.395	21698
884.52	21519
884.646	21549
884.772	21534
884.897	21412
885.023	21534
885.148	21599
885.274	21633
885.399	21530
885.524	21564
885.65	21504
885.775	21481
885.9	21496
886.025	21663
886.15	21572
886.275	21477
886.4	21485
886.525	21515
886.65	21370
886.775	21386
886.9	21553
887.025	21633
887.149	21473
887.274	21230
887.399	21203
887.523	21264
887.648	21074
887.773	21199
887.897	21420
888.021	21230
888.146	21195
888.27	21340
888.395	21348
888.519	21268
888.643	21298
888.767	21203
888.891	21169
889.015	21081
889.139	21188
889.263	21070
889.387	21127
889.511	21294
889.635	21180
889.759	21070
889.883	20990
890.006	21138
890.13	21123
890.254	20982
890.377	20971
890.501	20792
890.624	20811
890.748	20902
890.871	20640
890.995	20678
891.118	20556
891.241	20659
891.364	20777
891.488	20754
891.611	20507
891.734	20663
891.857	20724
891.98	20579
892.103	20693
892.226	20602
892.349	20613
892.471	20355
892.594	20545
892.717	20560
892.839	20438
892.962	20568
893.085	20651
893.207	20602
893.33	20381
893.452	20454
893.575	20701
893.697	20484
893.819	20826
893.941	20739
894.064	20750
894.186	20381
894.308	20537
894.43	20682
894.552	20689
894.674	20579
894.796	20412
894.918	20484
895.04	20457
895.161	20575
895.283	20579
895.405	20537
895.526	20590
895.648	20518
895.769	20533
895.891	20617
896.012	20640
896.134	20587
896.255	20514
896.376	20476
896.498	20499
896.619	20625
896.74	20530
896.861	20518
896.982	20807
897.103	20861
897.224	20762
897.345	20689
897.466	20731
897.587	20720
897.708	20887
897.828	20845
897.949	20632
898.07	20590
898.19	20648
898.311	20769
898.431	20602
898.552	20739
898.672	20819
898.792	20845
898.913	20788
899.033	20648
899.153	20465
899.273	20457
899.393	20396
899.513	20457
899.633	20518
899.753	20522
899.873	20404
899.993	20434
900.113	20374
900.232	20473
900.352	20347
900.472	20301
900.591	20313
900.711	20256
900.83	20157
900.95	20259
901.069	20347
901.189	20111
901.308	19883
901.427	19712
901.546	19818
901.665	19868
901.784	19830
901.904	19681
902.023	19613
902.141	19460
902.26	19415
902.379	19441
902.498	19407
902.617	19301
902.735	19343
902.854	19460
902.973	19175
903.091	19023
903.21	19027
903.328	19046
903.446	19000
903.565	18802
903.683	18837
903.801	18692
903.919	18715
904.038	18768
904.156	18601
904.274	18627
904.392	18494
904.51	18521
904.627	18559
904.745	18601
904.863	18608
904.981	18342
905.098	18163
905.216	18224
905.334	18247
905.451	18247
905.569	18148
905.686	18190
905.803	18285
905.921	18060
906.038	17996
906.155	17999
906.272	17904
906.389	17874
906.506	17828
906.623	17809
906.74	17718
906.857	17676
906.974	17733
907.091	17703
907.208	17786
907.324	17786
907.441	17680
907.557	17535
907.674	17577
907.79	17356
907.907	17452
908.023	17516
908.139	17444
908.256	17406
908.372	17391
908.488	17402
908.604	17280
908.72	17166
908.836	17197
908.952	17269
909.068	17197
909.184	17311
909.3	17143
909.415	17185
909.531	17178
909.647	17033
909.762	16908
909.878	16919
909.993	16869
910.108	16790
910.224	16812
910.339	16816
910.454	16694
910.57	16793
910.685	16645
910.8	16767
910.915	16900
911.03	16744
911.145	16489
911.259	16500
911.374	16504
911.489	16375
911.604	16325
911.718	16196
911.833	16261
911.947	16032
912.062	16036
912.176	16246
912.291	16268
912.405	16329
912.519	16466
912.633	16443
912.748	16238
912.862	16162
912.976	16044
913.09	15835
913.204	15956
913.318	16059
913.431	16150
913.545	16086
913.659	16082
913.772	15983
913.886	15892
914	15835
914.113	15838
914.226	15953
914.34	15857
914.453	15720
914.566	15869
914.68	15713
914.793	15690
914.906	15443
915.019	15408
915.132	15435
915.245	15393
915.358	15523
915.47	15389
915.583	15439
915.696	15435
915.809	15519
915.921	15530
916.034	15416
916.146	15313
916.259	15279
916.371	15313
916.483	15329
916.595	15268
916.708	15329
916.82	15207
916.932	15249
917.044	15176
917.156	15192
917.268	15138
917.38	15066
917.491	15085
917.603	15131
917.715	15161
917.826	15070
917.938	15112
918.049	14899
918.161	15024
918.272	15135
918.384	15112
918.495	14986
918.606	14887
918.717	14845
918.828	14952
918.939	14861
919.05	14750
919.161	14743
919.272	14613
919.383	14701
919.494	14864
919.604	15032
919.715	14807
919.826	14792
919.936	14705
920.047	14861
920.157	14857
920.267	15009
920.378	14838
920.488	14777
920.598	14906
920.708	15043
920.818	14880
920.928	14857
921.038	15093
921.148	15017
921.258	14807
921.368	14659
921.477	14610
921.587	14556
921.697	14396
921.806	14511
921.916	14355
922.025	14233
922.134	14206
922.244	14149
922.353	14145
922.462	14088
922.571	13970
922.68	13871
922.789	13708
922.898	13784
923.007	13765
923.116	13761
923.224	13795
923.333	13807
923.442	13651
923.55	13563
923.659	13670
923.767	13620
923.876	13578
923.984	13662
924.092	13491
924.201	13472
924.309	13434
924.417	13502
924.525	13491
924.633	13422
924.741	14111
924.849	13221
924.956	13369
925.064	13160
925.172	13183
925.279	13232
925.387	13202
925.494	13164
925.602	13289
925.709	13312
925.816	13095
925.924	13095
926.031	13270
926.138	13126
926.245	13091
926.352	13050
926.459	13156
926.566	13168
926.673	13031
926.779	12989
926.886	12985
926.993	12745
927.099	12814
927.206	12707
927.312	12692
927.419	12760
927.525	12741
927.631	12798
927.737	12578
927.843	12589
927.95	12475
928.056	12635
928.162	12627
928.267	12681
928.373	13232
928.479	12650
928.585	12384
928.69	12559
928.796	12540
928.901	12460
929.007	12266
929.112	12391
929.218	12334
929.323	12296
929.428	12232
929.533	12433
929.638	12186
929.743	12209
929.848	12262
929.953	12178
930.058	12136
930.163	11946
930.267	11927
930.372	12121
930.477	11992
930.581	12129
930.685	11973
930.79	11813
930.894	11855
930.998	11836
931.103	11977
931.207	11554
931.311	11493
931.415	11391
931.519	11318
931.623	11239
