Data from test_V78500241_2070.txt Node
Date: Fri Mar 25 15:56:08 CST 2022
User: usil
Spectrometer: V785-0024
Trigger mode: 0
Integration Time (sec): 4.000000E-1
Scans to average: 1
Nonlinearity correction enabled: false
Boxcar width: 0
Storing dark spectrum: false
XAxis mode: Wavelengths
Number of Pixels in Spectrum: 1024
>>>>>Begin Spectral Data<<<<<
801.071	28763
801.214	28755
801.356	28660
801.499	28607
801.641	28459
801.783	28226
801.926	28504
802.068	28341
802.211	28325
802.353	28230
802.496	28234
802.638	28078
802.78	28074
802.923	27994
803.065	28006
803.208	28067
803.35	28188
803.492	28249
803.635	28325
803.777	28329
803.919	28299
804.061	28634
804.204	28478
804.346	28181
804.488	28276
804.63	28382
804.773	28306
804.915	28455
805.057	28398
805.199	28325
805.341	28432
805.483	28516
805.626	28436
805.768	28493
805.91	28554
806.052	28573
806.194	28421
806.336	28618
806.478	28565
806.62	28428
806.762	28622
806.904	28927
807.046	29044
807.188	29018
807.33	29025
807.472	29151
807.614	28942
807.756	28942
807.898	28915
808.04	28850
808.182	28793
808.324	28873
808.465	28957
808.607	29128
808.749	29216
808.891	29414
809.033	29326
809.174	29326
809.316	29083
809.458	29242
809.6	29223
809.741	29330
809.883	29486
810.025	29520
810.166	29608
810.308	29570
810.45	29482
810.591	29463
810.733	29292
810.875	29197
811.016	29124
811.158	29166
811.299	29497
811.441	29383
811.582	29444
811.724	29140
811.865	29185
812.007	29364
812.148	29269
812.29	29311
812.431	29425
812.573	29661
812.714	29596
812.855	29775
812.997	29912
813.138	29969
813.279	29904
813.421	29790
813.562	29699
813.703	29676
813.845	29395
813.986	29242
814.127	29071
814.268	29041
814.41	29060
814.551	28972
814.692	29018
814.833	28896
814.974	28881
815.115	28908
815.256	28793
815.397	28919
815.539	28824
815.68	28744
815.821	28725
815.962	28733
816.103	28580
816.244	28603
816.385	28592
816.526	28485
816.666	28329
816.807	28344
816.948	28257
817.089	28295
817.23	28242
817.371	28344
817.512	28242
817.653	28265
817.793	28333
817.934	28394
818.075	28257
818.216	28310
818.356	28238
818.497	28196
818.638	27812
818.778	28067
818.919	28131
819.06	28139
819.2	28124
819.341	28257
819.481	28242
819.622	28466
819.762	28599
819.903	28592
820.043	28584
820.184	28489
820.324	28401
820.465	28569
820.605	28436
820.746	28238
820.886	28234
821.026	28421
821.167	28500
821.307	28493
821.447	28249
821.588	28200
821.728	28093
821.868	27857
822.008	27945
822.149	27568
822.289	27705
822.429	27500
822.569	27393
822.709	27500
822.849	27260
822.99	27272
823.13	27329
823.27	27268
823.41	27100
823.55	26910
823.69	27176
823.83	27100
823.97	27055
824.11	26895
824.25	26864
824.389	26910
824.529	27058
824.669	26895
824.809	27055
824.949	26982
825.089	27085
825.228	26956
825.368	26731
825.508	26762
825.648	26781
825.787	26891
825.927	26902
826.067	26788
826.206	26910
826.346	26815
826.485	26777
826.625	26830
826.765	26994
826.904	26883
827.044	26686
827.183	26480
827.323	26560
827.462	26663
827.601	26533
827.741	26484
827.88	26522
828.02	26469
828.159	26503
828.298	26495
828.437	26564
828.577	26442
828.716	26625
828.855	26393
828.994	26172
829.134	26256
829.273	26286
829.412	26164
829.551	26161
829.69	26191
829.829	26199
829.968	26347
830.107	26176
830.246	26157
830.385	26218
830.524	25986
830.663	26012
830.802	25841
830.941	25696
831.08	25765
831.219	26046
831.357	25925
831.496	26183
831.635	25868
831.774	25757
831.913	25693
832.051	25613
832.19	25552
832.329	25605
832.467	25483
832.606	25548
832.744	25400
832.883	25460
833.022	25403
833.16	25575
833.299	25529
833.437	25548
833.576	25521
833.714	25563
833.852	25571
833.991	25571
834.129	25658
834.267	25578
834.406	25632
834.544	25518
834.682	25479
834.821	25487
834.959	25700
835.097	25445
835.235	25639
835.373	25381
835.511	25521
835.65	25445
835.788	25483
835.926	25198
836.064	25187
836.202	25099
836.34	25335
836.478	25495
836.615	25468
836.753	25308
836.891	25430
837.029	25293
837.167	25434
837.305	25217
837.443	25247
837.58	25221
837.718	25297
837.856	25278
837.993	25232
838.131	25236
838.269	25069
838.406	25126
838.544	25050
838.681	24913
838.819	24905
838.956	24665
839.094	24623
839.231	24559
839.369	24856
839.506	25023
839.643	24905
839.781	24703
839.918	24650
840.055	24677
840.193	24608
840.33	24456
840.467	24593
840.604	24597
840.742	24875
840.879	24429
841.016	24521
841.153	24388
841.29	24764
841.427	24536
841.564	24616
841.701	24597
841.838	24456
841.975	24448
842.112	24456
842.249	24330
842.385	24361
842.522	24509
842.659	24395
842.796	24243
842.933	24315
843.069	24182
843.206	24251
843.343	24372
843.479	24258
843.616	24338
843.752	24110
843.889	24003
844.025	24243
844.162	24167
844.298	24163
844.435	23992
844.571	24038
844.708	23942
844.844	24216
844.98	24300
845.117	24315
845.253	24083
845.389	23912
845.525	24076
845.661	24022
845.798	23798
845.934	23893
846.07	23790
846.206	23855
846.342	23878
846.478	23703
846.614	23608
846.75	23531
846.886	23425
847.022	23543
847.158	23520
847.294	23547
847.429	23573
847.565	23501
847.701	23748
847.837	23471
847.972	23235
848.108	23452
848.244	23250
848.379	23140
848.515	23166
848.65	23018
848.786	23140
848.921	23189
849.057	23109
849.192	23128
849.328	23189
849.463	23246
849.598	23121
849.734	22991
849.869	22942
850.004	22713
850.14	22869
850.275	22881
850.41	22828
850.545	22919
850.68	22927
850.815	22968
850.95	22869
851.085	22927
851.22	23037
851.355	22885
851.49	22904
851.625	22805
851.76	22904
851.895	22733
852.03	22736
852.165	22953
852.299	22991
852.434	22942
852.569	22976
852.703	22900
852.838	22942
852.973	22961
853.107	22904
853.242	22812
853.376	22736
853.511	22592
853.645	22691
853.78	22839
853.914	22668
854.048	22641
854.183	22668
854.317	22713
854.451	22820
854.585	22675
854.72	22687
854.854	22793
854.988	22653
855.122	22691
855.256	22584
855.39	22755
855.524	22797
855.658	22717
855.792	22801
855.926	22771
856.06	22668
856.194	22847
856.327	22668
856.461	22557
856.595	22660
856.729	22577
856.862	22767
856.996	22706
857.13	22778
857.263	22828
857.397	22759
857.53	22675
857.664	22771
857.797	22831
857.931	22771
858.064	22683
858.197	22771
858.331	22649
858.464	22698
858.597	22481
858.731	22691
858.864	22641
858.997	22550
859.13	22687
859.263	22725
859.396	22733
859.529	22626
859.662	22546
859.795	22611
859.928	22698
860.061	22946
860.194	22873
860.327	22793
860.46	22725
860.592	22778
860.725	22885
860.858	22809
860.99	22672
861.123	22546
861.256	22531
861.388	22542
861.521	23376
861.653	22531
861.786	22493
861.918	22531
862.05	22535
862.183	22637
862.315	22542
862.447	22683
862.58	22706
862.712	22375
862.844	22295
862.976	22527
863.108	22466
863.24	22934
863.372	22253
863.504	22417
863.636	22455
863.768	22348
863.9	22504
864.032	22394
864.164	22462
864.296	22440
864.428	22447
864.559	22398
864.691	22535
864.823	22451
864.954	22382
865.086	22447
865.217	22196
865.349	22230
865.48	22325
865.612	22162
865.743	22310
865.875	22341
866.006	22299
866.137	22337
866.269	22318
866.4	22253
866.531	22242
866.662	22188
866.793	22223
866.924	22272
867.055	22185
867.186	22147
867.317	22226
867.448	22109
867.579	22173
867.71	22253
867.841	22059
867.972	22284
868.103	22154
868.233	22246
868.364	22234
868.495	22215
868.625	22356
868.756	22717
868.886	22367
869.017	22375
869.147	22615
869.278	22470
869.408	22508
869.539	22554
869.669	22500
869.799	22424
869.929	22592
870.06	22584
870.19	22691
870.32	22752
870.45	22763
870.58	22908
870.71	23006
870.84	22908
870.97	22915
871.1	22866
871.23	23029
871.36	23086
871.489	22911
871.619	22980
871.749	23094
871.879	23140
872.008	23102
872.138	23193
872.267	23071
872.397	22934
872.526	22850
872.656	22793
872.785	22881
872.915	22995
873.044	23086
873.173	23041
873.303	23033
873.432	23140
873.561	23056
873.69	23044
873.819	22942
873.948	23003
874.077	23052
874.206	23018
874.335	23159
874.464	23181
874.593	23269
874.722	23299
874.851	23235
874.979	23322
875.108	23258
875.237	23181
875.365	23231
875.494	23277
875.623	23353
875.751	23239
875.88	23315
876.008	23231
876.136	23330
876.265	23634
876.393	23851
876.521	23672
876.65	23665
876.778	23718
876.906	23554
877.034	23558
877.162	23558
877.29	23630
877.418	23570
877.546	23627
877.674	23528
877.802	23665
877.93	23589
878.058	23551
878.185	23539
878.313	23551
878.441	23661
878.568	23463
878.696	23657
878.824	23703
878.951	23691
879.079	23809
879.206	23954
879.333	23805
879.461	23634
879.588	23737
879.715	23798
879.842	23885
879.97	23695
880.097	23509
880.224	23406
880.351	23493
880.478	23341
880.605	23391
880.732	23277
880.859	23691
880.986	23448
881.112	23448
881.239	23299
881.366	22999
881.493	23079
881.619	22987
881.746	23044
881.872	22961
881.999	22915
882.125	22946
882.252	22957
882.378	22991
882.505	22942
882.631	22797
882.757	22725
882.883	22740
883.01	22649
883.136	22557
883.262	22618
883.388	22527
883.514	22634
883.64	22683
883.766	22481
883.892	22382
884.018	22516
884.143	22531
884.269	22611
884.395	22253
884.52	22268
884.646	22287
884.772	22253
884.897	22219
885.023	22329
885.148	22367
885.274	22394
885.399	22432
885.524	22303
885.65	22253
885.775	22181
885.9	22352
886.025	22417
886.15	22382
886.275	22344
886.4	22238
886.525	22291
886.65	22086
886.775	22105
886.9	22451
887.025	22504
887.149	22268
887.274	22112
887.399	22067
887.523	22086
887.648	22017
887.773	21865
887.897	22105
888.021	21994
888.146	21979
888.27	22139
888.395	22181
888.519	21991
888.643	22070
888.767	21975
888.891	21911
889.015	21800
889.139	21873
889.263	21968
889.387	21911
889.511	22082
889.635	22002
889.759	21766
889.883	21717
890.006	21831
890.13	21979
890.254	21690
890.377	21720
890.501	21561
890.624	21511
890.748	21663
890.871	21443
890.995	21431
891.118	21317
891.241	21386
891.364	21378
891.488	21549
891.611	21378
891.734	21340
891.857	21496
891.98	21256
892.103	21458
892.226	21287
892.349	21351
892.471	21195
892.594	21211
892.717	21348
892.839	21256
892.962	21268
893.085	21378
893.207	21344
893.33	21226
893.452	21176
893.575	21298
893.697	21294
893.819	21329
893.941	21401
894.064	21420
894.186	21150
894.308	21142
894.43	21279
894.552	21306
894.674	21367
894.796	21096
894.918	21142
895.04	21264
895.161	21275
895.283	21176
895.405	21188
895.526	21237
895.648	21439
895.769	21310
895.891	21272
896.012	21416
896.134	21195
896.255	21169
896.376	21180
896.498	21161
896.619	21233
896.74	21256
896.861	21329
896.982	21492
897.103	21804
897.224	21515
897.345	21412
897.466	21351
897.587	21462
897.708	21488
897.828	21450
897.949	21348
898.07	21317
898.19	21321
898.311	21526
898.431	21340
898.552	21447
898.672	21564
898.792	21405
898.913	21557
899.033	21294
899.153	21310
899.273	21070
899.393	21142
899.513	21207
899.633	21131
899.753	21272
899.873	21093
899.993	21173
900.113	21108
900.232	21222
900.352	21146
900.472	20967
900.591	20902
900.711	21001
900.83	20895
900.95	21070
901.069	20944
901.189	20857
901.308	20651
901.427	20434
901.546	20377
901.665	20438
901.784	20518
901.904	20343
902.023	20267
902.141	20069
902.26	20012
902.379	20134
902.498	19947
902.617	19894
902.735	19978
902.854	19898
902.973	19814
903.091	19700
903.21	19632
903.328	19719
903.446	19521
903.565	19480
903.683	19518
903.801	19369
903.919	19266
904.038	19354
904.156	19285
904.274	19327
904.392	19244
904.51	19209
904.627	19168
904.745	19187
904.863	19152
904.981	18973
905.098	18833
905.216	18924
905.334	18981
905.451	18867
905.569	18867
905.686	18928
905.803	18840
905.921	18654
906.038	18681
906.155	18684
906.272	18498
906.389	18513
906.506	18506
906.623	18426
906.74	18369
906.857	18311
906.974	18235
907.091	18426
907.208	18388
907.324	18319
907.441	18239
907.557	18136
907.674	18129
907.79	17996
907.907	18041
908.023	18091
908.139	18049
908.256	18045
908.372	17992
908.488	18007
908.604	17912
908.72	17847
908.836	17874
908.952	17916
909.068	17912
909.184	17851
909.3	17809
909.415	17790
909.531	17805
909.647	17665
909.762	17539
909.878	17417
909.993	17619
910.108	17429
910.224	17448
910.339	17570
910.454	17349
910.57	17421
910.685	17326
910.8	17493
910.915	17387
911.03	17288
911.145	17170
911.259	17239
911.374	17064
911.489	17022
911.604	16889
911.718	16809
911.833	16889
911.947	16763
912.062	16691
912.176	16869
912.291	16946
912.405	16847
912.519	17064
912.633	16968
912.748	16862
912.862	16904
912.976	16675
913.09	16607
913.204	16713
913.318	16634
913.431	16721
913.545	16641
913.659	16755
913.772	16569
913.886	16577
914	16421
914.113	16580
914.226	16546
914.34	16474
914.453	16386
914.566	16466
914.68	16284
914.793	16276
914.906	16143
915.019	16071
915.132	16002
915.245	15960
915.358	16135
915.47	16067
915.583	16032
915.696	15983
915.809	16169
915.921	16185
916.034	15994
916.146	15907
916.259	15934
916.371	16002
916.483	15861
916.595	15797
916.708	15819
916.82	15888
916.932	15842
917.044	15819
917.156	15774
917.268	15633
917.38	15652
917.491	15633
917.603	15595
917.715	15762
917.826	15739
917.938	15606
918.049	15443
918.161	15663
918.272	15732
918.384	15759
918.495	15538
918.606	15462
918.717	15340
918.828	15393
918.939	15428
919.05	15313
919.161	15348
919.272	15195
919.383	15180
919.494	15397
919.604	15603
919.715	15291
919.826	15230
919.936	15291
920.047	15389
920.157	15378
920.267	15542
920.378	15408
920.488	15291
920.598	15557
920.708	15641
920.818	15431
920.928	15500
921.038	15599
921.148	15618
921.258	15222
921.368	15108
921.477	15116
921.587	15058
921.697	14979
921.806	15070
921.916	14899
922.025	14769
922.134	14659
922.244	14636
922.353	14708
922.462	14514
922.571	14461
922.68	14298
922.789	14366
922.898	14412
923.007	14298
923.116	14275
923.224	14275
923.333	14206
923.442	14202
923.55	14115
923.659	14244
923.767	14176
923.876	14035
923.984	14107
924.092	13978
924.201	14111
924.309	14020
924.417	14111
924.525	13864
924.633	13932
924.741	14921
924.849	13822
924.956	13978
925.064	13738
925.172	13624
925.279	13704
925.387	13696
925.494	13757
925.602	13814
925.709	13742
925.816	13616
925.924	13647
926.031	13681
926.138	13586
926.245	13704
926.352	13445
926.459	13586
926.566	13696
926.673	13563
926.779	13430
926.886	13419
926.993	13320
927.099	13278
927.206	13129
927.312	13266
927.419	13274
927.525	13221
927.631	13304
927.737	13221
927.843	13122
927.95	13057
928.056	13027
928.162	13019
928.267	13065
928.373	13674
928.479	13137
928.585	12825
928.69	12993
928.796	12947
928.901	12913
929.007	12730
929.112	12913
929.218	12863
929.323	12677
929.428	12753
929.533	12913
929.638	12711
929.743	12608
929.848	12722
929.953	12703
930.058	12597
930.163	12399
930.267	12376
930.372	12593
930.477	12467
930.581	12589
930.685	12448
930.79	12330
930.894	12300
930.998	12273
931.103	12456
931.207	12049
931.311	12030
931.415	11870
931.519	11642
931.623	11604
