Data from test_V78500241_1275.txt Node
Date: Fri Mar 25 15:50:38 CST 2022
User: usil
Spectrometer: V785-0024
Trigger mode: 0
Integration Time (sec): 4.000000E-1
Scans to average: 1
Nonlinearity correction enabled: false
Boxcar width: 0
Storing dark spectrum: false
XAxis mode: Wavelengths
Number of Pixels in Spectrum: 1024
>>>>>Begin Spectral Data<<<<<
801.071	28881
801.214	28710
801.356	28497
801.499	28238
801.641	28360
801.783	28257
801.926	28333
802.068	28204
802.211	28219
802.353	28200
802.496	28002
802.638	28017
802.78	27846
802.923	27808
803.065	27926
803.208	27937
803.35	27720
803.492	28017
803.635	28093
803.777	27888
803.919	28207
804.061	28382
804.204	28257
804.346	28211
804.488	28124
804.63	28154
804.773	28051
804.915	28215
805.057	28238
805.199	28280
805.341	28280
805.483	28280
805.626	28329
805.768	28226
805.91	28299
806.052	28470
806.194	28333
806.336	28527
806.478	28405
806.62	28428
806.762	28500
806.904	28778
807.046	28911
807.188	28710
807.33	28896
807.472	28923
807.614	28759
807.756	28759
807.898	28668
808.04	28622
808.182	28706
808.324	28778
808.465	28687
808.607	28987
808.749	28896
808.891	29151
809.033	29254
809.174	29075
809.316	29064
809.458	28946
809.6	29094
809.741	29197
809.883	29174
810.025	29269
810.166	29231
810.308	29379
810.45	29212
810.591	29155
810.733	29048
810.875	29048
811.016	28881
811.158	28987
811.299	29204
811.441	29288
811.582	29254
811.724	29117
811.865	29147
812.007	28972
812.148	28972
812.29	29212
812.431	29239
812.573	29345
812.714	29520
812.855	29562
812.997	29707
813.138	29764
813.279	29783
813.421	29653
813.562	29623
813.703	29406
813.845	29337
813.986	28972
814.127	28869
814.268	28786
814.41	28873
814.551	28733
814.692	28805
814.833	28713
814.974	28691
815.115	28763
815.256	28645
815.397	28752
815.539	28596
815.68	28542
815.821	28512
815.962	28550
816.103	28679
816.244	28557
816.385	28371
816.526	28295
816.666	28139
816.807	27994
816.948	28257
817.089	28253
817.23	28226
817.371	28181
817.512	28109
817.653	28078
817.793	28010
817.934	28059
818.075	28230
818.216	28150
818.356	28082
818.497	27911
818.638	27789
818.778	27816
818.919	27865
819.06	27842
819.2	28051
819.341	28124
819.481	28048
819.622	28287
819.762	28432
819.903	28329
820.043	28265
820.184	28173
820.324	28162
820.465	28371
820.605	28352
820.746	28215
820.886	28177
821.026	28124
821.167	28173
821.307	28413
821.447	28120
821.588	28032
821.728	27964
821.868	27812
822.008	27618
822.149	27545
822.289	27523
822.429	27332
822.569	27412
822.709	27249
822.849	26994
822.99	27036
823.13	26910
823.27	27154
823.41	26948
823.55	26750
823.69	26876
823.83	26925
823.97	26899
824.11	26712
824.25	26648
824.389	26800
824.529	26845
824.669	26727
824.809	26963
824.949	26883
825.089	26876
825.228	26857
825.368	26621
825.508	26507
825.648	26674
825.787	26701
825.927	26602
826.067	26697
826.206	26590
826.346	26758
826.485	26636
826.625	26648
826.765	26861
826.904	26708
827.044	26347
827.183	26545
827.323	26324
827.462	26476
827.601	26415
827.741	26484
827.88	26374
828.02	26244
828.159	26301
828.298	26328
828.437	26473
828.577	26233
828.716	26404
828.855	26256
828.994	26054
829.134	26122
829.273	26119
829.412	26020
829.551	25982
829.69	26096
829.829	26126
829.968	26069
830.107	26050
830.246	26046
830.385	26172
830.524	25982
830.663	25890
830.802	25803
830.941	25651
831.08	25655
831.219	25731
831.357	25647
831.496	25742
831.635	25601
831.774	25472
831.913	25419
832.051	25537
832.19	25377
832.329	25476
832.467	25384
832.606	25236
832.744	25343
832.883	25354
833.022	25320
833.16	25388
833.299	25453
833.437	25392
833.576	25396
833.714	25327
833.852	25476
833.991	25472
834.129	25613
834.267	25407
834.406	25350
834.544	25289
834.682	25297
834.821	25320
834.959	25457
835.097	25331
835.235	25479
835.373	25324
835.511	25308
835.65	25274
835.788	25297
835.926	25141
836.064	25137
836.202	24985
836.34	25027
836.478	25251
836.615	25225
836.753	25236
836.891	25285
837.029	25221
837.167	25251
837.305	25202
837.443	24973
837.58	24966
837.718	25263
837.856	25099
837.993	24875
838.131	24920
838.269	24954
838.406	24951
838.544	24684
838.681	24741
838.819	24650
838.956	24547
839.094	24525
839.231	24544
839.369	24696
839.506	24806
839.643	24681
839.781	24616
839.918	24384
840.055	24422
840.193	24372
840.33	24464
840.467	24498
840.604	24441
840.742	24661
840.879	24380
841.016	24467
841.153	24197
841.29	24448
841.427	24441
841.564	24422
841.701	24372
841.838	24319
841.975	24224
842.112	24258
842.249	24232
842.385	24194
842.522	24391
842.659	24251
842.796	24133
842.933	24140
843.069	23996
843.206	24121
843.343	24266
843.479	24140
843.616	24251
843.752	23916
843.889	24034
844.025	24121
844.162	23920
844.298	23920
844.435	23889
844.571	23927
844.708	23950
844.844	24087
844.98	23946
845.117	23984
845.253	23874
845.389	23958
845.525	23828
845.661	23733
845.798	23665
845.934	23760
846.07	23608
846.206	23703
846.342	23729
846.478	23558
846.614	23509
846.75	23284
846.886	23387
847.022	23280
847.158	23478
847.294	23303
847.429	23356
847.565	23353
847.701	23634
847.837	23159
847.972	23075
848.108	23216
848.244	23143
848.379	22999
848.515	22991
848.65	22968
848.786	22927
848.921	22972
849.057	23220
849.192	23132
849.328	22995
849.463	22881
849.598	22904
849.734	22866
849.869	22847
850.004	22816
850.14	22618
850.275	22778
850.41	22740
850.545	22717
850.68	22702
850.815	22691
850.95	22691
851.085	22744
851.22	22702
851.355	22774
851.49	22565
851.625	22706
851.76	22660
851.895	22580
852.03	22725
852.165	22831
852.299	22831
852.434	22687
852.569	22717
852.703	22611
852.838	22717
852.973	22858
853.107	22850
853.242	22664
853.376	22637
853.511	22443
853.645	22527
853.78	22679
853.914	22626
854.048	22607
854.183	22432
854.317	22577
854.451	22809
854.585	22432
854.72	22550
854.854	22527
854.988	22443
855.122	22603
855.256	22337
855.39	22512
855.524	22485
855.658	22637
855.792	22550
855.926	22675
856.06	22611
856.194	22592
856.327	22554
856.461	22478
856.595	22508
856.729	22398
856.862	22649
856.996	22565
857.13	22622
857.263	22607
857.397	22615
857.53	22546
857.664	22577
857.797	22577
857.931	22702
858.064	22565
858.197	22596
858.331	22535
858.464	22432
858.597	22481
858.731	22531
858.864	22462
858.997	22603
859.13	22542
859.263	22580
859.396	22615
859.529	22546
859.662	22565
859.795	22459
859.928	22569
860.061	22637
860.194	22683
860.327	22630
860.46	22557
860.592	22675
860.725	22771
860.858	22607
860.99	22561
861.123	22485
861.256	22451
861.388	22630
861.521	23094
861.653	22337
861.786	22272
861.918	22265
862.05	22516
862.183	22356
862.315	22497
862.447	22394
862.58	22390
862.712	22306
862.844	22230
862.976	22371
863.108	22291
863.24	22557
863.372	22207
863.504	22181
863.636	22169
863.768	22265
863.9	22242
864.032	22162
864.164	22261
864.296	22318
864.428	22325
864.559	22337
864.691	22196
864.823	22207
864.954	22272
865.086	22192
865.217	22192
865.349	22101
865.48	22192
865.612	22128
865.743	22310
865.875	22128
866.006	21979
866.137	22097
866.269	22211
866.4	21991
866.531	22048
866.662	22048
866.793	22017
866.924	22063
867.055	22112
867.186	22059
867.317	21991
867.448	21915
867.579	21975
867.71	21899
867.841	21937
867.972	22067
868.103	22017
868.233	22032
868.364	21987
868.495	22070
868.625	22379
868.756	22428
868.886	22230
869.017	22280
869.147	22352
869.278	22363
869.408	22337
869.539	22284
869.669	22211
869.799	22226
869.929	22284
870.06	22386
870.19	22653
870.32	22546
870.45	22596
870.58	22675
870.71	22706
870.84	22733
870.97	22569
871.1	22611
871.23	22816
871.36	22854
871.489	22755
871.619	22786
871.749	22854
871.879	22869
872.008	22984
872.138	22942
872.267	22706
872.397	22733
872.526	22771
872.656	22687
872.785	22710
872.915	22976
873.044	22976
873.173	22828
873.303	23018
873.432	23041
873.561	23048
873.69	22896
873.819	22828
873.948	22980
874.077	22923
874.206	22801
874.335	23018
874.464	22991
874.593	22972
874.722	23029
874.851	23086
874.979	23060
875.108	23212
875.237	23006
875.365	22972
875.494	23041
875.623	23181
875.751	23189
875.88	23151
876.008	23315
876.136	23231
876.265	23452
876.393	23680
876.521	23528
876.65	23646
876.778	23577
876.906	23334
877.034	23402
877.162	23520
877.29	23311
877.418	23528
877.546	23493
877.674	23410
877.802	23330
877.93	23467
878.058	23364
878.185	23345
878.313	23417
878.441	23376
878.568	23189
878.696	23315
878.824	23520
878.951	23543
879.079	23676
879.206	23630
879.333	23562
879.461	23486
879.588	23455
879.715	23535
879.842	23707
879.97	23478
880.097	23318
880.224	23261
880.351	23258
880.478	23200
880.605	23181
880.732	23216
880.859	23448
880.986	23235
881.112	23265
881.239	23223
881.366	22953
881.493	22812
881.619	22858
881.746	22831
881.872	22847
881.999	22717
882.125	22763
882.252	22824
882.378	22774
882.505	22858
882.631	22561
882.757	22508
882.883	22478
883.01	22474
883.136	22440
883.262	22394
883.388	22382
883.514	22573
883.64	22451
883.766	22398
883.892	22207
884.018	22158
884.143	22455
884.269	22497
884.395	22166
884.52	22181
884.646	22196
884.772	21998
884.897	21937
885.023	22116
885.148	22173
885.274	22280
885.399	22139
885.524	22207
885.65	22223
885.775	22128
885.9	22139
886.025	22204
886.15	22147
886.275	22059
886.4	22101
886.525	22112
886.65	22036
886.775	22044
886.9	22234
887.025	22295
887.149	22048
887.274	21831
887.399	21945
887.523	21956
887.648	21880
887.773	21797
887.897	22013
888.021	21960
888.146	21888
888.27	21911
888.395	21968
888.519	21865
888.643	21831
888.767	21895
888.891	21785
889.015	21595
889.139	21709
889.263	21599
889.387	21660
889.511	21865
889.635	21823
889.759	21618
889.883	21576
890.006	21618
890.13	21800
890.254	21504
890.377	21595
890.501	21386
890.624	21351
890.748	21576
890.871	21329
890.995	21268
891.118	21222
891.241	21188
891.364	21226
891.488	21401
891.611	21313
891.734	21260
891.857	21161
891.98	21291
892.103	21226
892.226	21192
892.349	21112
892.471	21047
892.594	21180
892.717	21161
892.839	21112
892.962	21165
893.085	21150
893.207	21009
893.33	20937
893.452	20998
893.575	21161
893.697	21009
893.819	21283
893.941	21268
894.064	21233
894.186	21093
894.308	20933
894.43	21173
894.552	21173
894.674	21249
894.796	20937
894.918	21104
895.04	20933
895.161	21264
895.283	21066
895.405	21020
895.526	21108
895.648	21112
895.769	21085
895.891	21085
896.012	21112
896.134	21222
896.255	21188
896.376	21093
896.498	21123
896.619	21081
896.74	20963
896.861	21260
896.982	21294
897.103	21450
897.224	21401
897.345	21275
897.466	21192
897.587	21268
897.708	21363
897.828	21340
897.949	21245
898.07	21051
898.19	21161
898.311	21313
898.431	21268
898.552	21268
898.672	21340
898.792	21233
898.913	21272
899.033	21116
899.153	21032
899.273	21024
899.393	20967
899.513	21085
899.633	21074
899.753	20979
899.873	20857
899.993	21184
900.113	21024
900.232	20941
900.352	20979
900.472	20754
900.591	20693
900.711	20682
900.83	20724
900.95	20887
901.069	20895
901.189	20518
901.308	20457
901.427	20408
901.546	20267
901.665	20298
901.784	20305
901.904	20122
902.023	20142
902.141	19864
902.26	19917
902.379	20100
902.498	19997
902.617	19731
902.735	19864
902.854	19765
902.973	19814
903.091	19563
903.21	19438
903.328	19476
903.446	19415
903.565	19373
903.683	19187
903.801	19126
903.919	19228
904.038	19152
904.156	19133
904.274	19129
904.392	18966
904.51	19072
904.627	18966
904.745	19046
904.863	18947
904.981	18977
905.098	18776
905.216	18741
905.334	18795
905.451	18787
905.569	18623
905.686	18715
905.803	18711
905.921	18513
906.038	18658
906.155	18601
906.272	18414
906.389	18525
906.506	18308
906.623	18209
906.74	18155
906.857	18095
906.974	18270
907.091	18300
907.208	18350
907.324	18235
907.441	18182
907.557	18045
907.674	17988
907.79	17904
907.907	17942
908.023	17920
908.139	18026
908.256	17973
908.372	17878
908.488	17771
908.604	17714
908.72	17646
908.836	17589
908.952	17703
909.068	17611
909.184	17802
909.3	17748
909.415	17767
909.531	17726
909.647	17429
909.762	17402
909.878	17360
909.993	17288
910.108	17421
910.224	17204
910.339	17269
910.454	17288
910.57	17208
910.685	17124
910.8	17372
910.915	17223
911.03	17147
911.145	17029
911.259	16843
911.374	16919
911.489	16927
911.604	16748
911.718	16706
911.833	16664
911.947	16527
912.062	16493
912.176	16736
912.291	16653
912.405	16672
912.519	16854
912.633	16835
912.748	16733
912.862	16641
912.976	16527
913.09	16314
913.204	16428
913.318	16447
913.431	16672
913.545	16607
913.659	16561
913.772	16504
913.886	16265
914	16337
914.113	16344
914.226	16413
914.34	16344
914.453	16185
914.566	16246
914.68	16181
914.793	16109
914.906	15937
915.019	15850
915.132	15759
915.245	15800
915.358	15876
915.47	15759
915.583	15827
915.696	15831
915.809	15979
915.921	15994
916.034	15781
916.146	15766
916.259	15865
916.371	15789
916.483	15781
916.595	15652
916.708	15713
916.82	15785
916.932	15705
917.044	15618
917.156	15595
917.268	15477
917.38	15587
917.491	15401
917.603	15473
917.715	15572
917.826	15606
917.938	15439
918.049	15443
918.161	15435
918.272	15572
918.384	15519
918.495	15412
918.606	15298
918.717	15119
918.828	15329
918.939	15173
919.05	15237
919.161	15188
919.272	14998
919.383	15066
919.494	15184
919.604	15408
919.715	15310
919.826	15058
919.936	15218
920.047	15272
920.157	15260
920.267	15386
920.378	15329
920.488	15146
920.598	15378
920.708	15485
920.818	15378
920.928	15359
921.038	15435
921.148	15412
921.258	15116
921.368	15028
921.477	14963
921.587	14895
921.697	14781
921.806	14906
921.916	14746
922.025	14613
922.134	14552
922.244	14442
922.353	14602
922.462	14442
922.571	14298
922.68	14221
922.789	14206
922.898	14199
923.007	14054
923.116	14153
923.224	14233
923.333	14134
923.442	14046
923.55	13978
923.659	14035
923.767	14073
923.876	14001
923.984	13902
924.092	13807
924.201	13898
924.309	13860
924.417	13898
924.525	13868
924.633	13849
924.741	14823
924.849	13651
924.956	13708
925.064	13578
925.172	13525
925.279	13544
925.387	13563
925.494	13594
925.602	13666
925.709	13643
925.816	13460
925.924	13529
926.031	13544
926.138	13495
926.245	13487
926.352	13407
926.459	13457
926.566	13586
926.673	13438
926.779	13339
926.886	13289
926.993	13206
927.099	13095
927.206	13088
927.312	13053
927.419	13076
927.525	13042
927.631	13015
927.737	13023
927.843	12886
927.95	12894
928.056	12901
928.162	12958
928.267	13012
928.373	13616
928.479	12951
928.585	12749
928.69	12875
928.796	12943
928.901	12696
929.007	12612
929.112	12669
929.218	12730
929.323	12650
929.428	12627
929.533	12688
929.638	12555
929.743	12589
929.848	12669
929.953	12563
930.058	12483
930.163	12289
930.267	12300
930.372	12448
930.477	12270
930.581	12395
930.685	12372
930.79	12197
930.894	12125
930.998	12186
931.103	12308
931.207	11882
931.311	11855
931.415	11748
931.519	11554
931.623	11566
