Data from test_V78500241_3387.txt Node
Date: Fri Mar 25 16:05:15 CST 2022
User: usil
Spectrometer: V785-0024
Trigger mode: 0
Integration Time (sec): 4.000000E-1
Scans to average: 1
Nonlinearity correction enabled: false
Boxcar width: 0
Storing dark spectrum: false
XAxis mode: Wavelengths
Number of Pixels in Spectrum: 1024
>>>>>Begin Spectral Data<<<<<
801.071	28523
801.214	28398
801.356	28314
801.499	28177
801.641	28150
801.783	28105
801.926	28093
802.068	28207
802.211	28090
802.353	27930
802.496	27914
802.638	27800
802.78	27770
802.923	27717
803.065	27641
803.208	27580
803.35	27797
803.492	28021
803.635	27994
803.777	27975
803.919	27956
804.061	28306
804.204	28090
804.346	27991
804.488	27926
804.63	27987
804.773	28188
804.915	28036
805.057	28090
805.199	28051
805.341	28059
805.483	28211
805.626	28257
805.768	28120
805.91	28090
806.052	28150
806.194	28162
806.336	28268
806.478	28010
806.62	28204
806.762	28226
806.904	28379
807.046	28713
807.188	28546
807.33	28694
807.472	28679
807.614	28630
807.756	28580
807.898	28447
808.04	28421
808.182	28375
808.324	28497
808.465	28485
808.607	28805
808.749	28740
808.891	28862
809.033	29044
809.174	28866
809.316	28752
809.458	28888
809.6	28729
809.741	29105
809.883	29010
810.025	29010
810.166	29083
810.308	28953
810.45	29113
810.591	28927
810.733	28919
810.875	28888
811.016	28763
811.158	28645
811.299	28812
811.441	28995
811.582	29064
811.724	28812
811.865	28729
812.007	28873
812.148	28862
812.29	28934
812.431	29006
812.573	29105
812.714	29193
812.855	29417
812.997	29478
813.138	29665
813.279	29448
813.421	29353
813.562	29258
813.703	29181
813.845	29064
813.986	28656
814.127	28615
814.268	28729
814.41	28603
814.551	28508
814.692	28577
814.833	28554
814.974	28474
815.115	28561
815.256	28474
815.397	28360
815.539	28462
815.68	28314
815.821	28219
815.962	28394
816.103	28314
816.244	28276
816.385	28090
816.526	28124
816.666	27892
816.807	27804
816.948	27998
817.089	27766
817.23	28029
817.371	27854
817.512	27865
817.653	27789
817.793	27842
817.934	27827
818.075	27895
818.216	27907
818.356	27819
818.497	27808
818.638	27549
818.778	27656
818.919	27648
819.06	27778
819.2	27778
819.341	27930
819.481	27941
819.622	28048
819.762	28188
819.903	28188
820.043	28070
820.184	27911
820.324	28051
820.465	28002
820.605	28010
820.746	27895
820.886	27869
821.026	27934
821.167	27930
821.307	28055
821.447	27934
821.588	27907
821.728	27633
821.868	27458
822.008	27443
822.149	27344
822.289	27233
822.429	27165
822.569	27062
822.709	26937
822.849	26887
822.99	26887
823.13	26758
823.27	26750
823.41	26689
823.55	26632
823.69	26663
823.83	26663
823.97	26507
824.11	26427
824.25	26575
824.389	26461
824.529	26575
824.669	26552
824.809	26606
824.949	26594
825.089	26594
825.228	26560
825.368	26324
825.508	26393
825.648	26317
825.787	26404
825.927	26469
826.067	26301
826.206	26393
826.346	26309
826.485	26476
826.625	26381
826.765	26526
826.904	26446
827.044	26233
827.183	26050
827.323	26020
827.462	26271
827.601	26096
827.741	26191
827.88	26096
828.02	25913
828.159	25947
828.298	26077
828.437	26157
828.577	26050
828.716	26252
828.855	26046
828.994	25753
829.134	25746
829.273	25868
829.412	25727
829.551	25693
829.69	25837
829.829	25704
829.968	25989
830.107	25906
830.246	25742
830.385	25685
830.524	25696
830.663	25693
830.802	25449
830.941	25449
831.08	25324
831.219	25472
831.357	25441
831.496	25590
831.635	25320
831.774	25255
831.913	25209
832.051	25247
832.19	25183
832.329	25312
832.467	25027
832.606	25114
832.744	24920
832.883	25069
833.022	24973
833.16	24962
833.299	25103
833.437	25175
833.576	25171
833.714	25050
833.852	25198
833.991	25175
834.129	25148
834.267	25270
834.406	25171
834.544	25076
834.682	25091
834.821	24973
834.959	25266
835.097	24996
835.235	25187
835.373	25114
835.511	25034
835.65	24951
835.788	24962
835.926	24833
836.064	24795
836.202	24840
836.34	24985
836.478	25050
836.615	24920
836.753	24970
836.891	25019
837.029	25061
837.167	24962
837.305	24882
837.443	24806
837.58	24738
837.718	24890
837.856	24814
837.993	24639
838.131	24772
838.269	24525
838.406	24612
838.544	24631
838.681	24467
838.819	24418
838.956	24152
839.094	24095
839.231	24213
839.369	24353
839.506	24745
839.643	24513
839.781	24171
839.918	24270
840.055	24262
840.193	24102
840.33	24292
840.467	24171
840.604	24201
840.742	24388
840.879	23996
841.016	23935
841.153	23946
841.29	24159
841.427	24125
841.564	24235
841.701	24121
841.838	23973
841.975	24163
842.112	23885
842.249	24049
842.385	23809
842.522	24110
842.659	24026
842.796	23870
842.933	24022
843.069	23927
843.206	23851
843.343	23927
843.479	23863
843.616	24022
843.752	23737
843.889	23657
844.025	23722
844.162	23577
844.298	23805
844.435	23741
844.571	23722
844.708	23672
844.844	23802
844.98	23874
845.117	23786
845.253	23665
845.389	23562
845.525	23516
845.661	23524
845.798	23452
845.934	23592
846.07	23379
846.206	23505
846.342	23531
846.478	23402
846.614	23269
846.75	23124
846.886	23105
847.022	23277
847.158	23155
847.294	23121
847.429	23212
847.565	23094
847.701	23421
847.837	22942
847.972	22816
848.108	22881
848.244	23010
848.379	22717
848.515	22687
848.65	22622
848.786	22729
848.921	22675
849.057	22736
849.192	22786
849.328	22748
849.463	22740
849.598	22736
849.734	22645
849.869	22596
850.004	22546
850.14	22618
850.275	22398
850.41	22413
850.545	22497
850.68	22527
850.815	22542
850.95	22599
851.085	22660
851.22	22626
851.355	22580
851.49	22500
851.625	22432
851.76	22516
851.895	22360
852.03	22303
852.165	22455
852.299	22497
852.434	22607
852.569	22470
852.703	22516
852.838	22497
852.973	22615
853.107	22645
853.242	22402
853.376	22303
853.511	22318
853.645	22322
853.78	22440
853.914	22318
854.048	22318
854.183	22417
854.317	22436
854.451	22603
854.585	22417
854.72	22306
854.854	22394
854.988	22329
855.122	22356
855.256	22173
855.39	22261
855.524	22322
855.658	22371
855.792	22291
855.926	22375
856.06	22287
856.194	22516
856.327	22253
856.461	22291
856.595	22402
856.729	22390
856.862	22512
856.996	22538
857.13	22424
857.263	22493
857.397	22489
857.53	22291
857.664	22360
857.797	22291
857.931	22455
858.064	22367
858.197	22474
858.331	22299
858.464	22284
858.597	22219
858.731	22086
858.864	22310
858.997	22333
859.13	22257
859.263	22375
859.396	22398
859.529	22421
859.662	22238
859.795	22310
859.928	22348
860.061	22409
860.194	22432
860.327	22478
860.46	22268
860.592	22451
860.725	22504
860.858	22466
860.99	22371
861.123	22360
861.256	22352
861.388	22207
861.521	23067
861.653	22139
861.786	22128
861.918	22181
862.05	22310
862.183	22356
862.315	22207
862.447	22310
862.58	22223
862.712	22169
862.844	21930
862.976	22120
863.108	22097
863.24	22493
863.372	21937
863.504	21983
863.636	22078
863.768	22051
863.9	22070
864.032	21979
864.164	21888
864.296	22105
864.428	22006
864.559	22070
864.691	22097
864.823	22150
864.954	21945
865.086	22036
865.217	21949
865.349	21854
865.48	21861
865.612	21876
865.743	22090
865.875	21857
866.006	21975
866.137	21854
866.269	21846
866.4	21892
866.531	21808
866.662	21880
866.793	21892
866.924	21899
867.055	21766
867.186	21975
867.317	21861
867.448	21774
867.579	21770
867.71	21762
867.841	21743
867.972	21759
868.103	21755
868.233	21838
868.364	21876
868.495	21991
868.625	22131
868.756	22211
868.886	22040
869.017	22070
869.147	22196
869.278	22135
869.408	22128
869.539	22109
869.669	22112
869.799	22181
869.929	22219
870.06	22188
870.19	22341
870.32	22512
870.45	22512
870.58	22527
870.71	22630
870.84	22542
870.97	22382
871.1	22474
871.23	22679
871.36	22805
871.489	22531
871.619	22675
871.749	22710
871.879	22771
872.008	22774
872.138	22736
872.267	22668
872.397	22656
872.526	22546
872.656	22561
872.785	22413
872.915	22717
873.044	22835
873.173	22778
873.303	22767
873.432	22790
873.561	22873
873.69	22763
873.819	22706
873.948	22782
874.077	22797
874.206	22637
874.335	22721
874.464	22904
874.593	22946
874.722	22862
874.851	22949
874.979	22976
875.108	22976
875.237	22930
875.365	22778
875.494	22961
875.623	22980
875.751	22824
875.88	22934
876.008	23086
876.136	23075
876.265	23376
876.393	23512
876.521	23360
876.65	23452
876.778	23356
876.906	23128
877.034	23345
877.162	23231
877.29	23121
877.418	23094
877.546	23318
877.674	23406
877.802	23376
877.93	23299
878.058	23391
878.185	23242
878.313	23216
878.441	23216
878.568	23105
878.696	23220
878.824	23353
878.951	23273
879.079	23512
879.206	23551
879.333	23531
879.461	23235
879.588	23318
879.715	23463
879.842	23528
879.97	23269
880.097	23094
880.224	23132
880.351	23060
880.478	23200
880.605	23086
880.732	23006
880.859	23181
880.986	23117
881.112	23048
881.239	22953
881.366	22740
881.493	22752
881.619	22588
881.746	22596
881.872	22740
881.999	22691
882.125	22580
882.252	22717
882.378	22645
882.505	22660
882.631	22322
882.757	22325
882.883	22352
883.01	22287
883.136	22348
883.262	22158
883.388	22204
883.514	22405
883.64	22405
883.766	22280
883.892	22135
884.018	22120
884.143	22394
884.269	22413
884.395	22029
884.52	21949
884.646	21930
884.772	21915
884.897	21766
885.023	22036
885.148	22086
885.274	22223
885.399	22090
885.524	21838
885.65	21979
885.775	21968
885.9	21823
886.025	22120
886.15	22055
886.275	21960
886.4	21854
886.525	21937
886.65	21888
886.775	22017
886.9	22002
887.025	22131
887.149	21953
887.274	21629
887.399	21701
887.523	21766
887.648	21728
887.773	21671
887.897	21865
888.021	21770
888.146	21698
888.27	21759
888.395	21747
888.519	21781
888.643	21800
888.767	21789
888.891	21526
889.015	21488
889.139	21553
889.263	21523
889.387	21568
889.511	21694
889.635	21614
889.759	21450
889.883	21530
890.006	21618
890.13	21568
890.254	21450
890.377	21504
890.501	21192
890.624	21336
890.748	21275
890.871	21260
890.995	21112
891.118	21020
891.241	21085
891.364	20986
891.488	21207
891.611	21066
891.734	21195
891.857	21058
891.98	21077
892.103	21112
892.226	21020
892.349	21100
892.471	20804
892.594	21009
892.717	20971
892.839	20838
892.962	20975
893.085	20929
893.207	20906
893.33	20868
893.452	20899
893.575	20960
893.697	20906
893.819	21085
893.941	21294
894.064	21127
894.186	20891
894.308	20750
894.43	20952
894.552	21131
894.674	21074
894.796	20781
894.918	20944
895.04	20883
895.161	21074
895.283	20967
895.405	20815
895.526	21009
895.648	20918
895.769	20994
895.891	20918
896.012	21028
896.134	20994
896.255	20861
896.376	20933
896.498	20842
896.619	20967
896.74	20914
896.861	20994
896.982	21298
897.103	21389
897.224	21195
897.345	21294
897.466	21077
897.587	21264
897.708	21260
897.828	21062
897.949	21104
898.07	20986
898.19	21104
898.311	21203
898.431	21161
898.552	21062
898.672	21237
898.792	21214
898.913	21195
899.033	21070
899.153	20994
899.273	20792
899.393	20895
899.513	20853
899.633	20857
899.753	20921
899.873	20853
899.993	20979
900.113	20773
900.232	20807
900.352	20674
900.472	20731
900.591	20609
900.711	20697
900.83	20564
900.95	20724
901.069	20739
901.189	20549
901.308	20309
901.427	20229
901.546	20263
901.665	20305
901.784	20221
901.904	20035
902.023	19925
902.141	19887
902.26	19727
902.379	19868
902.498	19727
902.617	19734
902.735	19746
902.854	19655
902.973	19715
903.091	19362
903.21	19400
903.328	19373
903.446	19308
903.565	19236
903.683	19255
903.801	19285
903.919	19301
904.038	19099
904.156	18962
904.274	19034
904.392	18947
904.51	18878
904.627	18886
904.745	19076
904.863	19008
904.981	18776
905.098	18585
905.216	18730
905.334	18726
905.451	18612
905.569	18589
905.686	18612
905.803	18585
905.921	18384
906.038	18547
906.155	18410
906.272	18285
906.389	18407
906.506	18030
906.623	18091
906.74	18110
906.857	18114
906.974	18038
907.091	18171
907.208	18239
907.324	18155
907.441	18026
907.557	17889
907.674	17912
907.79	17707
907.907	17836
908.023	17722
908.139	17783
908.256	17802
908.372	17707
908.488	17668
908.604	17577
908.72	17486
908.836	17554
908.952	17547
909.068	17493
909.184	17691
909.3	17486
909.415	17543
909.531	17463
909.647	17303
909.762	17318
909.878	17258
909.993	17376
910.108	17322
910.224	17227
910.339	17258
910.454	17174
910.57	17147
910.685	16946
910.8	17341
910.915	17216
911.03	16991
911.145	16831
911.259	16850
911.374	16850
911.489	16820
911.604	16721
911.718	16607
911.833	16630
911.947	16550
912.062	16398
912.176	16546
912.291	16645
912.405	16626
912.519	16717
912.633	16767
912.748	16626
912.862	16546
912.976	16390
913.09	16390
913.204	16306
913.318	16356
913.431	16542
913.545	16504
913.659	16413
913.772	16356
913.886	16188
914	16150
914.113	16268
914.226	16280
914.34	16272
914.453	16086
914.566	16268
914.68	15979
914.793	15998
914.906	15911
915.019	15823
915.132	15641
915.245	15793
915.358	15690
915.47	15762
915.583	15732
915.696	15720
915.809	15915
915.921	15899
916.034	15747
916.146	15717
916.259	15675
916.371	15637
916.483	15713
916.595	15618
916.708	15603
916.82	15644
916.932	15561
917.044	15652
917.156	15618
917.268	15294
917.38	15431
917.491	15424
917.603	15351
917.715	15454
917.826	15370
917.938	15329
918.049	15252
918.161	15393
918.272	15534
918.384	15466
918.495	15252
918.606	15173
918.717	15055
918.828	15218
918.939	15195
919.05	15017
919.161	15089
919.272	14933
919.383	14929
919.494	15199
919.604	15313
919.715	15062
919.826	15074
919.936	15127
920.047	15104
920.157	15009
920.267	15279
920.378	15104
920.488	15104
920.598	15317
920.708	15298
920.818	15199
920.928	15188
921.038	15351
921.148	15344
921.258	15093
921.368	14941
921.477	14899
921.587	14883
921.697	14663
921.806	14834
921.916	14651
922.025	14522
922.134	14400
922.244	14362
922.353	14552
922.462	14412
922.571	14248
922.68	14134
922.789	14183
922.898	14180
923.007	14054
923.116	14081
923.224	14092
923.333	14062
923.442	13887
923.55	13852
923.659	13944
923.767	14027
923.876	13841
923.984	13894
924.092	13769
924.201	13841
924.309	13928
924.417	13803
924.525	13643
924.633	13837
924.741	14731
924.849	13537
924.956	13666
925.064	13499
925.172	13491
925.279	13396
925.387	13476
925.494	13544
925.602	13540
925.709	13476
925.816	13297
925.924	13480
926.031	13499
926.138	13407
926.245	13403
926.352	13354
926.459	13362
926.566	13426
926.673	13327
926.779	13251
926.886	13221
926.993	13065
927.099	13126
927.206	12993
927.312	12863
927.419	13000
927.525	13019
927.631	13061
927.737	12878
927.843	12859
927.95	12741
928.056	12875
928.162	12776
928.267	12951
928.373	13373
928.479	12779
928.585	12620
928.69	12764
928.796	12829
928.901	12684
929.007	12513
929.112	12669
929.218	12604
929.323	12555
929.428	12547
929.533	12700
929.638	12483
929.743	12479
929.848	12582
929.953	12464
930.058	12311
930.163	12159
930.267	12201
930.372	12273
930.477	12266
930.581	12281
930.685	12209
930.79	12148
930.894	12209
930.998	12057
931.103	12140
931.207	11889
931.311	11775
931.415	11604
931.519	11512
931.623	11349
