Data from test_V78500241_1853.txt Node
Date: Fri Mar 25 15:54:38 CST 2022
User: usil
Spectrometer: V785-0024
Trigger mode: 0
Integration Time (sec): 4.000000E-1
Scans to average: 1
Nonlinearity correction enabled: false
Boxcar width: 0
Storing dark spectrum: false
XAxis mode: Wavelengths
Number of Pixels in Spectrum: 1024
>>>>>Begin Spectral Data<<<<<
801.071	28371
801.214	28303
801.356	28173
801.499	28082
801.641	27888
801.783	27949
801.926	27998
802.068	27914
802.211	27956
802.353	27854
802.496	27675
802.638	27576
802.78	27622
802.923	27629
803.065	27462
803.208	27473
803.35	27614
803.492	27736
803.635	27823
803.777	27789
803.919	27861
804.061	28147
804.204	27953
804.346	27838
804.488	27751
804.63	27953
804.773	27838
804.915	27914
805.057	28063
805.199	27838
805.341	27911
805.483	28147
805.626	28017
805.768	27907
805.91	28090
806.052	27994
806.194	27914
806.336	28299
806.478	28025
806.62	27926
806.762	28211
806.904	28451
807.046	28546
807.188	28303
807.33	28596
807.472	28763
807.614	28344
807.756	28466
807.898	28337
808.04	28337
808.182	28284
808.324	28181
808.465	28428
808.607	28474
808.749	28653
808.891	28782
809.033	28717
809.174	28782
809.316	28763
809.458	28725
809.6	28729
809.741	28778
809.883	28847
810.025	29052
810.166	29003
810.308	29083
810.45	28809
810.591	28854
810.733	28771
810.875	28816
811.016	28573
811.158	28580
811.299	28858
811.441	28904
811.582	28885
811.724	28645
811.865	28626
812.007	28675
812.148	28736
812.29	28752
812.431	28850
812.573	29060
812.714	29014
812.855	29170
812.997	29360
813.138	29303
813.279	29368
813.421	29162
813.562	29155
813.703	29098
813.845	28805
813.986	28729
814.127	28432
814.268	28356
814.41	28436
814.551	28299
814.692	28596
814.833	28413
814.974	28363
815.115	28287
815.256	28166
815.397	28249
815.539	28230
815.68	28257
815.821	28090
815.962	28204
816.103	28173
816.244	28166
816.385	27949
816.526	28032
816.666	27755
816.807	27808
816.948	27770
817.089	27739
817.23	27766
817.371	27648
817.512	27583
817.653	27690
817.793	27549
817.934	27591
818.075	27641
818.216	27698
818.356	27610
818.497	27568
818.638	27321
818.778	27401
818.919	27488
819.06	27450
819.2	27701
819.341	27762
819.481	27781
819.622	27876
819.762	27861
819.903	27934
820.043	27827
820.184	27918
820.324	27781
820.465	27880
820.605	27812
820.746	27945
820.886	27778
821.026	27831
821.167	27652
821.307	27827
821.447	27751
821.588	27625
821.728	27477
821.868	27214
822.008	27154
822.149	27329
822.289	27085
822.429	26895
822.569	26807
822.709	26861
822.849	26800
822.99	26796
823.13	26640
823.27	26640
823.41	26476
823.55	26404
823.69	26453
823.83	26507
823.97	26526
824.11	26218
824.25	26362
824.389	26381
824.529	26362
824.669	26339
824.809	26446
824.949	26343
825.089	26294
825.228	26343
825.368	26134
825.508	26202
825.648	26096
825.787	26263
825.927	26221
826.067	26221
826.206	26134
826.346	26183
826.485	26271
826.625	26248
826.765	26278
826.904	26153
827.044	26027
827.183	25982
827.323	25963
827.462	26073
827.601	26024
827.741	25761
827.88	26046
828.02	25818
828.159	25974
828.298	25795
828.437	25898
828.577	25784
828.716	26016
828.855	25864
828.994	25590
829.134	25620
829.273	25670
829.412	25639
829.551	25460
829.69	25757
829.829	25590
829.968	25571
830.107	25761
830.246	25563
830.385	25582
830.524	25506
830.663	25362
830.802	25289
830.941	25240
831.08	25122
831.219	25171
831.357	25301
831.496	25445
831.635	25228
831.774	25072
831.913	25099
832.051	25110
832.19	25023
832.329	24943
832.467	24939
832.606	24871
832.744	24806
832.883	24878
833.022	24844
833.16	24901
833.299	24886
833.437	24966
833.576	25008
833.714	24970
833.852	24909
833.991	24973
834.129	25076
834.267	25038
834.406	24973
834.544	24901
834.682	24977
834.821	25027
834.959	25027
835.097	24913
835.235	25072
835.373	24871
835.511	24951
835.65	24913
835.788	24875
835.926	24677
836.064	24681
836.202	24521
836.34	24734
836.478	24920
836.615	24768
836.753	24673
836.891	24795
837.029	24768
837.167	24661
837.305	24646
837.443	24631
837.58	24566
837.718	24601
837.856	24585
837.993	24502
838.131	24452
838.269	24426
838.406	24445
838.544	24433
838.681	24163
838.819	24201
838.956	24110
839.094	24083
839.231	24091
839.369	24327
839.506	24403
839.643	24330
839.781	24163
839.918	24072
840.055	24106
840.193	23965
840.33	23904
840.467	24114
840.604	24011
840.742	24205
840.879	23901
841.016	23828
841.153	23980
841.29	24076
841.427	24098
841.564	23999
841.701	23954
841.838	23927
841.975	23920
842.112	23927
842.249	23923
842.385	23775
842.522	23988
842.659	23817
842.796	23695
842.933	23684
843.069	23646
843.206	23691
843.343	23935
843.479	23680
843.616	23805
843.752	23577
843.889	23566
844.025	23676
844.162	23467
844.298	23623
844.435	23444
844.571	23448
844.708	23516
844.844	23668
844.98	23657
845.117	23554
845.253	23425
845.389	23368
845.525	23311
845.661	23318
845.798	23181
845.934	23334
846.07	23159
846.206	23299
846.342	23246
846.478	23269
846.614	22915
846.75	23010
846.886	22961
847.022	23044
847.158	23006
847.294	22984
847.429	23037
847.565	22877
847.701	23246
847.837	22702
847.972	22649
848.108	22793
848.244	22721
848.379	22721
848.515	22618
848.65	22577
848.786	22622
848.921	22580
849.057	22713
849.192	22634
849.328	22592
849.463	22527
849.598	22527
849.734	22382
849.869	22455
850.004	22284
850.14	22432
850.275	22375
850.41	22177
850.545	22337
850.68	22306
850.815	22337
850.95	22207
851.085	22470
851.22	22432
851.355	22394
851.49	22314
851.625	22188
851.76	22314
851.895	22162
852.03	22181
852.165	22405
852.299	22367
852.434	22356
852.569	22158
852.703	22306
852.838	22280
852.973	22557
853.107	22447
853.242	22219
853.376	22120
853.511	22067
853.645	22074
853.78	22223
853.914	21987
854.048	22082
854.183	22158
854.317	22154
854.451	22325
854.585	22086
854.72	22181
854.854	22166
854.988	21930
855.122	22154
855.256	22070
855.39	22090
855.524	22158
855.658	22211
855.792	22162
855.926	22131
856.06	22074
856.194	22242
856.327	22116
856.461	22109
856.595	22154
856.729	22105
856.862	22200
856.996	22207
857.13	22226
857.263	22196
857.397	22215
857.53	22074
857.664	22074
857.797	22139
857.931	22154
858.064	22135
858.197	22154
858.331	22150
858.464	22105
858.597	22017
858.731	22006
858.864	22040
858.997	22147
859.13	22086
859.263	22177
859.396	22215
859.529	22139
859.662	22234
859.795	22101
859.928	22070
860.061	22341
860.194	22409
860.327	22223
860.46	22185
860.592	22257
860.725	22253
860.858	22238
860.99	22055
861.123	21975
861.256	22097
861.388	22036
861.521	22812
861.653	21949
861.786	21983
861.918	22070
862.05	22070
862.183	21994
862.315	22013
862.447	22097
862.58	22032
862.712	21831
862.844	21762
862.976	21903
863.108	21922
863.24	22207
863.372	21812
863.504	21861
863.636	21968
863.768	21983
863.9	21903
864.032	21736
864.164	21751
864.296	21869
864.428	21953
864.559	21983
864.691	21827
864.823	21789
864.954	21766
865.086	21713
865.217	21831
865.349	21686
865.48	21789
865.612	21679
865.743	21838
865.875	21724
866.006	21648
866.137	21717
866.269	21698
866.4	21732
866.531	21694
866.662	21690
866.793	21633
866.924	21648
867.055	21690
867.186	21675
867.317	21637
867.448	21564
867.579	21564
867.71	21542
867.841	21534
867.972	21603
868.103	21778
868.233	21572
868.364	21667
868.495	21800
868.625	21922
868.756	22013
868.886	21759
869.017	21778
869.147	22021
869.278	21873
869.408	22013
869.539	21789
869.669	21907
869.799	21968
869.929	21983
870.06	21907
870.19	22109
870.32	22124
870.45	22192
870.58	22261
870.71	22303
870.84	22382
870.97	22390
871.1	22363
871.23	22402
871.36	22504
871.489	22436
871.619	22447
871.749	22390
871.879	22508
872.008	22497
872.138	22440
872.267	22512
872.397	22443
872.526	22333
872.656	22394
872.785	22455
872.915	22489
873.044	22607
873.173	22508
873.303	22523
873.432	22630
873.561	22546
873.69	22504
873.819	22489
873.948	22577
874.077	22550
874.206	22398
874.335	22474
874.464	22660
874.593	22771
874.722	22710
874.851	22698
874.979	22660
875.108	22790
875.237	22637
875.365	22424
875.494	22622
875.623	22725
875.751	22740
875.88	22843
876.008	22850
876.136	22923
876.265	23117
876.393	23204
876.521	23094
876.65	23090
876.778	23197
876.906	23204
877.034	23151
877.162	23048
877.29	22949
877.418	23056
877.546	23098
877.674	23010
877.802	23064
877.93	23064
878.058	23098
878.185	23029
878.313	23128
878.441	23067
878.568	22877
878.696	22923
878.824	23029
878.951	23277
879.079	23159
879.206	23345
879.333	23261
879.461	23075
879.588	23098
879.715	23265
879.842	23277
879.97	23162
880.097	22919
880.224	22961
880.351	22881
880.478	22877
880.605	22938
880.732	22957
880.859	23185
880.986	22835
881.112	22908
881.239	22706
881.366	22668
881.493	22580
881.619	22390
881.746	22554
881.872	22474
881.999	22379
882.125	22299
882.252	22409
882.378	22451
882.505	22592
882.631	22333
882.757	22124
882.883	22314
883.01	22188
883.136	22063
883.262	21987
883.388	21975
883.514	22226
883.64	22211
883.766	22048
883.892	21895
884.018	21983
884.143	22010
884.269	22109
884.395	21850
884.52	21717
884.646	21732
884.772	21701
884.897	21561
885.023	21747
885.148	21804
885.274	21903
885.399	21960
885.524	21823
885.65	21717
885.775	21835
885.9	21690
886.025	21861
886.15	21827
886.275	21671
886.4	21743
886.525	21774
886.65	21671
886.775	21686
886.9	21892
887.025	21884
887.149	21755
887.274	21545
887.399	21656
887.523	21515
887.648	21329
887.773	21420
887.897	21637
888.021	21568
888.146	21454
888.27	21568
888.395	21568
888.519	21488
888.643	21595
888.767	21606
888.891	21370
889.015	21260
889.139	21332
889.263	21264
889.387	21416
889.511	21435
889.635	21545
889.759	21351
889.883	21329
890.006	21435
890.13	21401
890.254	21165
890.377	21252
890.501	21074
890.624	20967
890.748	21184
890.871	21017
890.995	20906
891.118	20895
891.241	20811
891.364	20807
891.488	20929
891.611	20785
891.734	20861
891.857	20910
891.98	20971
892.103	21017
892.226	20963
892.349	20830
892.471	20693
892.594	20769
892.717	20655
892.839	20758
892.962	20769
893.085	20777
893.207	20796
893.33	20708
893.452	20678
893.575	20857
893.697	20689
893.819	20906
893.941	20948
894.064	20788
894.186	20674
894.308	20693
894.43	20823
894.552	20918
894.674	20876
894.796	20754
894.918	20735
895.04	20716
895.161	20826
895.283	20807
895.405	20708
895.526	20746
895.648	20819
895.769	20731
895.891	20765
896.012	20746
896.134	20800
896.255	20781
896.376	20708
896.498	20724
896.619	20864
896.74	20796
896.861	20750
896.982	21127
897.103	21135
897.224	21051
897.345	21043
897.466	21039
897.587	20982
897.708	20986
897.828	20967
897.949	20872
898.07	20792
898.19	20853
898.311	20956
898.431	20918
898.552	20933
898.672	21131
898.792	21043
898.913	20994
899.033	20967
899.153	20739
899.273	20686
899.393	20765
899.513	20590
899.633	20701
899.753	20678
899.873	20583
899.993	20663
900.113	20629
900.232	20640
900.352	20602
900.472	20530
900.591	20412
900.711	20556
900.83	20492
900.95	20469
901.069	20530
901.189	20362
901.308	20138
901.427	20145
901.546	20054
901.665	20058
901.784	20107
901.904	19932
902.023	19887
902.141	19632
902.26	19613
902.379	19597
902.498	19544
902.617	19548
902.735	19544
902.854	19620
902.973	19384
903.091	19251
903.21	19259
903.328	19179
903.446	19183
903.565	19000
903.683	18981
903.801	18920
903.919	18951
904.038	18943
904.156	18802
904.274	18817
904.392	18734
904.51	18734
904.627	18764
904.745	18886
904.863	18916
904.981	18513
905.098	18433
905.216	18506
905.334	18433
905.451	18418
905.569	18391
905.686	18494
905.803	18502
905.921	18129
906.038	18308
906.155	18281
906.272	18155
906.389	18091
906.506	18045
906.623	17984
906.74	18038
906.857	17950
906.974	17935
907.091	17996
907.208	18117
907.324	18015
907.441	17855
907.557	17726
907.674	17695
907.79	17668
907.907	17532
908.023	17642
908.139	17646
908.256	17665
908.372	17600
908.488	17573
908.604	17463
908.72	17364
908.836	17459
908.952	17296
909.068	17482
909.184	17524
909.3	17337
909.415	17448
909.531	17440
909.647	17132
909.762	17109
909.878	17041
909.993	17090
910.108	17056
910.224	17079
910.339	17067
910.454	16938
910.57	16927
910.685	16820
910.8	17151
910.915	17166
911.03	16957
911.145	16824
911.259	16740
911.374	16615
911.489	16596
911.604	16493
911.718	16485
911.833	16428
911.947	16261
912.062	16265
912.176	16371
912.291	16379
912.405	16352
912.519	16603
912.633	16622
912.748	16421
912.862	16394
912.976	16219
913.09	16143
913.204	16135
913.318	16238
913.431	16291
913.545	16272
913.659	16421
913.772	16128
913.886	16017
914	16017
914.113	16067
914.226	16086
914.34	16059
914.453	15892
914.566	16097
914.68	15880
914.793	15903
914.906	15778
915.019	15625
915.132	15523
915.245	15671
915.358	15595
915.47	15660
915.583	15618
915.696	15663
915.809	15690
915.921	15732
916.034	15492
916.146	15545
916.259	15534
916.371	15603
916.483	15599
916.595	15485
916.708	15386
916.82	15401
916.932	15374
917.044	15397
917.156	15302
917.268	15283
917.38	15302
917.491	15154
917.603	15195
917.715	15313
917.826	15321
917.938	15142
918.049	15146
918.161	15173
918.272	15363
918.384	15321
918.495	15161
918.606	14982
918.717	15001
918.828	14979
918.939	14982
919.05	14868
919.161	15020
919.272	14781
919.383	14815
919.494	14944
919.604	15245
919.715	14826
919.826	14872
919.936	14895
920.047	15013
920.157	14933
920.267	15119
920.378	15058
920.488	14925
920.598	15100
920.708	15241
920.818	15097
920.928	15051
921.038	15173
921.148	15180
921.258	14868
921.368	14849
921.477	14621
921.587	14750
921.697	14499
921.806	14769
921.916	14530
922.025	14434
922.134	14351
922.244	14313
922.353	14351
922.462	14111
922.571	14202
922.68	14005
922.789	14031
922.898	13921
923.007	13936
923.116	14046
923.224	13944
923.333	13849
923.442	13852
923.55	13712
923.659	13795
923.767	13875
923.876	13734
923.984	13807
924.092	13632
924.201	13734
924.309	13647
924.417	13609
924.525	13666
924.633	13651
924.741	14385
924.849	13449
924.956	13556
925.064	13400
925.172	13335
925.279	13369
925.387	13384
925.494	13278
925.602	13499
925.709	13400
925.816	13247
925.924	13228
926.031	13415
926.138	13301
926.245	13354
926.352	13187
926.459	13285
926.566	13293
926.673	13225
926.779	13118
926.886	13050
926.993	13004
927.099	12935
927.206	12943
927.312	12901
927.419	12913
927.525	12886
927.631	12840
927.737	12791
927.843	12741
927.95	12753
928.056	12700
928.162	12768
928.267	12783
928.373	13438
928.479	12817
928.585	12521
928.69	12722
928.796	12620
928.901	12681
929.007	12456
929.112	12563
929.218	12585
929.323	12460
929.428	12357
929.533	12555
929.638	12361
929.743	12357
929.848	12483
929.953	12388
930.058	12235
930.163	12155
930.267	12155
930.372	12220
930.477	12041
930.581	12281
930.685	12133
930.79	11965
930.894	12015
930.998	11988
931.103	12114
931.207	11748
931.311	11615
931.415	11596
931.519	11353
931.623	11273
