Data from test_V78500241_2003.txt Node
Date: Fri Mar 25 15:55:40 CST 2022
User: usil
Spectrometer: V785-0024
Trigger mode: 0
Integration Time (sec): 4.000000E-1
Scans to average: 1
Nonlinearity correction enabled: false
Boxcar width: 0
Storing dark spectrum: false
XAxis mode: Wavelengths
Number of Pixels in Spectrum: 1024
>>>>>Begin Spectral Data<<<<<
801.071	28733
801.214	28824
801.356	28455
801.499	28360
801.641	28284
801.783	28451
801.926	28306
802.068	28272
802.211	28181
802.353	28204
802.496	28109
802.638	28135
802.78	28116
802.923	27914
803.065	27797
803.208	27968
803.35	28150
803.492	28154
803.635	28139
803.777	28147
803.919	28272
804.061	28603
804.204	28280
804.346	28158
804.488	28169
804.63	28261
804.773	28135
804.915	28303
805.057	28284
805.199	28215
805.341	28261
805.483	28329
805.626	28390
805.768	28470
805.91	28394
806.052	28481
806.194	28268
806.336	28694
806.478	28371
806.62	28348
806.762	28451
806.904	28645
807.046	28972
807.188	28801
807.33	28854
807.472	29006
807.614	28877
807.756	28858
807.898	28759
808.04	28531
808.182	28611
808.324	28694
808.465	28759
808.607	29029
808.749	29083
808.891	29151
809.033	29269
809.174	29113
809.316	29056
809.458	29113
809.6	29079
809.741	29162
809.883	29170
810.025	29406
810.166	29395
810.308	29379
810.45	29250
810.591	29337
810.733	29124
810.875	29189
811.016	29117
811.158	28946
811.299	29094
811.441	29231
811.582	29307
811.724	29117
811.865	29090
812.007	29159
812.148	29212
812.29	29185
812.431	29318
812.573	29372
812.714	29589
812.855	29745
812.997	29714
813.138	29969
813.279	29775
813.421	29672
813.562	29551
813.703	29539
813.845	29162
813.986	29220
814.127	28961
814.268	28843
814.41	28923
814.551	28809
814.692	28900
814.833	28778
814.974	28797
815.115	28850
815.256	28698
815.397	28637
815.539	28717
815.68	28668
815.821	28478
815.962	28748
816.103	28721
816.244	28516
816.385	28493
816.526	28344
816.666	28284
816.807	28120
816.948	28356
817.089	28196
817.23	28253
817.371	28017
817.512	28059
817.653	28124
817.793	27991
817.934	28048
818.075	28082
818.216	28048
818.356	28162
818.497	27914
818.638	27766
818.778	27793
818.919	27937
819.06	27789
819.2	28036
819.341	28067
819.481	28162
819.622	28322
819.762	28428
819.903	28489
820.043	28284
820.184	28306
820.324	28291
820.465	28310
820.605	28295
820.746	28215
820.886	28192
821.026	28242
821.167	28287
821.307	28246
821.447	28147
821.588	27922
821.728	27953
821.868	27743
822.008	27663
822.149	27675
822.289	27583
822.429	27393
822.569	27241
822.709	27203
822.849	27272
822.99	27195
823.13	27093
823.27	27028
823.41	27013
823.55	26902
823.69	27066
823.83	26990
823.97	27062
824.11	26735
824.25	26682
824.389	26754
824.529	26765
824.669	26773
824.809	26929
824.949	27013
825.089	27005
825.228	26731
825.368	26640
825.508	26613
825.648	26609
825.787	26686
825.927	26651
826.067	26701
826.206	26674
826.346	26693
826.485	26720
826.625	26686
826.765	26769
826.904	26663
827.044	26434
827.183	26518
827.323	26423
827.462	26556
827.601	26465
827.741	26404
827.88	26495
828.02	26221
828.159	26381
828.298	26476
828.437	26419
828.577	26309
828.716	26495
828.855	26415
828.994	26153
829.134	26016
829.273	26077
829.412	26058
829.551	26142
829.69	26183
829.829	26130
829.968	26115
830.107	26183
830.246	26008
830.385	25989
830.524	25978
830.663	25849
830.802	25822
830.941	25712
831.08	25772
831.219	25670
831.357	25769
831.496	25932
831.635	25674
831.774	25746
831.913	25613
832.051	25521
832.19	25479
832.329	25464
832.467	25438
832.606	25297
832.744	25343
832.883	25331
833.022	25350
833.16	25381
833.299	25350
833.437	25487
833.576	25552
833.714	25331
833.852	25430
833.991	25537
834.129	25594
834.267	25438
834.406	25285
834.544	25563
834.682	25460
834.821	25438
834.959	25616
835.097	25483
835.235	25419
835.373	25324
835.511	25411
835.65	25312
835.788	25270
835.926	25133
836.064	25015
836.202	25000
836.34	25259
836.478	25392
836.615	25255
836.753	25217
836.891	25293
837.029	25202
837.167	25122
837.305	25148
837.443	25160
837.58	25027
837.718	25164
837.856	25129
837.993	25012
838.131	24966
838.269	24821
838.406	25148
838.544	24806
838.681	24741
838.819	24734
838.956	24604
839.094	24570
839.231	24665
839.369	24654
839.506	24996
839.643	24829
839.781	24505
839.918	24593
840.055	24471
840.193	24551
840.33	24486
840.467	24422
840.604	24513
840.742	24711
840.879	24464
841.016	24281
841.153	24395
841.29	24570
841.427	24289
841.564	24486
841.701	24388
841.838	24300
841.975	24395
842.112	24403
842.249	24258
842.385	24136
842.522	24426
842.659	24319
842.796	24144
842.933	24220
843.069	24251
843.206	24136
843.343	24319
843.479	24216
843.616	24144
843.752	23984
843.889	24064
844.025	24171
844.162	23980
844.298	24011
844.435	24079
844.571	23958
844.708	23942
844.844	24201
844.98	24053
845.117	24148
845.253	23977
845.389	23798
845.525	23889
845.661	23783
845.798	23824
845.934	23752
846.07	23680
846.206	23710
846.342	23832
846.478	23623
846.614	23486
846.75	23292
846.886	23296
847.022	23608
847.158	23406
847.294	23455
847.429	23497
847.565	23341
847.701	23619
847.837	23143
847.972	23086
848.108	23239
848.244	23242
848.379	23029
848.515	23052
848.65	23010
848.786	22980
848.921	23010
849.057	23185
849.192	23044
849.328	23048
849.463	23018
849.598	22858
849.734	22843
849.869	22930
850.004	22793
850.14	22824
850.275	22736
850.41	22717
850.545	22805
850.68	22683
850.815	22801
850.95	22816
851.085	22854
851.22	22854
851.355	22835
851.49	22805
851.625	22797
851.76	22725
851.895	22736
852.03	22782
852.165	22649
852.299	22828
852.434	22885
852.569	22774
852.703	22809
852.838	22850
852.973	22892
853.107	22889
853.242	22797
853.376	22637
853.511	22451
853.645	22672
853.78	22748
853.914	22717
854.048	22573
854.183	22664
854.317	22565
854.451	22805
854.585	22554
854.72	22569
854.854	22603
854.988	22451
855.122	22546
855.256	22519
855.39	22584
855.524	22626
855.658	22687
855.792	22588
855.926	22687
856.06	22691
856.194	22763
856.327	22618
856.461	22531
856.595	22519
856.729	22588
856.862	22744
856.996	22626
857.13	22618
857.263	22729
857.397	22645
857.53	22649
857.664	22588
857.797	22649
857.931	22733
858.064	22656
858.197	22664
858.331	22584
858.464	22497
858.597	22466
858.731	22462
858.864	22535
858.997	22531
859.13	22538
859.263	22538
859.396	22493
859.529	22603
859.662	22554
859.795	22504
859.928	22561
860.061	22687
860.194	22793
860.327	22733
860.46	22618
860.592	22755
860.725	22672
860.858	22694
860.99	22413
861.123	22462
861.256	22554
861.388	22546
861.521	23360
861.653	22405
861.786	22303
861.918	22318
862.05	22382
862.183	22580
862.315	22531
862.447	22645
862.58	22538
862.712	22291
862.844	22322
862.976	22390
863.108	22371
863.24	22713
863.372	22154
863.504	22200
863.636	22356
863.768	22318
863.9	22219
864.032	22280
864.164	22219
864.296	22367
864.428	22371
864.559	22356
864.691	22341
864.823	22249
864.954	22112
865.086	22348
865.217	22188
865.349	22025
865.48	22109
865.612	22192
865.743	22295
865.875	22169
866.006	22105
866.137	22234
866.269	22219
866.4	22116
866.531	22158
866.662	22040
866.793	22070
866.924	22074
867.055	22162
867.186	22090
867.317	22173
867.448	21865
867.579	22120
867.71	22070
867.841	22036
867.972	22192
868.103	22029
868.233	22116
868.364	22120
868.495	22211
868.625	22284
868.756	22466
868.886	22242
869.017	22295
869.147	22485
869.278	22402
869.408	22379
869.539	22333
869.669	22485
869.799	22413
869.929	22542
870.06	22459
870.19	22634
870.32	22432
870.45	22672
870.58	22767
870.71	22615
870.84	22793
870.97	22782
871.1	22828
871.23	22949
871.36	22911
871.489	22805
871.619	23029
871.749	22949
871.879	22946
872.008	23098
872.138	22900
872.267	23048
872.397	22919
872.526	22843
872.656	22862
872.785	22748
872.915	22812
873.044	23067
873.173	22847
873.303	23086
873.432	23109
873.561	23048
873.69	23003
873.819	22938
873.948	23060
874.077	22984
874.206	22942
874.335	22923
874.464	23029
874.593	23170
874.722	23025
874.851	23212
874.979	23113
875.108	23204
875.237	23162
875.365	23086
875.494	23147
875.623	23235
875.751	23079
875.88	23071
876.008	23337
876.136	23379
876.265	23531
876.393	23760
876.521	23562
876.65	23657
876.778	23680
876.906	23585
877.034	23486
877.162	23509
877.29	23493
877.418	23524
877.546	23531
877.674	23482
877.802	23524
877.93	23448
878.058	23452
878.185	23417
878.313	23364
878.441	23467
878.568	23265
878.696	23448
878.824	23459
878.951	23486
879.079	23577
879.206	23901
879.333	23551
879.461	23512
879.588	23642
879.715	23737
879.842	23980
879.97	23490
880.097	23429
880.224	23307
880.351	23341
880.478	23372
880.605	23212
880.732	23364
880.859	23646
880.986	23269
881.112	23376
881.239	23242
881.366	23094
881.493	22949
881.619	22847
881.746	22877
881.872	22965
881.999	22816
882.125	22847
882.252	22843
882.378	22797
882.505	22961
882.631	22694
882.757	22603
882.883	22607
883.01	22538
883.136	22546
883.262	22360
883.388	22390
883.514	22489
883.64	22577
883.766	22367
883.892	22352
884.018	22386
884.143	22363
884.269	22577
884.395	22234
884.52	22166
884.646	22223
884.772	22139
884.897	22109
885.023	22044
885.148	22379
885.274	22226
885.399	22314
885.524	22169
885.65	22242
885.775	22185
885.9	22154
886.025	22318
886.15	22188
886.275	22219
886.4	22261
886.525	22070
886.65	22040
886.775	22105
886.9	22303
887.025	22462
887.149	22200
887.274	22090
887.399	21903
887.523	21956
887.648	21823
887.773	22013
887.897	22097
888.021	22025
888.146	21888
888.27	22086
888.395	22013
888.519	22017
888.643	22070
888.767	22078
888.891	21804
889.015	21800
889.139	21755
889.263	21713
889.387	21888
889.511	21884
889.635	21880
889.759	21690
889.883	21690
890.006	21701
890.13	21781
890.254	21656
890.377	21545
890.501	21507
890.624	21458
890.748	21462
890.871	21431
890.995	21264
891.118	21268
891.241	21351
891.364	21340
891.488	21389
891.611	21272
891.734	21283
891.857	21329
891.98	21310
892.103	21321
892.226	21195
892.349	21207
892.471	21051
892.594	21211
892.717	21203
892.839	21203
892.962	21165
893.085	21279
893.207	21077
893.33	21066
893.452	21127
893.575	21127
893.697	21218
893.819	21317
893.941	21363
894.064	21211
894.186	21161
894.308	21001
894.43	21169
894.552	21294
894.674	21340
894.796	21032
894.918	21104
895.04	21032
895.161	21146
895.283	21169
895.405	21199
895.526	21154
895.648	21104
895.769	21207
895.891	21222
896.012	21241
896.134	21077
896.255	21062
896.376	21070
896.498	21100
896.619	21135
896.74	21070
896.861	21226
896.982	21416
897.103	21545
897.224	21431
897.345	21329
897.466	21374
897.587	21325
897.708	21458
897.828	21386
897.949	21329
898.07	21176
898.19	21195
898.311	21435
898.431	21226
898.552	21233
898.672	21370
898.792	21393
898.913	21340
899.033	21230
899.153	21260
899.273	21001
899.393	21036
899.513	21135
899.633	21157
899.753	21100
899.873	21009
899.993	21127
900.113	21032
900.232	20971
900.352	20845
900.472	20838
900.591	20849
900.711	20830
900.83	20629
900.95	20845
901.069	20956
901.189	20758
901.308	20552
901.427	20252
901.546	20465
901.665	20362
901.784	20381
901.904	20271
902.023	20142
902.141	20145
902.26	19997
902.379	20073
902.498	19826
902.617	19887
902.735	19951
902.854	19887
902.973	19715
903.091	19544
903.21	19605
903.328	19506
903.446	19438
903.565	19434
903.683	19362
903.801	19274
903.919	19377
904.038	19255
904.156	19141
904.274	19270
904.392	19202
904.51	19050
904.627	19168
904.745	19042
904.863	19053
904.981	18943
905.098	18802
905.216	18791
905.334	18840
905.451	18764
905.569	18779
905.686	18749
905.803	18802
905.921	18631
906.038	18654
906.155	18452
906.272	18563
906.389	18566
906.506	18353
906.623	18414
906.74	18262
906.857	18144
906.974	18167
907.091	18407
907.208	18441
907.324	18376
907.441	18129
907.557	18064
907.674	18083
907.79	17923
907.907	17999
908.023	17946
908.139	18030
908.256	17843
908.372	17927
908.488	17927
908.604	17771
908.72	17714
908.836	17783
908.952	17634
909.068	17703
909.184	17855
909.3	17684
909.415	17847
909.531	17653
909.647	17414
909.762	17372
909.878	17444
909.993	17440
910.108	17364
910.224	17353
910.339	17444
910.454	17181
910.57	17311
910.685	17136
910.8	17509
910.915	17383
911.03	17284
911.145	17025
911.259	17018
911.374	17029
911.489	16934
911.604	16824
911.718	16759
911.833	16755
911.947	16679
912.062	16641
912.176	16672
912.291	16740
912.405	16740
912.519	16934
912.633	16877
912.748	16736
912.862	16782
912.976	16622
913.09	16371
913.204	16504
913.318	16527
913.431	16523
913.545	16592
913.659	16535
913.772	16596
913.886	16413
914	16356
914.113	16379
914.226	16580
914.34	16280
914.453	16200
914.566	16337
914.68	16082
914.793	16192
914.906	15956
915.019	15907
915.132	15861
915.245	15953
915.358	16021
915.47	15857
915.583	15888
915.696	15953
915.809	15975
915.921	16082
916.034	15842
916.146	15812
916.259	15838
916.371	15861
916.483	15907
916.595	15766
916.708	15808
916.82	15762
916.932	15519
917.044	15660
917.156	15633
917.268	15538
917.38	15587
917.491	15572
917.603	15584
917.715	15713
917.826	15599
917.938	15454
918.049	15428
918.161	15458
918.272	15629
918.384	15671
918.495	15587
918.606	15222
918.717	15317
918.828	15272
918.939	15389
919.05	15214
919.161	15256
919.272	15020
919.383	15066
919.494	15188
919.604	15454
919.715	15283
919.826	15116
919.936	15226
920.047	15279
920.157	15180
920.267	15469
920.378	15233
920.488	15207
920.598	15313
920.708	15519
920.818	15363
920.928	15302
921.038	15431
921.148	15431
921.258	15138
921.368	15070
921.477	14963
921.587	15017
921.697	14902
921.806	14967
921.916	14746
922.025	14648
922.134	14598
922.244	14450
922.353	14617
922.462	14434
922.571	14415
922.68	14286
922.789	14275
922.898	14271
923.007	14180
923.116	14294
923.224	14187
923.333	14153
923.442	14096
923.55	14054
923.659	14077
923.767	14256
923.876	14031
923.984	14024
924.092	13963
924.201	13978
924.309	13982
924.417	13890
924.525	13913
924.633	13791
924.741	14644
924.849	13784
924.956	13761
925.064	13571
925.172	13563
925.279	13575
925.387	13578
925.494	13609
925.602	13769
925.709	13658
925.816	13567
925.924	13590
926.031	13597
926.138	13525
926.245	13525
926.352	13430
926.459	13521
926.566	13601
926.673	13449
926.779	13350
926.886	13350
926.993	13247
927.099	13149
927.206	13019
927.312	13057
927.419	13202
927.525	13175
927.631	13206
927.737	13118
927.843	12958
927.95	12844
928.056	12966
928.162	12981
928.267	13012
928.373	13525
928.479	13080
928.585	12806
928.69	12909
928.796	12886
928.901	12871
929.007	12650
929.112	12783
929.218	12707
929.323	12665
929.428	12662
929.533	12711
929.638	12532
929.743	12654
929.848	12582
929.953	12631
930.058	12502
930.163	12308
930.267	12296
930.372	12437
930.477	12361
930.581	12559
930.685	12403
930.79	12239
930.894	12125
930.998	12155
931.103	12235
931.207	11961
931.311	11920
931.415	11859
931.519	11604
931.623	11577
