Data from test_V78500241_2748.txt Node
Date: Fri Mar 25 16:00:50 CST 2022
User: usil
Spectrometer: V785-0024
Trigger mode: 0
Integration Time (sec): 4.000000E-1
Scans to average: 1
Nonlinearity correction enabled: false
Boxcar width: 0
Storing dark spectrum: false
XAxis mode: Wavelengths
Number of Pixels in Spectrum: 1024
>>>>>Begin Spectral Data<<<<<
801.071	28607
801.214	28561
801.356	28188
801.499	28211
801.641	28196
801.783	28128
801.926	28154
802.068	28116
802.211	28196
802.353	28029
802.496	27926
802.638	27842
802.78	27884
802.923	27759
803.065	27759
803.208	27781
803.35	27785
803.492	27892
803.635	28120
803.777	27960
803.919	28059
804.061	28367
804.204	28147
804.346	28021
804.488	28006
804.63	28105
804.773	27934
804.915	28059
805.057	28196
805.199	28128
805.341	28223
805.483	28333
805.626	28242
805.768	28325
805.91	28310
806.052	28219
806.194	28246
806.336	28546
806.478	28310
806.62	28131
806.762	28382
806.904	28535
807.046	28839
807.188	28786
807.33	28828
807.472	28843
807.614	28660
807.756	28698
807.898	28618
808.04	28557
808.182	28535
808.324	28489
808.465	28592
808.607	28755
808.749	28968
808.891	29079
809.033	29197
809.174	29022
809.316	28885
809.458	28942
809.6	28896
809.741	28919
809.883	29102
810.025	29200
810.166	29296
810.308	29246
810.45	29113
810.591	29143
810.733	29010
810.875	28850
811.016	28930
811.158	28843
811.299	28987
811.441	29128
811.582	29185
811.724	29003
811.865	28873
812.007	28938
812.148	29041
812.29	29025
812.431	29159
812.573	29254
812.714	29280
812.855	29486
812.997	29604
813.138	29737
813.279	29600
813.421	29299
813.562	29463
813.703	29368
813.845	29090
813.986	28828
814.127	28824
814.268	28668
814.41	28660
814.551	28634
814.692	28584
814.833	28584
814.974	28615
815.115	28740
815.256	28577
815.397	28561
815.539	28546
815.68	28584
815.821	28367
815.962	28512
816.103	28432
816.244	28329
816.385	28257
816.526	28261
816.666	28070
816.807	27899
816.948	28040
817.089	28074
817.23	28036
817.371	27876
817.512	27857
817.653	27941
817.793	27914
817.934	27884
818.075	28090
818.216	27884
818.356	27914
818.497	27789
818.638	27701
818.778	27663
818.919	27660
819.06	27778
819.2	27892
819.341	28055
819.481	27998
819.622	28120
819.762	28257
819.903	28158
820.043	28147
820.184	28070
820.324	28116
820.465	28143
820.605	28158
820.746	28032
820.886	28067
821.026	28093
821.167	27987
821.307	28013
821.447	27998
821.588	28006
821.728	27652
821.868	27526
822.008	27389
822.149	27412
822.289	27412
822.429	27245
822.569	27043
822.709	27116
822.849	26910
822.99	27009
823.13	26914
823.27	26906
823.41	26788
823.55	26678
823.69	26781
823.83	26819
823.97	26815
824.11	26598
824.25	26537
824.389	26549
824.529	26708
824.669	26583
824.809	26708
824.949	26765
825.089	26697
825.228	26667
825.368	26419
825.508	26575
825.648	26465
825.787	26518
825.927	26476
826.067	26396
826.206	26575
826.346	26450
826.485	26648
826.625	26381
826.765	26625
826.904	26446
827.044	26180
827.183	26278
827.323	26081
827.462	26362
827.601	26214
827.741	26161
827.88	26252
828.02	26225
828.159	26176
828.298	26180
828.437	26107
828.577	26237
828.716	26267
828.855	25932
828.994	25947
829.134	25818
829.273	25963
829.412	25849
829.551	25864
829.69	25921
829.829	26008
829.968	25951
830.107	26065
830.246	25963
830.385	25776
830.524	25696
830.663	25731
830.802	25597
830.941	25483
831.08	25521
831.219	25415
831.357	25586
831.496	25624
831.635	25479
831.774	25354
831.913	25426
832.051	25350
832.19	25244
832.329	25225
832.467	25126
832.606	25129
832.744	25225
832.883	25031
833.022	25110
833.16	25114
833.299	25244
833.437	25316
833.576	25293
833.714	25263
833.852	25236
833.991	25137
834.129	25285
834.267	25312
834.406	25225
834.544	25206
834.682	25259
834.821	25206
834.959	25381
835.097	25194
835.235	25282
835.373	25263
835.511	25164
835.65	25057
835.788	25038
835.926	24951
836.064	24901
836.202	24772
836.34	25088
836.478	25282
836.615	25004
836.753	25103
836.891	25107
837.029	25046
837.167	24935
837.305	24837
837.443	24825
837.58	24798
837.718	24905
837.856	24981
837.993	24776
838.131	24802
838.269	24757
838.406	24837
838.544	24707
838.681	24540
838.819	24460
838.956	24403
839.094	24311
839.231	24407
839.369	24471
839.506	24726
839.643	24692
839.781	24247
839.918	24304
840.055	24448
840.193	24182
840.33	24220
840.467	24304
840.604	24357
840.742	24490
840.879	24171
841.016	24041
841.153	24155
841.29	24391
841.427	24209
841.564	24201
841.701	24281
841.838	24311
841.975	24194
842.112	24273
842.249	24053
842.385	24087
842.522	24350
842.659	24076
842.796	24102
842.933	23950
843.069	24045
843.206	23942
843.343	24030
843.479	23969
843.616	24045
843.752	23824
843.889	23836
844.025	23912
844.162	23779
844.298	23882
844.435	23691
844.571	23672
844.708	23863
844.844	23950
844.98	23821
845.117	23965
845.253	23764
845.389	23596
845.525	23710
845.661	23668
845.798	23539
845.934	23554
846.07	23520
846.206	23463
846.342	23611
846.478	23459
846.614	23261
846.75	23143
846.886	23189
847.022	23204
847.158	23261
847.294	23410
847.429	23273
847.565	23079
847.701	23337
847.837	22934
847.972	22957
848.108	22885
848.244	22938
848.379	22957
848.515	22725
848.65	22923
848.786	22877
848.921	22835
849.057	22900
849.192	22957
849.328	22858
849.463	22869
849.598	22908
849.734	22698
849.869	22656
850.004	22649
850.14	22493
850.275	22656
850.41	22497
850.545	22565
850.68	22523
850.815	22744
850.95	22577
851.085	22790
851.22	22729
851.355	22672
851.49	22557
851.625	22523
851.76	22592
851.895	22561
852.03	22542
852.165	22421
852.299	22736
852.434	22626
852.569	22668
852.703	22500
852.838	22622
852.973	22717
853.107	22740
853.242	22493
853.376	22409
853.511	22280
853.645	22325
853.78	22466
853.914	22394
854.048	22363
854.183	22462
854.317	22371
854.451	22607
854.585	22402
854.72	22386
854.854	22519
854.988	22386
855.122	22363
855.256	22223
855.39	22333
855.524	22432
855.658	22527
855.792	22440
855.926	22265
856.06	22451
856.194	22432
856.327	22390
856.461	22280
856.595	22436
856.729	22379
856.862	22554
856.996	22504
857.13	22489
857.263	22519
857.397	22474
857.53	22409
857.664	22284
857.797	22447
857.931	22603
858.064	22462
858.197	22535
858.331	22497
858.464	22299
858.597	22360
858.731	22375
858.864	22287
858.997	22386
859.13	22554
859.263	22440
859.396	22500
859.529	22333
859.662	22405
859.795	22367
859.928	22386
860.061	22440
860.194	22717
860.327	22466
860.46	22428
860.592	22550
860.725	22519
860.858	22580
860.99	22344
861.123	22409
861.256	22436
861.388	22504
861.521	23029
861.653	22299
861.786	22162
861.918	22242
862.05	22291
862.183	22295
862.315	22325
862.447	22382
862.58	22314
862.712	22086
862.844	22036
862.976	22188
863.108	22139
863.24	22580
863.372	22128
863.504	22204
863.636	22166
863.768	22143
863.9	22109
864.032	22150
864.164	22082
864.296	22090
864.428	22242
864.559	22200
864.691	22177
864.823	22051
864.954	22067
865.086	22002
865.217	22006
865.349	21934
865.48	22013
865.612	21968
865.743	21987
865.875	22055
866.006	21998
866.137	22105
866.269	22048
866.4	22059
866.531	21941
866.662	21816
866.793	21930
866.924	21934
867.055	22090
867.186	21888
867.317	21915
867.448	21800
867.579	21956
867.71	21846
867.841	21857
867.972	21915
868.103	21926
868.233	21934
868.364	21861
868.495	21972
868.625	22181
868.756	22265
868.886	22074
869.017	22265
869.147	22128
869.278	22295
869.408	22238
869.539	22040
869.669	22295
869.799	22158
869.929	22344
870.06	22223
870.19	22421
870.32	22398
870.45	22470
870.58	22584
870.71	22687
870.84	22733
870.97	22634
871.1	22634
871.23	22694
871.36	22839
871.489	22679
871.619	22805
871.749	22820
871.879	22767
872.008	22896
872.138	22790
872.267	22679
872.397	22622
872.526	22603
872.656	22538
872.785	22672
872.915	22782
873.044	22839
873.173	22835
873.303	22942
873.432	22820
873.561	22949
873.69	22786
873.819	22675
873.948	22892
874.077	22881
874.206	22706
874.335	22755
874.464	22908
874.593	22995
874.722	22927
874.851	22991
874.979	23067
875.108	23079
875.237	22938
875.365	22900
875.494	22889
875.623	23041
875.751	22957
875.88	22999
876.008	23166
876.136	23311
876.265	23429
876.393	23429
876.521	23383
876.65	23505
876.778	23402
876.906	23345
877.034	23334
877.162	23391
877.29	23170
877.418	23356
877.546	23334
877.674	23322
877.802	23337
877.93	23246
878.058	23284
878.185	23109
878.313	23360
878.441	23387
878.568	23193
878.696	23189
878.824	23341
878.951	23398
879.079	23512
879.206	23634
879.333	23600
879.461	23406
879.588	23535
879.715	23554
879.842	23627
879.97	23349
880.097	23231
880.224	23147
880.351	23315
880.478	23216
880.605	23132
880.732	23246
880.859	23368
880.986	23105
881.112	23159
881.239	23140
881.366	22858
881.493	22763
881.619	22744
881.746	22679
881.872	22725
881.999	22675
882.125	22748
882.252	22611
882.378	22668
882.505	22805
882.631	22508
882.757	22371
882.883	22516
883.01	22341
883.136	22462
883.262	22204
883.388	22257
883.514	22440
883.64	22485
883.766	22341
883.892	22204
884.018	22211
884.143	22402
884.269	22504
884.395	22006
884.52	22032
884.646	22013
884.772	22006
884.897	22051
885.023	22025
885.148	22162
885.274	22211
885.399	22162
885.524	22044
885.65	22074
885.775	21994
885.9	22067
886.025	22211
886.15	22086
886.275	22006
886.4	21880
886.525	21956
886.65	21823
886.775	21953
886.9	22147
887.025	22207
887.149	21911
887.274	21903
887.399	21785
887.523	21793
887.648	21789
887.773	21759
887.897	21960
888.021	21800
888.146	21709
888.27	21895
888.395	21949
888.519	21800
888.643	21781
888.767	21789
888.891	21660
889.015	21595
889.139	21641
889.263	21701
889.387	21736
889.511	21865
889.635	21599
889.759	21641
889.883	21561
890.006	21618
890.13	21564
890.254	21519
890.377	21454
890.501	21329
890.624	21252
890.748	21298
890.871	21100
890.995	21142
891.118	21176
891.241	21089
891.364	21127
891.488	21252
891.611	21070
891.734	21169
891.857	21195
891.98	21123
892.103	21116
892.226	21218
892.349	21222
892.471	20944
892.594	21062
892.717	21017
892.839	21043
892.962	21123
893.085	21081
893.207	21032
893.33	20971
893.452	20998
893.575	20994
893.697	21032
893.819	21245
893.941	21252
894.064	21173
894.186	20982
894.308	20781
894.43	21100
894.552	21226
894.674	21138
894.796	20853
894.918	21096
895.04	20906
895.161	21005
895.283	21123
895.405	20902
895.526	20979
895.648	20872
895.769	21001
895.891	21119
896.012	21047
896.134	20941
896.255	21020
896.376	20895
896.498	21036
896.619	21001
896.74	20975
896.861	21093
896.982	21378
897.103	21526
897.224	21340
897.345	21230
897.466	21150
897.587	21207
897.708	21329
897.828	21207
897.949	21169
898.07	20880
898.19	21135
898.311	21291
898.431	21142
898.552	21226
898.672	21268
898.792	21321
898.913	21089
899.033	21062
899.153	21017
899.273	20921
899.393	20937
899.513	20952
899.633	21043
899.753	21028
899.873	20758
899.993	20952
900.113	20933
900.232	20948
900.352	20819
900.472	20849
900.591	20670
900.711	20659
900.83	20594
900.95	20834
901.069	20621
901.189	20651
901.308	20442
901.427	20153
901.546	20225
901.665	20252
901.784	20229
901.904	20122
902.023	20050
902.141	19879
902.26	19753
902.379	19807
902.498	19658
902.617	19734
902.735	19715
902.854	19712
902.973	19784
903.091	19491
903.21	19495
903.328	19582
903.446	19365
903.565	19236
903.683	19373
903.801	19133
903.919	19137
904.038	19126
904.156	18951
904.274	19012
904.392	19061
904.51	18985
904.627	18905
904.745	19050
904.863	19046
904.981	18913
905.098	18738
905.216	18665
905.334	18715
905.451	18612
905.569	18612
905.686	18719
905.803	18642
905.921	18429
906.038	18570
906.155	18456
906.272	18361
906.389	18357
906.506	18182
906.623	18266
906.74	18232
906.857	18057
906.974	18049
907.091	18194
907.208	18243
907.324	18068
907.441	18129
907.557	17931
907.674	17752
907.79	17855
907.907	17897
908.023	17935
908.139	17843
908.256	17927
908.372	17707
908.488	17745
908.604	17665
908.72	17604
908.836	17684
908.952	17665
909.068	17649
909.184	17649
909.3	17543
909.415	17615
909.531	17623
909.647	17349
909.762	17356
909.878	17429
909.993	17360
910.108	17254
910.224	17231
910.339	17383
910.454	17166
910.57	17109
910.685	17113
910.8	17337
910.915	17345
911.03	17086
911.145	16987
911.259	17029
911.374	16915
911.489	16759
911.604	16725
911.718	16672
911.833	16706
911.947	16569
912.062	16500
912.176	16634
912.291	16603
912.405	16622
912.519	16824
912.633	16801
912.748	16672
912.862	16641
912.976	16413
913.09	16333
913.204	16375
913.318	16523
913.431	16588
913.545	16546
913.659	16527
913.772	16341
913.886	16177
914	16238
914.113	16417
914.226	16344
914.34	16291
914.453	16166
914.566	16268
914.68	16097
914.793	16063
914.906	15907
915.019	15869
915.132	15812
915.245	15778
915.358	15846
915.47	15823
915.583	15766
915.696	15911
915.809	15835
915.921	15899
916.034	15724
916.146	15698
916.259	15690
916.371	15816
916.483	15652
916.595	15622
916.708	15580
916.82	15614
916.932	15610
917.044	15492
917.156	15542
917.268	15450
917.38	15553
917.491	15488
917.603	15492
917.715	15435
917.826	15466
917.938	15424
918.049	15241
918.161	15382
918.272	15469
918.384	15557
918.495	15325
918.606	15226
918.717	15142
918.828	15249
918.939	15173
919.05	15089
919.161	15150
919.272	14960
919.383	14956
919.494	15211
919.604	15458
919.715	15093
919.826	15036
919.936	15081
920.047	15135
920.157	15142
920.267	15294
920.378	15131
920.488	15055
920.598	15317
920.708	15344
920.818	15218
920.928	15173
921.038	15500
921.148	15416
921.258	15058
921.368	15116
921.477	14864
921.587	14819
921.697	14853
921.806	14804
921.916	14663
922.025	14560
922.134	14492
922.244	14461
922.353	14537
922.462	14240
922.571	14385
922.68	14107
922.789	14145
922.898	14103
923.007	14031
923.116	14153
923.224	14096
923.333	14008
923.442	14020
923.55	13940
923.659	14039
923.767	13993
923.876	13902
923.984	13963
924.092	13890
924.201	13845
924.309	13871
924.417	13883
924.525	13738
924.633	13772
924.741	14594
924.849	13605
924.956	13731
925.064	13597
925.172	13434
925.279	13544
925.387	13502
925.494	13495
925.602	13639
925.709	13639
925.816	13384
925.924	13438
926.031	13601
926.138	13487
926.245	13449
926.352	13369
926.459	13396
926.566	13468
926.673	13240
926.779	13255
926.886	13221
926.993	13126
927.099	13145
927.206	13076
927.312	13053
927.419	13095
927.525	13012
927.631	13080
927.737	12928
927.843	12901
927.95	12707
928.056	12886
928.162	12837
928.267	12973
928.373	13373
928.479	12901
928.585	12719
928.69	12859
928.796	12852
928.901	12669
929.007	12604
929.112	12642
929.218	12639
929.323	12585
929.428	12650
929.533	12764
929.638	12604
929.743	12494
929.848	12536
929.953	12528
930.058	12407
930.163	12254
930.267	12247
930.372	12391
930.477	12239
930.581	12479
930.685	12292
930.79	12068
930.894	12251
930.998	12095
931.103	12213
931.207	11931
931.311	11821
931.415	11737
931.519	11486
931.623	11436
