Data from test_V78500241_1068.txt Node
Date: Fri Mar 25 15:49:11 CST 2022
User: usil
Spectrometer: V785-0024
Trigger mode: 0
Integration Time (sec): 4.000000E-1
Scans to average: 1
Nonlinearity correction enabled: false
Boxcar width: 0
Storing dark spectrum: false
XAxis mode: Wavelengths
Number of Pixels in Spectrum: 1024
>>>>>Begin Spectral Data<<<<<
801.071	28736
801.214	28527
801.356	28337
801.499	28249
801.641	28181
801.783	28215
801.926	28166
802.068	28306
802.211	28131
802.353	27994
802.496	27846
802.638	27884
802.78	27774
802.923	27914
803.065	27797
803.208	27827
803.35	27892
803.492	27949
803.635	27922
803.777	27895
803.919	28097
804.061	28322
804.204	28166
804.346	27937
804.488	27941
804.63	27918
804.773	27975
804.915	28196
805.057	28169
805.199	28059
805.341	28112
805.483	28295
805.626	28257
805.768	28006
805.91	28211
806.052	28325
806.194	28238
806.336	28459
806.478	28299
806.62	28287
806.762	28303
806.904	28451
807.046	28740
807.188	28713
807.33	28660
807.472	28725
807.614	28622
807.756	28577
807.898	28542
808.04	28447
808.182	28557
808.324	28580
808.465	28755
808.607	28824
808.749	28949
808.891	29041
809.033	29079
809.174	28942
809.316	28774
809.458	28930
809.6	28877
809.741	29090
809.883	29155
810.025	29128
810.166	29086
810.308	29258
810.45	29174
810.591	29086
810.733	29022
810.875	28793
811.016	28759
811.158	28782
811.299	29018
811.441	29079
811.582	29212
811.724	29010
811.865	28873
812.007	28915
812.148	29033
812.29	29052
812.431	29155
812.573	29261
812.714	29391
812.855	29455
812.997	29493
813.138	29596
813.279	29600
813.421	29505
813.562	29478
813.703	29368
813.845	29159
813.986	28892
814.127	28759
814.268	28702
814.41	28645
814.551	28603
814.692	28668
814.833	28508
814.974	28767
815.115	28713
815.256	28516
815.397	28417
815.539	28508
815.68	28588
815.821	28386
815.962	28394
816.103	28375
816.244	28325
816.385	28226
816.526	28215
816.666	28013
816.807	28101
816.948	27979
817.089	28147
817.23	28063
817.371	27987
817.512	27937
817.653	27869
817.793	27956
817.934	28029
818.075	27911
818.216	27876
818.356	27918
818.497	27884
818.638	27705
818.778	27713
818.919	27660
819.06	27713
819.2	27998
819.341	27861
819.481	27937
819.622	28139
819.762	28257
819.903	28272
820.043	28154
820.184	28188
820.324	28147
820.465	28131
820.605	28143
820.746	28055
820.886	28032
821.026	28070
821.167	28086
821.307	28166
821.447	28036
821.588	27941
821.728	27975
821.868	27595
822.008	27408
822.149	27302
822.289	27466
822.429	27321
822.569	27173
822.709	27256
822.849	27066
822.99	26963
823.13	26876
823.27	26940
823.41	26819
823.55	26838
823.69	26743
823.83	26815
823.97	26773
824.11	26560
824.25	26617
824.389	26705
824.529	26758
824.669	26705
824.809	26701
824.949	26648
825.089	26796
825.228	26705
825.368	26571
825.508	26518
825.648	26632
825.787	26568
825.927	26636
826.067	26507
826.206	26533
826.346	26518
826.485	26613
826.625	26450
826.765	26579
826.904	26492
827.044	26305
827.183	26202
827.323	26183
827.462	26282
827.601	26267
827.741	26187
827.88	26256
828.02	26221
828.159	26161
828.298	26199
828.437	26225
828.577	26332
828.716	26396
828.855	26168
828.994	25966
829.134	25966
829.273	25944
829.412	25932
829.551	25833
829.69	25928
829.829	25932
829.968	26062
830.107	26046
830.246	25879
830.385	25936
830.524	25833
830.663	25757
830.802	25537
830.941	25571
831.08	25533
831.219	25632
831.357	25639
831.496	25662
831.635	25556
831.774	25491
831.913	25388
832.051	25346
832.19	25354
832.329	25335
832.467	25270
832.606	25145
832.744	25069
832.883	25122
833.022	25206
833.16	25160
833.299	25240
833.437	25266
833.576	25240
833.714	25278
833.852	25202
833.991	25316
834.129	25502
834.267	25259
834.406	25293
834.544	25411
834.682	25225
834.821	25190
834.959	25422
835.097	25194
835.235	25324
835.373	25236
835.511	25141
835.65	25171
835.788	25004
835.926	25023
836.064	24947
836.202	25004
836.34	25145
836.478	25126
836.615	25148
836.753	25126
836.891	25095
837.029	25122
837.167	25171
837.305	25034
837.443	24973
837.58	24768
837.718	24882
837.856	24943
837.993	24909
838.131	24757
838.269	24825
838.406	24768
838.544	24871
838.681	24582
838.819	24464
838.956	24357
839.094	24323
839.231	24452
839.369	24475
839.506	24650
839.643	24547
839.781	24403
839.918	24254
840.055	24433
840.193	24422
840.33	24315
840.467	24327
840.604	24270
840.742	24612
840.879	24174
841.016	24277
841.153	24213
841.29	24330
841.427	24330
841.564	24270
841.701	24315
841.838	24315
841.975	24213
842.112	24239
842.249	24045
842.385	23977
842.522	24247
842.659	24167
842.796	23999
842.933	24053
843.069	24003
843.206	23923
843.343	24095
843.479	23999
843.616	23942
843.752	23843
843.889	23733
844.025	23954
844.162	23729
844.298	23870
844.435	23786
844.571	23828
844.708	23832
844.844	23969
844.98	23980
845.117	23901
845.253	23843
845.389	23600
845.525	23646
845.661	23668
845.798	23490
845.934	23573
846.07	23592
846.206	23512
846.342	23627
846.478	23414
846.614	23398
846.75	23231
846.886	23242
847.022	23330
847.158	23178
847.294	23197
847.429	23299
847.565	23178
847.701	23554
847.837	22957
847.972	22995
848.108	23151
848.244	23102
848.379	22900
848.515	23003
848.65	22805
848.786	22889
848.921	22786
849.057	22934
849.192	22938
849.328	22961
849.463	22927
849.598	22725
849.734	22656
849.869	22733
850.004	22504
850.14	22641
850.275	22577
850.41	22478
850.545	22485
850.68	22656
850.815	22645
850.95	22618
851.085	22759
851.22	22721
851.355	22717
851.49	22592
851.625	22607
851.76	22592
851.895	22603
852.03	22481
852.165	22592
852.299	22573
852.434	22618
852.569	22618
852.703	22668
852.838	22660
852.973	22774
853.107	22782
853.242	22489
853.376	22470
853.511	22200
853.645	22356
853.78	22512
853.914	22489
854.048	22356
854.183	22512
854.317	22413
854.451	22603
854.585	22382
854.72	22413
854.854	22493
854.988	22451
855.122	22421
855.256	22249
855.39	22470
855.524	22413
855.658	22421
855.792	22424
855.926	22432
856.06	22493
856.194	22557
856.327	22390
856.461	22333
856.595	22356
856.729	22242
856.862	22519
856.996	22508
857.13	22478
857.263	22615
857.397	22523
857.53	22421
857.664	22504
857.797	22440
857.931	22577
858.064	22417
858.197	22557
858.331	22405
858.464	22398
858.597	22234
858.731	22363
858.864	22344
858.997	22344
859.13	22398
859.263	22504
859.396	22523
859.529	22428
859.662	22413
859.795	22306
859.928	22466
860.061	22622
860.194	22729
860.327	22550
860.46	22436
860.592	22561
860.725	22466
860.858	22398
860.99	22474
861.123	22432
861.256	22451
861.388	22538
861.521	23231
861.653	22238
861.786	22215
861.918	22150
862.05	22306
862.183	22375
862.315	22481
862.447	22432
862.58	22234
862.712	21994
862.844	22215
862.976	22188
863.108	22185
863.24	22611
863.372	22044
863.504	22139
863.636	22154
863.768	22086
863.9	22147
864.032	22067
864.164	22051
864.296	22109
864.428	22128
864.559	22257
864.691	22120
864.823	22131
864.954	22135
865.086	22070
865.217	22055
865.349	21956
865.48	22010
865.612	22055
865.743	22173
865.875	21975
866.006	21945
866.137	22074
866.269	22029
866.4	21941
866.531	21930
866.662	21907
866.793	21854
866.924	21972
867.055	21953
867.186	22063
867.317	21972
867.448	21717
867.579	21926
867.71	21838
867.841	21873
867.972	21953
868.103	21873
868.233	21964
868.364	21953
868.495	22006
868.625	22143
868.756	22139
868.886	22002
869.017	22090
869.147	22329
869.278	22314
869.408	22185
869.539	22147
869.669	22303
869.799	22386
869.929	22158
870.06	22188
870.19	22569
870.32	22504
870.45	22580
870.58	22546
870.71	22538
870.84	22736
870.97	22557
871.1	22637
871.23	22721
871.36	22824
871.489	22717
871.619	22786
871.749	22816
871.879	22812
872.008	22866
872.138	22755
872.267	22706
872.397	22584
872.526	22538
872.656	22721
872.785	22561
872.915	22900
873.044	23003
873.173	22889
873.303	22889
873.432	22767
873.561	22877
873.69	22858
873.819	22793
873.948	22904
874.077	22911
874.206	22786
874.335	22710
874.464	22843
874.593	23067
874.722	22957
874.851	23006
874.979	22999
875.108	22927
875.237	22862
875.365	22923
875.494	22911
875.623	23014
875.751	22949
875.88	23041
876.008	23109
876.136	23277
876.265	23410
876.393	23436
876.521	23490
876.65	23482
876.778	23345
876.906	23440
877.034	23322
877.162	23292
877.29	23223
877.418	23391
877.546	23334
877.674	23250
877.802	23284
877.93	23284
878.058	23318
878.185	23117
878.313	23242
878.441	23383
878.568	23124
878.696	23391
878.824	23280
878.951	23433
879.079	23471
879.206	23775
879.333	23467
879.461	23307
879.588	23474
879.715	23436
879.842	23543
879.97	23463
880.097	23212
880.224	23109
880.351	23083
880.478	23273
880.605	23121
880.732	23170
880.859	23414
880.986	23143
881.112	22995
881.239	22995
881.366	22869
881.493	22854
881.619	22771
881.746	22748
881.872	22854
881.999	22733
882.125	22691
882.252	22748
882.378	22592
882.505	22660
882.631	22481
882.757	22573
882.883	22584
883.01	22462
883.136	22314
883.262	22329
883.388	22204
883.514	22382
883.64	22356
883.766	22246
883.892	22086
884.018	22219
884.143	22375
884.269	22443
884.395	22032
884.52	22036
884.646	22101
884.772	21983
884.897	21895
885.023	22173
885.148	22105
885.274	22158
885.399	22196
885.524	22086
885.65	22097
885.775	21968
885.9	22002
886.025	22128
886.15	22112
886.275	21937
886.4	21827
886.525	22105
886.65	21930
886.775	21964
886.9	22120
887.025	22246
887.149	21972
887.274	21934
887.399	21762
887.523	21755
887.648	21652
887.773	21751
887.897	21937
888.021	21934
888.146	21743
888.27	21899
888.395	21873
888.519	21694
888.643	21766
888.767	21698
888.891	21694
889.015	21682
889.139	21572
889.263	21576
889.387	21747
889.511	21846
889.635	21755
889.759	21519
889.883	21526
890.006	21648
890.13	21720
890.254	21428
890.377	21519
890.501	21462
890.624	21370
890.748	21332
890.871	21157
890.995	21184
891.118	21108
891.241	21077
891.364	21062
891.488	21195
891.611	21047
891.734	21047
891.857	21214
891.98	21066
892.103	21226
892.226	21154
892.349	21157
892.471	20853
892.594	20971
892.717	21055
892.839	21074
892.962	21058
893.085	21020
893.207	20967
893.33	20906
893.452	20979
893.575	21024
893.697	20948
893.819	21089
893.941	21214
894.064	21108
894.186	20876
894.308	20982
894.43	21085
894.552	21154
894.674	21150
894.796	20902
894.918	20925
895.04	20971
895.161	21081
895.283	21020
895.405	20937
895.526	21017
895.648	20933
895.769	20952
895.891	20994
896.012	21020
896.134	21066
896.255	20967
896.376	20925
896.498	20971
896.619	20933
896.74	20982
896.861	21081
896.982	21393
897.103	21382
897.224	21435
897.345	21268
897.466	21093
897.587	21214
897.708	21367
897.828	21245
897.949	21081
898.07	21093
898.19	21100
898.311	21249
898.431	21104
898.552	21321
898.672	21245
898.792	21184
898.913	21157
899.033	21096
899.153	21096
899.273	20963
899.393	20925
899.513	20998
899.633	20807
899.753	20929
899.873	20902
899.993	20967
900.113	20815
900.232	20830
900.352	20842
900.472	20697
900.591	20625
900.711	20651
900.83	20556
900.95	20826
901.069	20731
901.189	20492
901.308	20442
901.427	20366
901.546	20168
901.665	20225
901.784	20305
901.904	20138
902.023	20210
902.141	19746
902.26	19845
902.379	19856
902.498	19727
902.617	19750
902.735	19731
902.854	19674
902.973	19556
903.091	19499
903.21	19457
903.328	19453
903.446	19304
903.565	19285
903.683	19304
903.801	19110
903.919	19145
904.038	19076
904.156	19015
904.274	18989
904.392	18966
904.51	18993
904.627	18954
904.745	18966
904.863	19031
904.981	18783
905.098	18703
905.216	18707
905.334	18646
905.451	18730
905.569	18612
905.686	18673
905.803	18688
905.921	18445
906.038	18566
906.155	18441
906.272	18467
906.389	18342
906.506	18224
906.623	18155
906.74	18220
906.857	18106
906.974	18053
907.091	18251
907.208	18239
907.324	18205
907.441	18038
907.557	17878
907.674	17851
907.79	17889
907.907	17805
908.023	17859
908.139	17908
908.256	17798
908.372	17783
908.488	17760
908.604	17585
908.72	17581
908.836	17585
908.952	17532
909.068	17543
909.184	17627
909.3	17668
909.415	17703
909.531	17558
909.647	17436
909.762	17292
909.878	17265
909.993	17315
910.108	17376
910.224	17220
910.339	17368
910.454	17064
910.57	17064
910.685	16999
910.8	17280
910.915	17258
911.03	16968
911.145	16904
911.259	16752
911.374	16915
911.489	16767
911.604	16782
911.718	16618
911.833	16580
911.947	16554
912.062	16519
912.176	16630
912.291	16675
912.405	16637
912.519	16816
912.633	16847
912.748	16694
912.862	16611
912.976	16558
913.09	16306
913.204	16337
913.318	16470
913.431	16462
913.545	16379
913.659	16504
913.772	16360
913.886	16204
914	16211
914.113	16344
914.226	16196
914.34	16363
914.453	16109
914.566	16143
914.68	16169
914.793	15998
914.906	15930
915.019	15831
915.132	15739
915.245	15880
915.358	15865
915.47	15846
915.583	15739
915.696	15789
915.809	15789
915.921	15895
916.034	15762
916.146	15778
916.259	15663
916.371	15709
916.483	15808
916.595	15587
916.708	15644
916.82	15606
916.932	15595
917.044	15504
917.156	15515
917.268	15351
917.38	15389
917.491	15504
917.603	15386
917.715	15492
917.826	15450
917.938	15275
918.049	15207
918.161	15416
918.272	15511
918.384	15557
918.495	15363
918.606	15074
918.717	15085
918.828	15275
918.939	15218
919.05	15028
919.161	15184
919.272	15001
919.383	15032
919.494	15230
919.604	15386
919.715	15199
919.826	15127
919.936	15097
920.047	15173
920.157	15260
920.267	15306
920.378	15131
920.488	15039
920.598	15252
920.708	15450
920.818	15233
920.928	15264
921.038	15340
921.148	15443
921.258	15097
921.368	14891
921.477	14967
921.587	14853
921.697	14739
921.806	14819
921.916	14731
922.025	14530
922.134	14476
922.244	14533
922.353	14507
922.462	14313
922.571	14309
922.68	14164
922.789	14138
922.898	14168
923.007	14058
923.116	14180
923.224	14183
923.333	14012
923.442	13947
923.55	13932
923.659	13997
923.767	13963
923.876	13909
923.984	13963
924.092	13799
924.201	13898
924.309	13822
924.417	13795
924.525	13803
924.633	13750
924.741	14507
924.849	13655
924.956	13696
925.064	13601
925.172	13457
925.279	13563
925.387	13506
925.494	13491
925.602	13556
925.709	13506
925.816	13396
925.924	13365
926.031	13457
926.138	13460
926.245	13457
926.352	13289
926.459	13392
926.566	13441
926.673	13362
926.779	13175
926.886	13244
926.993	13156
927.099	13015
927.206	13091
927.312	12951
927.419	13168
927.525	13088
927.631	12993
927.737	12996
927.843	12932
927.95	12760
928.056	12829
928.162	12871
928.267	12916
928.373	13453
928.479	12947
928.585	12707
928.69	12852
928.796	12901
928.901	12768
929.007	12559
929.112	12749
929.218	12616
929.323	12646
929.428	12593
929.533	12604
929.638	12452
929.743	12513
929.848	12506
929.953	12498
930.058	12395
930.163	12243
930.267	12228
930.372	12403
930.477	12144
930.581	12437
930.685	12277
930.79	12060
930.894	12171
930.998	12068
931.103	12251
931.207	11863
931.311	11737
931.415	11718
931.519	11471
931.623	11440
