Data from test_V78500241_1248.txt Node
Date: Fri Mar 25 15:50:26 CST 2022
User: usil
Spectrometer: V785-0024
Trigger mode: 0
Integration Time (sec): 4.000000E-1
Scans to average: 1
Nonlinearity correction enabled: false
Boxcar width: 0
Storing dark spectrum: false
XAxis mode: Wavelengths
Number of Pixels in Spectrum: 1024
>>>>>Begin Spectral Data<<<<<
801.071	28679
801.214	28854
801.356	28462
801.499	28466
801.641	28455
801.783	28299
801.926	28394
802.068	28363
802.211	28360
802.353	28234
802.496	28105
802.638	28105
802.78	28143
802.923	28101
803.065	28101
803.208	28063
803.35	27998
803.492	28131
803.635	28344
803.777	28196
803.919	28367
804.061	28569
804.204	28360
804.346	28120
804.488	28188
804.63	28424
804.773	28310
804.915	28424
805.057	28405
805.199	28538
805.341	28440
805.483	28516
805.626	28592
805.768	28451
805.91	28493
806.052	28527
806.194	28428
806.336	28702
806.478	28565
806.62	28459
806.762	28592
806.904	28812
807.046	28904
807.188	28927
807.33	29071
807.472	28949
807.614	28900
807.756	28968
807.898	28744
808.04	28767
808.182	28915
808.324	29014
808.465	28927
808.607	29025
808.749	29364
808.891	29311
809.033	29368
809.174	29318
809.316	29261
809.458	29075
809.6	29200
809.741	29391
809.883	29242
810.025	29505
810.166	29562
810.308	29535
810.45	29467
810.591	29421
810.733	29318
810.875	29330
811.016	29200
811.158	29147
811.299	29292
811.441	29459
811.582	29471
811.724	29212
811.865	29174
812.007	29155
812.148	29200
812.29	29429
812.431	29372
812.573	29505
812.714	29665
812.855	29756
812.997	29927
813.138	29999
813.279	29851
813.421	29718
813.562	29649
813.703	29604
813.845	29448
813.986	29322
814.127	29155
814.268	28938
814.41	29033
814.551	28885
814.692	29064
814.833	28835
814.974	28866
815.115	29022
815.256	28946
815.397	28835
815.539	28858
815.68	28812
815.821	28824
815.962	28771
816.103	28717
816.244	28538
816.385	28603
816.526	28698
816.666	28405
816.807	28375
816.948	28371
817.089	28417
817.23	28287
817.371	28272
817.512	28318
817.653	28306
817.793	28265
817.934	28234
818.075	28341
818.216	28287
818.356	28322
818.497	28124
818.638	28032
818.778	28109
818.919	27937
819.06	28124
819.2	28109
819.341	28303
819.481	28268
819.622	28398
819.762	28637
819.903	28672
820.043	28493
820.184	28436
820.324	28459
820.465	28542
820.605	28451
820.746	28478
820.886	28223
821.026	28322
821.167	28329
821.307	28421
821.447	28246
821.588	28234
821.728	27960
821.868	27956
822.008	27797
822.149	27926
822.289	27762
822.429	27462
822.569	27454
822.709	27321
822.849	27283
822.99	27310
823.13	27157
823.27	27237
823.41	27066
823.55	26956
823.69	27051
823.83	27074
823.97	27146
824.11	26998
824.25	26872
824.389	27093
824.529	26998
824.669	26963
824.809	26986
824.949	26956
825.089	27058
825.228	27077
825.368	26678
825.508	26621
825.648	26868
825.787	26853
825.927	26701
826.067	26670
826.206	26727
826.346	26838
826.485	26963
826.625	26674
826.765	26872
826.904	26769
827.044	26739
827.183	26564
827.323	26537
827.462	26457
827.601	26621
827.741	26495
827.88	26689
828.02	26419
828.159	26575
828.298	26503
828.437	26598
828.577	26324
828.716	26541
828.855	26423
828.994	26149
829.134	26305
829.273	26252
829.412	26199
829.551	26096
829.69	26263
829.829	26275
829.968	26358
830.107	26225
830.246	26305
830.385	26149
830.524	26176
830.663	26027
830.802	25925
830.941	25742
831.08	25761
831.219	25928
831.357	25909
831.496	26005
831.635	25818
831.774	25833
831.913	25769
832.051	25559
832.19	25677
832.329	25620
832.467	25674
832.606	25499
832.744	25381
832.883	25460
833.022	25479
833.16	25441
833.299	25514
833.437	25563
833.576	25601
833.714	25594
833.852	25616
833.991	25552
834.129	25468
834.267	25651
834.406	25586
834.544	25704
834.682	25430
834.821	25594
834.959	25609
835.097	25521
835.235	25567
835.373	25460
835.511	25453
835.65	25457
835.788	25422
835.926	25209
836.064	25168
836.202	25274
836.34	25331
836.478	25441
836.615	25472
836.753	25411
836.891	25499
837.029	25457
837.167	25327
837.305	25388
837.443	25312
837.58	25297
837.718	25183
837.856	25255
837.993	25289
838.131	25320
838.269	25065
838.406	25076
838.544	25042
838.681	24871
838.819	24806
838.956	24738
839.094	24589
839.231	24684
839.369	24787
839.506	25084
839.643	24878
839.781	24658
839.918	24555
840.055	24711
840.193	24566
840.33	24388
840.467	24620
840.604	24654
840.742	24817
840.879	24448
841.016	24418
841.153	24505
841.29	24734
841.427	24555
841.564	24692
841.701	24441
841.838	24429
841.975	24441
842.112	24414
842.249	24388
842.385	24292
842.522	24445
842.659	24353
842.796	24353
842.933	24209
843.069	24334
843.206	24266
843.343	24414
843.479	24338
843.616	24327
843.752	24083
843.889	24038
844.025	24232
844.162	24190
844.298	24140
844.435	24148
844.571	24079
844.708	24182
844.844	24216
844.98	24178
845.117	24232
845.253	24136
845.389	23908
845.525	23935
845.661	23958
845.798	23775
845.934	23882
846.07	23646
846.206	23897
846.342	23916
846.478	23729
846.614	23611
846.75	23547
846.886	23520
847.022	23634
847.158	23570
847.294	23573
847.429	23573
847.565	23482
847.701	23790
847.837	23246
847.972	23208
848.108	23318
848.244	23406
848.379	23223
848.515	23029
848.65	23197
848.786	23132
848.921	23025
849.057	23181
849.192	23159
849.328	23132
849.463	23090
849.598	23117
849.734	23113
849.869	22824
850.004	22934
850.14	22904
850.275	22873
850.41	22892
850.545	22767
850.68	22885
850.815	22824
850.95	22869
851.085	23075
851.22	23113
851.355	22843
851.49	22889
851.625	22987
851.76	22801
851.895	22873
852.03	22820
852.165	22828
852.299	22774
852.434	23014
852.569	22976
852.703	22850
852.838	22961
852.973	22995
853.107	22991
853.242	22790
853.376	22713
853.511	22637
853.645	22691
853.78	22793
853.914	22877
854.048	22717
854.183	22729
854.317	22744
854.451	22835
854.585	22721
854.72	22634
854.854	22740
854.988	22535
855.122	22744
855.256	22569
855.39	22733
855.524	22740
855.658	22713
855.792	22755
855.926	22828
856.06	22771
856.194	22763
856.327	22713
856.461	22653
856.595	22634
856.729	22691
856.862	22778
856.996	22748
857.13	22790
857.263	22869
857.397	22828
857.53	22744
857.664	22816
857.797	22786
857.931	22759
858.064	22744
858.197	22805
858.331	22721
858.464	22862
858.597	22527
858.731	22683
858.864	22717
858.997	22660
859.13	22698
859.263	22736
859.396	22854
859.529	22694
859.662	22763
859.795	22656
859.928	22698
860.061	22774
860.194	22961
860.327	22755
860.46	22850
860.592	22946
860.725	22885
860.858	22809
860.99	22847
861.123	22637
861.256	22782
861.388	22729
861.521	23589
861.653	22634
861.786	22622
861.918	22584
862.05	22592
862.183	22672
862.315	22641
862.447	22702
862.58	22660
862.712	22474
862.844	22276
862.976	22440
863.108	22443
863.24	22748
863.372	22360
863.504	22382
863.636	22356
863.768	22500
863.9	22474
864.032	22451
864.164	22421
864.296	22516
864.428	22398
864.559	22455
864.691	22417
864.823	22557
864.954	22318
865.086	22497
865.217	22234
865.349	22234
865.48	22276
865.612	22352
865.743	22344
865.875	22318
866.006	22169
866.137	22318
866.269	22348
866.4	22223
866.531	22265
866.662	22082
866.793	22242
866.924	22253
867.055	22204
867.186	22173
867.317	22230
867.448	22318
867.579	22192
867.71	22162
867.841	22078
867.972	22200
868.103	22246
868.233	22280
868.364	22181
868.495	22257
868.625	22443
868.756	22504
868.886	22402
869.017	22478
869.147	22512
869.278	22618
869.408	22561
869.539	22519
869.669	22474
869.799	22497
869.929	22664
870.06	22580
870.19	22672
870.32	22824
870.45	22660
870.58	22725
870.71	22961
870.84	22957
870.97	22801
871.1	22850
871.23	22987
871.36	23124
871.489	23010
871.619	23052
871.749	22995
871.879	23132
872.008	23185
872.138	23124
872.267	22987
872.397	22934
872.526	22923
872.656	22896
872.785	22763
872.915	23052
873.044	23124
873.173	23124
873.303	23102
873.432	23140
873.561	23094
873.69	23010
873.819	22915
873.948	23216
874.077	23193
874.206	23052
874.335	23079
874.464	23151
874.593	23261
874.722	23223
874.851	23448
874.979	23299
875.108	23277
875.237	23212
875.365	23223
875.494	23204
875.623	23406
875.751	23178
875.88	23296
876.008	23440
876.136	23501
876.265	23729
876.393	23817
876.521	23710
876.65	23687
876.778	23661
876.906	23551
877.034	23596
877.162	23440
877.29	23547
877.418	23611
877.546	23528
877.674	23478
877.802	23604
877.93	23577
878.058	23524
878.185	23372
878.313	23474
878.441	23562
878.568	23425
878.696	23463
878.824	23661
878.951	23672
879.079	23741
879.206	23866
879.333	23767
879.461	23680
879.588	23733
879.715	23764
879.842	23836
879.97	23653
880.097	23440
880.224	23398
880.351	23436
880.478	23425
880.605	23482
880.732	23463
880.859	23687
880.986	23474
881.112	23376
881.239	23273
881.366	23185
881.493	23086
881.619	22999
881.746	22961
881.872	22953
881.999	22877
882.125	22866
882.252	22957
882.378	22919
882.505	23079
882.631	22752
882.757	22767
882.883	22668
883.01	22691
883.136	22618
883.262	22607
883.388	22470
883.514	22691
883.64	22675
883.766	22500
883.892	22436
884.018	22386
884.143	22519
884.269	22611
884.395	22325
884.52	22337
884.646	22280
884.772	22348
884.897	22074
885.023	22337
885.148	22443
885.274	22470
885.399	22516
885.524	22230
885.65	22291
885.775	22211
885.9	22284
886.025	22303
886.15	22443
886.275	22207
886.4	22158
886.525	22223
886.65	22116
886.775	22120
886.9	22341
887.025	22390
887.149	22226
887.274	22048
887.399	21994
887.523	22002
887.648	22029
887.773	21964
887.897	22143
888.021	22097
888.146	22029
888.27	22082
888.395	22090
888.519	22280
888.643	21960
888.767	22131
888.891	21945
889.015	21846
889.139	21964
889.263	21800
889.387	21991
889.511	22109
889.635	21918
889.759	21861
889.883	21876
890.006	21751
890.13	21732
890.254	21701
890.377	21781
890.501	21572
890.624	21545
890.748	21652
890.871	21458
890.995	21515
891.118	21264
891.241	21447
891.364	21447
891.488	21481
891.611	21370
891.734	21431
891.857	21496
891.98	21260
892.103	21466
892.226	21370
892.349	21321
892.471	21138
892.594	21203
892.717	21374
892.839	21108
892.962	21241
893.085	21344
893.207	21348
893.33	21104
893.452	21241
893.575	21218
893.697	21283
893.819	21348
893.941	21542
894.064	21351
894.186	21180
894.308	21264
894.43	21279
894.552	21340
894.674	21306
894.796	21233
894.918	21214
895.04	21283
895.161	21272
895.283	21241
895.405	21127
895.526	21264
895.648	21203
895.769	21260
895.891	21435
896.012	21291
896.134	21344
896.255	21230
896.376	21207
896.498	21192
896.619	21287
896.74	21329
896.861	21306
896.982	21538
897.103	21648
897.224	21378
897.345	21420
897.466	21435
897.587	21462
897.708	21614
897.828	21534
897.949	21397
898.07	21237
898.19	21435
898.311	21523
898.431	21408
898.552	21538
898.672	21545
898.792	21450
898.913	21393
899.033	21211
899.153	21207
899.273	21020
899.393	21169
899.513	21207
899.633	21085
899.753	21154
899.873	21203
899.993	21169
900.113	21005
900.232	21116
900.352	21169
900.472	21020
900.591	20842
900.711	20880
900.83	20868
900.95	20990
901.069	20963
901.189	20765
901.308	20648
901.427	20492
901.546	20362
901.665	20533
901.784	20549
901.904	20469
902.023	20336
902.141	20092
902.26	19970
902.379	20100
902.498	19989
902.617	19913
902.735	20020
902.854	19955
902.973	19890
903.091	19605
903.21	19620
903.328	19723
903.446	19567
903.565	19582
903.683	19392
903.801	19343
903.919	19468
904.038	19396
904.156	19164
904.274	19304
904.392	19145
904.51	19141
904.627	19160
904.745	19187
904.863	19255
904.981	19080
905.098	19008
905.216	18745
905.334	18833
905.451	18966
905.569	18757
905.686	18825
905.803	18871
905.921	18566
906.038	18791
906.155	18658
906.272	18578
906.389	18623
906.506	18403
906.623	18426
906.74	18342
906.857	18323
906.974	18247
907.091	18403
907.208	18471
907.324	18418
907.441	18308
907.557	18095
907.674	18034
907.79	18041
907.907	17950
908.023	18190
908.139	18117
908.256	17954
908.372	18129
908.488	17961
908.604	17855
908.72	17828
908.836	17851
908.952	17798
909.068	17828
909.184	17916
909.3	17764
909.415	17897
909.531	17904
909.647	17528
909.762	17501
909.878	17482
909.993	17577
910.108	17528
910.224	17398
910.339	17368
910.454	17433
910.57	17322
910.685	17166
910.8	17486
910.915	17532
911.03	17292
911.145	17128
911.259	17098
911.374	17155
911.489	16972
911.604	16839
911.718	16892
911.833	16748
911.947	16713
912.062	16702
912.176	16843
912.291	16820
912.405	16927
912.519	17048
912.633	16953
912.748	16835
912.862	16706
912.976	16672
913.09	16577
913.204	16531
913.318	16675
913.431	16774
913.545	16694
913.659	16653
913.772	16599
913.886	16428
914	16375
914.113	16535
914.226	16478
914.34	16512
914.453	16284
914.566	16478
914.68	16192
914.793	16295
914.906	16124
915.019	16071
915.132	15983
915.245	16032
915.358	16063
915.47	16040
915.583	15972
915.696	16021
915.809	16078
915.921	16128
916.034	15911
916.146	15888
916.259	15892
916.371	15934
916.483	15880
916.595	15865
916.708	15816
916.82	15713
916.932	15819
917.044	15781
917.156	15629
917.268	15606
917.38	15701
917.491	15618
917.603	15633
917.715	15633
917.826	15656
917.938	15564
918.049	15515
918.161	15454
918.272	15701
918.384	15644
918.495	15485
918.606	15447
918.717	15203
918.828	15336
918.939	15386
919.05	15302
919.161	15348
919.272	15230
919.383	15199
919.494	15401
919.604	15580
919.715	15386
919.826	15233
919.936	15195
920.047	15469
920.157	15279
920.267	15374
920.378	15306
920.488	15207
920.598	15473
920.708	15580
920.818	15458
920.928	15412
921.038	15625
921.148	15564
921.258	15306
921.368	15203
921.477	15024
921.587	15024
921.697	14960
921.806	14979
921.916	14887
922.025	14769
922.134	14587
922.244	14640
922.353	14724
922.462	14594
922.571	14484
922.68	14362
922.789	14317
922.898	14301
923.007	14233
923.116	14248
923.224	14199
923.333	14195
923.442	14164
923.55	14046
923.659	14161
923.767	14119
923.876	14069
923.984	14088
924.092	14050
924.201	14043
924.309	14077
924.417	13944
924.525	13925
924.633	13932
924.741	14861
924.849	13666
924.956	13772
925.064	13734
925.172	13624
925.279	13715
925.387	13761
925.494	13658
925.602	13769
925.709	13708
925.816	13514
925.924	13521
926.031	13586
926.138	13636
926.245	13677
926.352	13483
926.459	13658
926.566	13696
926.673	13491
926.779	13343
926.886	13396
926.993	13202
927.099	13190
927.206	13225
927.312	13107
927.419	13202
927.525	13247
927.631	13221
927.737	13122
927.843	13023
927.95	12856
928.056	12970
928.162	13023
928.267	13012
928.373	13681
928.479	13023
928.585	12776
928.69	12920
928.796	13053
928.901	12825
929.007	12700
929.112	12829
929.218	12825
929.323	12825
929.428	12696
929.533	12798
929.638	12635
929.743	12677
929.848	12783
929.953	12711
930.058	12536
930.163	12410
930.267	12346
930.372	12517
930.477	12323
930.581	12623
930.685	12384
930.79	12190
930.894	12319
930.998	12277
931.103	12323
931.207	11939
931.311	11824
931.415	11840
931.519	11680
931.623	11676
