Data from test_V78500241_1797.txt Node
Date: Fri Mar 25 15:54:14 CST 2022
User: usil
Spectrometer: V785-0024
Trigger mode: 0
Integration Time (sec): 4.000000E-1
Scans to average: 1
Nonlinearity correction enabled: false
Boxcar width: 0
Storing dark spectrum: false
XAxis mode: Wavelengths
Number of Pixels in Spectrum: 1024
>>>>>Begin Spectral Data<<<<<
801.071	28489
801.214	28352
801.356	28131
801.499	28086
801.641	27964
801.783	27770
801.926	27934
802.068	28051
802.211	27899
802.353	27930
802.496	27694
802.638	27690
802.78	27675
802.923	27549
803.065	27454
803.208	27515
803.35	27545
803.492	27789
803.635	27713
803.777	27766
803.919	27785
804.061	28291
804.204	27739
804.346	27812
804.488	27846
804.63	27827
804.773	27751
804.915	27854
805.057	27857
805.199	27930
805.341	27918
805.483	27975
805.626	27903
805.768	27960
805.91	27991
806.052	28143
806.194	27869
806.336	28017
806.478	27926
806.62	27975
806.762	28211
806.904	28333
807.046	28504
807.188	28478
807.33	28481
807.472	28622
807.614	28386
807.756	28386
807.898	28306
808.04	28070
808.182	28295
808.324	28291
808.465	28443
808.607	28622
808.749	28687
808.891	28915
809.033	28679
809.174	28828
809.316	28649
809.458	28809
809.6	28580
809.741	28911
809.883	28824
810.025	28999
810.166	29071
810.308	28946
810.45	28900
810.591	28927
810.733	28873
810.875	28573
811.016	28531
811.158	28599
811.299	28786
811.441	28885
811.582	28729
811.724	28641
811.865	28569
812.007	28706
812.148	28649
812.29	28812
812.431	28877
812.573	28976
812.714	29170
812.855	29147
812.997	29235
813.138	29524
813.279	29364
813.421	29303
813.562	29155
813.703	29140
813.845	28877
813.986	28508
814.127	28481
814.268	28405
814.41	28303
814.551	28504
814.692	28379
814.833	28386
814.974	28409
815.115	28352
815.256	28230
815.397	28257
815.539	28166
815.68	28344
815.821	28070
815.962	28166
816.103	28303
816.244	27983
816.385	28040
816.526	28055
816.666	27888
816.807	27587
816.948	27705
817.089	27983
817.23	27644
817.371	27610
817.512	27781
817.653	27724
817.793	27698
817.934	27785
818.075	27622
818.216	27675
818.356	27759
818.497	27397
818.638	27355
818.778	27359
818.919	27351
819.06	27591
819.2	27641
819.341	27705
819.481	27667
819.622	27747
819.762	28055
819.903	27937
820.043	27968
820.184	27888
820.324	27876
820.465	28029
820.605	27785
820.746	27819
820.886	27656
821.026	27819
821.167	27854
821.307	27949
821.447	27698
821.588	27717
821.728	27534
821.868	27378
822.008	27154
822.149	27237
822.289	27180
822.429	26967
822.569	26792
822.709	26876
822.849	26720
822.99	26705
823.13	26716
823.27	26609
823.41	26617
823.55	26404
823.69	26492
823.83	26507
823.97	26332
824.11	26252
824.25	26210
824.389	26256
824.529	26434
824.669	26332
824.809	26457
824.949	26313
825.089	26343
825.228	26408
825.368	26324
825.508	26282
825.648	26138
825.787	26183
825.927	26282
826.067	26180
826.206	26305
826.346	26229
826.485	26328
826.625	26111
826.765	26294
826.904	26237
827.044	26035
827.183	25951
827.323	26008
827.462	25875
827.601	25917
827.741	25860
827.88	25966
828.02	25917
828.159	25868
828.298	25993
828.437	25997
828.577	25833
828.716	26027
828.855	25757
828.994	25548
829.134	25563
829.273	25674
829.412	25632
829.551	25499
829.69	25624
829.829	25582
829.968	25742
830.107	25643
830.246	25685
830.385	25544
830.524	25510
830.663	25282
830.802	25282
830.941	25164
831.08	25084
831.219	25350
831.357	25255
831.496	25324
831.635	25270
831.774	25304
831.913	25339
832.051	25015
832.19	25034
832.329	25008
832.467	24886
832.606	24791
832.744	24673
832.883	24905
833.022	24856
833.16	24848
833.299	24935
833.437	24962
833.576	24966
833.714	24894
833.852	24928
833.991	24951
834.129	24985
834.267	25080
834.406	25050
834.544	25107
834.682	24954
834.821	24935
834.959	25118
835.097	24905
835.235	25103
835.373	24848
835.511	25023
835.65	24768
835.788	24844
835.926	24639
836.064	24395
836.202	24665
836.34	24810
836.478	24859
836.615	24802
836.753	24833
836.891	24795
837.029	24833
837.167	24719
837.305	24604
837.443	24669
837.58	24528
837.718	24665
837.856	24604
837.993	24536
838.131	24513
838.269	24384
838.406	24639
838.544	24399
838.681	24228
838.819	24247
838.956	24045
839.094	24095
839.231	24102
839.369	24262
839.506	24452
839.643	24262
839.781	24041
839.918	23996
840.055	23958
840.193	24110
840.33	23923
840.467	24060
840.604	23999
840.742	24266
840.879	23779
841.016	23969
841.153	23946
841.29	24098
841.427	23942
841.564	23950
841.701	24022
841.838	23863
841.975	23901
842.112	23859
842.249	23813
842.385	23661
842.522	23931
842.659	23672
842.796	23737
842.933	23695
843.069	23642
843.206	23703
843.343	23863
843.479	23714
843.616	23707
843.752	23429
843.889	23619
844.025	23703
844.162	23383
844.298	23596
844.435	23516
844.571	23353
844.708	23547
844.844	23707
844.98	23630
845.117	23516
845.253	23592
845.389	23406
845.525	23311
845.661	23349
845.798	23166
845.934	23277
846.07	23235
846.206	23212
846.342	23395
846.478	23113
846.614	23235
846.75	23105
846.886	22957
847.022	22995
847.158	23071
847.294	23010
847.429	23075
847.565	22885
847.701	23197
847.837	22675
847.972	22603
848.108	22668
848.244	22797
848.379	22710
848.515	22348
848.65	22550
848.786	22546
848.921	22561
849.057	22573
849.192	22561
849.328	22584
849.463	22504
849.598	22554
849.734	22398
849.869	22371
850.004	22295
850.14	22322
850.275	22249
850.41	22318
850.545	22268
850.68	22261
850.815	22318
850.95	22303
851.085	22516
851.22	22489
851.355	22329
851.49	22329
851.625	22322
851.76	22226
851.895	22325
852.03	22128
852.165	22234
852.299	22318
852.434	22291
852.569	22379
852.703	22379
852.838	22394
852.973	22493
853.107	22466
853.242	22367
853.376	22352
853.511	21960
853.645	22109
853.78	22284
853.914	22101
854.048	22044
854.183	22090
854.317	22128
854.451	22375
854.585	22124
854.72	22226
854.854	22105
854.988	22074
855.122	22070
855.256	21979
855.39	22112
855.524	22185
855.658	22261
855.792	22067
855.926	22131
856.06	22200
856.194	22143
856.327	22097
856.461	22059
856.595	22082
856.729	22101
856.862	22200
856.996	22131
857.13	22204
857.263	22215
857.397	22200
857.53	22128
857.664	22226
857.797	22147
857.931	22287
858.064	22124
858.197	22246
858.331	22078
858.464	22074
858.597	22025
858.731	22204
858.864	22070
858.997	22078
859.13	22200
859.263	22158
859.396	22200
859.529	22067
859.662	22036
859.795	22051
859.928	22207
860.061	22261
860.194	22295
860.327	22147
860.46	22207
860.592	22333
860.725	22280
860.858	22238
860.99	22105
861.123	22105
861.256	22150
861.388	22169
861.521	22755
861.653	21972
861.786	21968
861.918	21937
862.05	22067
862.183	21991
862.315	22059
862.447	22169
862.58	21983
862.712	21838
862.844	21751
862.976	22109
863.108	21869
863.24	22253
863.372	21857
863.504	21899
863.636	21861
863.768	21850
863.9	21846
864.032	21827
864.164	21804
864.296	21876
864.428	21907
864.559	21907
864.691	21949
864.823	21854
864.954	21732
865.086	21846
865.217	21739
865.349	21766
865.48	21690
865.612	21656
865.743	21861
865.875	21739
866.006	21797
866.137	21644
866.269	21728
866.4	21732
866.531	21652
866.662	21515
866.793	21648
866.924	21583
867.055	21690
867.186	21629
867.317	21618
867.448	21644
867.579	21637
867.71	21587
867.841	21530
867.972	21599
868.103	21538
868.233	21629
868.364	21580
868.495	21698
868.625	21895
868.756	21949
868.886	21778
869.017	21922
869.147	21998
869.278	21911
869.408	21975
869.539	21865
869.669	22017
869.799	21884
869.929	22063
870.06	22032
870.19	22185
870.32	22211
870.45	22257
870.58	22188
870.71	22314
870.84	22287
870.97	22303
871.1	22310
871.23	22481
871.36	22508
871.489	22462
871.619	22402
871.749	22573
871.879	22394
872.008	22698
872.138	22668
872.267	22447
872.397	22421
872.526	22314
872.656	22325
872.785	22363
872.915	22573
873.044	22675
873.173	22618
873.303	22531
873.432	22573
873.561	22713
873.69	22470
873.819	22367
873.948	22656
874.077	22588
874.206	22447
874.335	22569
874.464	22645
874.593	22755
874.722	22812
874.851	22713
874.979	22793
875.108	22748
875.237	22641
875.365	22599
875.494	22679
875.623	22809
875.751	22675
875.88	22706
876.008	22915
876.136	22942
876.265	23174
876.393	23334
876.521	23185
876.65	23132
876.778	23044
876.906	22942
877.034	22961
877.162	23124
877.29	23052
877.418	23197
877.546	23094
877.674	23121
877.802	23094
877.93	23060
878.058	22965
878.185	22927
878.313	23018
878.441	23143
878.568	22892
878.696	22976
878.824	23083
878.951	23151
879.079	23383
879.206	23398
879.333	23216
879.461	23083
879.588	23216
879.715	23075
879.842	23280
879.97	23121
880.097	22881
880.224	22869
880.351	22949
880.478	22831
880.605	22809
880.732	22831
880.859	23113
880.986	23014
881.112	22816
881.239	22790
881.366	22565
881.493	22596
881.619	22394
881.746	22405
881.872	22519
881.999	22348
882.125	22398
882.252	22451
882.378	22421
882.505	22592
882.631	22386
882.757	22177
882.883	22215
883.01	22166
883.136	22116
883.262	22070
883.388	22074
883.514	22219
883.64	22280
883.766	22097
883.892	21865
884.018	21823
884.143	22036
884.269	22139
884.395	21880
884.52	21682
884.646	21793
884.772	21766
884.897	21682
885.023	21873
885.148	21880
885.274	21827
885.399	21827
885.524	21857
885.65	21808
885.775	21743
885.9	21717
886.025	21888
886.15	21831
886.275	21660
886.4	21618
886.525	21679
886.65	21743
886.775	21648
886.9	21861
887.025	22006
887.149	21686
887.274	21526
887.399	21553
887.523	21519
887.648	21477
887.773	21389
887.897	21637
888.021	21568
888.146	21431
888.27	21572
888.395	21625
888.519	21507
888.643	21545
888.767	21542
888.891	21466
889.015	21344
889.139	21443
889.263	21211
889.387	21389
889.511	21500
889.635	21526
889.759	21325
889.883	21226
890.006	21294
890.13	21439
890.254	21405
890.377	21275
890.501	21138
890.624	21108
890.748	21093
890.871	21020
890.995	20899
891.118	20834
891.241	20788
891.364	20948
891.488	21119
891.611	20800
891.734	20944
891.857	20910
891.98	20891
892.103	20876
892.226	20845
892.349	20823
892.471	20712
892.594	20735
892.717	20708
892.839	20785
892.962	20857
893.085	20891
893.207	20640
893.33	20689
893.452	20819
893.575	20796
893.697	20674
893.819	20960
893.941	21096
894.064	20811
894.186	20727
894.308	20686
894.43	20781
894.552	20823
894.674	20842
894.796	20758
894.918	20587
895.04	20762
895.161	20750
895.283	20735
895.405	20724
895.526	20815
895.648	20708
895.769	20716
895.891	20758
896.012	20807
896.134	20834
896.255	20788
896.376	20777
896.498	20826
896.619	20804
896.74	20701
896.861	20849
896.982	20986
897.103	21138
897.224	21017
897.345	20952
897.466	20899
897.587	20872
897.708	21062
897.828	21047
897.949	20948
898.07	20834
898.19	20872
898.311	21001
898.431	20910
898.552	20975
898.672	21123
898.792	21127
898.913	20914
899.033	20853
899.153	20731
899.273	20617
899.393	20674
899.513	20712
899.633	20636
899.753	20705
899.873	20708
899.993	20788
900.113	20609
900.232	20716
900.352	20609
900.472	20579
900.591	20480
900.711	20461
900.83	20442
900.95	20492
901.069	20602
901.189	20278
901.308	20107
901.427	20069
901.546	20073
901.665	20054
901.784	19993
901.904	19932
902.023	19772
902.141	19510
902.26	19613
902.379	19613
902.498	19499
902.617	19537
902.735	19635
902.854	19502
902.973	19384
903.091	19263
903.21	19362
903.328	19251
903.446	19179
903.565	19053
903.683	18901
903.801	18962
903.919	18962
904.038	19008
904.156	18821
904.274	18779
904.392	18627
904.51	18757
904.627	18726
904.745	18650
904.863	18810
904.981	18559
905.098	18483
905.216	18342
905.334	18547
905.451	18486
905.569	18486
905.686	18532
905.803	18422
905.921	18281
906.038	18369
906.155	18342
906.272	18201
906.389	18068
906.506	17965
906.623	18003
906.74	17904
906.857	17866
906.974	17946
907.091	18003
907.208	18076
907.324	17977
907.441	17779
907.557	17733
907.674	17558
907.79	17554
907.907	17672
908.023	17680
908.139	17672
908.256	17600
908.372	17604
908.488	17566
908.604	17425
908.72	17429
908.836	17448
908.952	17356
909.068	17406
909.184	17562
909.3	17474
909.415	17322
909.531	17410
909.647	17143
909.762	17094
909.878	17048
909.993	17162
910.108	16995
910.224	17052
910.339	16968
910.454	16866
910.57	16843
910.685	16782
910.8	17102
910.915	17033
911.03	16908
911.145	16740
911.259	16588
911.374	16713
911.489	16694
911.604	16558
911.718	16409
911.833	16375
911.947	16211
912.062	16344
912.176	16455
912.291	16413
912.405	16443
912.519	16626
912.633	16615
912.748	16428
912.862	16325
912.976	16295
913.09	16166
913.204	16192
913.318	16211
913.431	16432
913.545	16268
913.659	16230
913.772	16196
913.886	16017
914	15930
914.113	16143
914.226	16158
914.34	16112
914.453	15899
914.566	16059
914.68	15941
914.793	15960
914.906	15709
915.019	15759
915.132	15542
915.245	15652
915.358	15724
915.47	15641
915.583	15641
915.696	15614
915.809	15800
915.921	15797
916.034	15526
916.146	15523
916.259	15595
916.371	15622
916.483	15603
916.595	15500
916.708	15481
916.82	15389
916.932	15332
917.044	15382
917.156	15397
917.268	15298
917.38	15230
917.491	15222
917.603	15321
917.715	15287
917.826	15378
917.938	15203
918.049	15089
918.161	15184
918.272	15370
918.384	15405
918.495	15222
918.606	15032
918.717	14944
918.828	15028
918.939	15199
919.05	14857
919.161	15001
919.272	14693
919.383	14887
919.494	15077
919.604	15146
919.715	14902
919.826	14910
919.936	14944
920.047	14982
920.157	14975
920.267	15146
920.378	15085
920.488	14941
920.598	15169
920.708	15184
920.818	15100
920.928	15028
921.038	15211
921.148	15142
921.258	14929
921.368	14819
921.477	14678
921.587	14678
921.697	14625
921.806	14598
921.916	14564
922.025	14381
922.134	14290
922.244	14256
922.353	14408
922.462	14202
922.571	14199
922.68	13906
922.789	13928
922.898	14024
923.007	13959
923.116	14103
923.224	14012
923.333	13947
923.442	13894
923.55	13830
923.659	13772
923.767	13784
923.876	13788
923.984	13807
924.092	13689
924.201	13662
924.309	13757
924.417	13734
924.525	13605
924.633	13578
924.741	14366
924.849	13434
924.956	13506
925.064	13377
925.172	13320
925.279	13263
925.387	13377
925.494	13301
925.602	13449
925.709	13419
925.816	13270
925.924	13304
926.031	13381
926.138	13293
926.245	13362
926.352	13217
926.459	13339
926.566	13293
926.673	13194
926.779	13213
926.886	13061
926.993	12928
927.099	12935
927.206	12928
927.312	12886
927.419	12897
927.525	12935
927.631	12867
927.737	12772
927.843	12817
927.95	12688
928.056	12681
928.162	12795
928.267	12795
928.373	13419
928.479	12810
928.585	12521
928.69	12726
928.796	12593
928.901	12601
929.007	12429
929.112	12593
929.218	12502
929.323	12471
929.428	12464
929.533	12517
929.638	12422
929.743	12426
929.848	12376
929.953	12384
930.058	12300
930.163	12129
930.267	12102
930.372	12243
930.477	12091
930.581	12247
930.685	12228
930.79	11999
930.894	12072
930.998	11939
931.103	12072
931.207	11802
931.311	11592
931.415	11547
931.519	11436
931.623	11444
