Data from test_V78500241_3174.txt Node
Date: Fri Mar 25 16:03:47 CST 2022
User: usil
Spectrometer: V785-0024
Trigger mode: 0
Integration Time (sec): 4.000000E-1
Scans to average: 1
Nonlinearity correction enabled: false
Boxcar width: 0
Storing dark spectrum: false
XAxis mode: Wavelengths
Number of Pixels in Spectrum: 1024
>>>>>Begin Spectral Data<<<<<
801.071	28702
801.214	28698
801.356	28386
801.499	28291
801.641	28139
801.783	28253
801.926	28257
802.068	28147
802.211	28040
802.353	27895
802.496	27850
802.638	27873
802.78	27819
802.923	27831
803.065	27671
803.208	27899
803.35	27808
803.492	28070
803.635	28010
803.777	28074
803.919	28131
804.061	28390
804.204	28101
804.346	28147
804.488	28177
804.63	28048
804.773	28124
804.915	28352
805.057	28173
805.199	28059
805.341	28226
805.483	28177
805.626	28139
805.768	28192
805.91	28280
806.052	28253
806.194	28215
806.336	28443
806.478	28173
806.62	28177
806.762	28390
806.904	28478
807.046	28752
807.188	28759
807.33	28710
807.472	28721
807.614	28736
807.756	28892
807.898	28440
808.04	28417
808.182	28485
808.324	28649
808.465	28561
808.607	28873
808.749	28904
808.891	29037
809.033	29140
809.174	29010
809.316	28930
809.458	28881
809.6	28934
809.741	28934
809.883	28927
810.025	29265
810.166	29345
810.308	29383
810.45	29136
810.591	29181
810.733	28972
810.875	28953
811.016	28987
811.158	28809
811.299	29143
811.441	29060
811.582	29200
811.724	28957
811.865	28980
812.007	28972
812.148	29044
812.29	29132
812.431	29159
812.573	29216
812.714	29387
812.855	29429
812.997	29634
813.138	29573
813.279	29733
813.421	29566
813.562	29497
813.703	29185
813.845	29170
813.986	28938
814.127	28831
814.268	28618
814.41	28656
814.551	28706
814.692	28694
814.833	28653
814.974	28634
815.115	28782
815.256	28565
815.397	28500
815.539	28573
815.68	28512
815.821	28417
815.962	28447
816.103	28451
816.244	28398
816.385	28154
816.526	28215
816.666	28063
816.807	27975
816.948	28120
817.089	28051
817.23	27857
817.371	27869
817.512	27987
817.653	27972
817.793	27831
817.934	27755
818.075	27960
818.216	27994
818.356	27937
818.497	27823
818.638	27671
818.778	27736
818.919	27789
819.06	27892
819.2	28013
819.341	28059
819.481	27918
819.622	28257
819.762	28363
819.903	28181
820.043	28051
820.184	28253
820.324	28162
820.465	28101
820.605	28074
820.746	28219
820.886	28067
821.026	28059
821.167	28116
821.307	28139
821.447	28078
821.588	27994
821.728	27755
821.868	27667
822.008	27523
822.149	27386
822.289	27504
822.429	27188
822.569	27013
822.709	27093
822.849	27043
822.99	26910
823.13	26895
823.27	26819
823.41	26746
823.55	26648
823.69	26845
823.83	26811
823.97	26815
824.11	26514
824.25	26530
824.389	26678
824.529	26682
824.669	26682
824.809	26746
824.949	26739
825.089	26712
825.228	26743
825.368	26579
825.508	26609
825.648	26412
825.787	26522
825.927	26488
826.067	26564
826.206	26511
826.346	26545
826.485	26545
826.625	26492
826.765	26587
826.904	26488
827.044	26347
827.183	26229
827.323	26221
827.462	26381
827.601	26256
827.741	26248
827.88	26290
828.02	26278
828.159	26081
828.298	26183
828.437	26336
828.577	26142
828.716	26244
828.855	26176
828.994	26035
829.134	25982
829.273	25871
829.412	25921
829.551	25909
829.69	25795
829.829	26035
829.968	26016
830.107	26016
830.246	25936
830.385	25898
830.524	25788
830.663	25791
830.802	25784
830.941	25518
831.08	25548
831.219	25457
831.357	25677
831.496	25666
831.635	25540
831.774	25479
831.913	25377
832.051	25289
832.19	25152
832.329	25247
832.467	25206
832.606	25133
832.744	25053
832.883	25129
833.022	25137
833.16	25141
833.299	25187
833.437	25164
833.576	25198
833.714	25228
833.852	25278
833.991	25278
834.129	25304
834.267	25339
834.406	25206
834.544	25198
834.682	25384
834.821	25304
834.959	25407
835.097	25331
835.235	25301
835.373	25103
835.511	25103
835.65	25072
835.788	25046
835.926	25034
836.064	24840
836.202	24909
836.34	24996
836.478	25160
836.615	25053
836.753	25065
836.891	25145
837.029	25061
837.167	25019
837.305	24966
837.443	24894
837.58	25027
837.718	24992
837.856	24935
837.993	24779
838.131	24863
838.269	24764
838.406	24665
838.544	24696
838.681	24696
838.819	24490
838.956	24304
839.094	24414
839.231	24372
839.369	24593
839.506	24711
839.643	24623
839.781	24433
839.918	24281
840.055	24232
840.193	24403
840.33	24296
840.467	24296
840.604	24167
840.742	24517
840.879	24213
841.016	24152
841.153	24110
841.29	24296
841.427	24125
841.564	24308
841.701	24334
841.838	24296
841.975	24114
842.112	24186
842.249	23996
842.385	23999
842.522	24270
842.659	24144
842.796	24095
842.933	24015
843.069	23866
843.206	23775
843.343	23973
843.479	24045
843.616	24057
843.752	23824
843.889	23817
844.025	23916
844.162	23764
844.298	23923
844.435	23843
844.571	23817
844.708	23836
844.844	23832
844.98	23855
845.117	23885
845.253	23642
845.389	23630
845.525	23745
845.661	23653
845.798	23512
845.934	23551
846.07	23539
846.206	23478
846.342	23649
846.478	23421
846.614	23360
846.75	23242
846.886	23273
847.022	23376
847.158	23273
847.294	23326
847.429	23349
847.565	23273
847.701	23376
847.837	22839
847.972	22938
848.108	23094
848.244	23159
848.379	22858
848.515	22904
848.65	22801
848.786	22869
848.921	22881
849.057	23090
849.192	22915
849.328	22892
849.463	22866
849.598	22885
849.734	22611
849.869	22740
850.004	22470
850.14	22668
850.275	22577
850.41	22500
850.545	22508
850.68	22497
850.815	22497
850.95	22557
851.085	22778
851.22	22713
851.355	22596
851.49	22660
851.625	22668
851.76	22531
851.895	22443
852.03	22637
852.165	22557
852.299	22512
852.434	22596
852.569	22615
852.703	22630
852.838	22740
852.973	22782
853.107	22683
853.242	22672
853.376	22394
853.511	22356
853.645	22462
853.78	22573
853.914	22577
854.048	22371
854.183	22466
854.317	22462
854.451	22607
854.585	22421
854.72	22333
854.854	22603
854.988	22417
855.122	22436
855.256	22299
855.39	22360
855.524	22523
855.658	22428
855.792	22375
855.926	22440
856.06	22402
856.194	22478
856.327	22257
856.461	22348
856.595	22329
856.729	22348
856.862	22417
856.996	22363
857.13	22535
857.263	22569
857.397	22356
857.53	22371
857.664	22573
857.797	22470
857.931	22424
858.064	22390
858.197	22577
858.331	22455
858.464	22166
858.597	22242
858.731	22474
858.864	22512
858.997	22314
859.13	22417
859.263	22440
859.396	22523
859.529	22424
859.662	22287
859.795	22375
859.928	22535
860.061	22569
860.194	22481
860.327	22527
860.46	22504
860.592	22504
860.725	22573
860.858	22497
860.99	22512
861.123	22432
861.256	22318
861.388	22470
861.521	23121
861.653	22295
861.786	22154
861.918	22291
862.05	22268
862.183	22249
862.315	22428
862.447	22371
862.58	22325
862.712	22059
862.844	22181
862.976	22219
863.108	22238
863.24	22443
863.372	22025
863.504	22200
863.636	22109
863.768	22150
863.9	22101
864.032	22101
864.164	22010
864.296	22120
864.428	22223
864.559	22211
864.691	22154
864.823	22181
864.954	22135
865.086	22055
865.217	22109
865.349	21895
865.48	22067
865.612	22105
865.743	22135
865.875	22067
866.006	21964
866.137	21987
866.269	22074
866.4	21968
866.531	21968
866.662	21934
866.793	22006
866.924	22040
867.055	21975
867.186	21918
867.317	21819
867.448	21861
867.579	21899
867.71	21793
867.841	21846
867.972	21861
868.103	21819
868.233	22017
868.364	21907
868.495	21949
868.625	22097
868.756	22314
868.886	22070
869.017	22158
869.147	22242
869.278	22337
869.408	22173
869.539	22230
869.669	22143
869.799	22234
869.929	22329
870.06	22390
870.19	22554
870.32	22436
870.45	22459
870.58	22573
870.71	22683
870.84	22713
870.97	22489
871.1	22584
871.23	22679
871.36	22809
871.489	22656
871.619	22679
871.749	22771
871.879	22881
872.008	22835
872.138	22858
872.267	22774
872.397	22542
872.526	22569
872.656	22611
872.785	22577
872.915	22774
873.044	22816
873.173	22771
873.303	22904
873.432	22797
873.561	22961
873.69	22782
873.819	22877
873.948	22828
874.077	22767
874.206	22729
874.335	22862
874.464	22908
874.593	22991
874.722	23022
874.851	23037
874.979	23029
875.108	23037
875.237	22923
875.365	22881
875.494	22972
875.623	23075
875.751	22953
875.88	22968
876.008	23162
876.136	23269
876.265	23455
876.393	23566
876.521	23459
876.65	23596
876.778	23467
876.906	23353
877.034	23341
877.162	23360
877.29	23482
877.418	23337
877.546	23379
877.674	23307
877.802	23349
877.93	23303
878.058	23429
878.185	23292
878.313	23197
878.441	23284
878.568	23193
878.696	23204
878.824	23356
878.951	23547
879.079	23531
879.206	23752
879.333	23410
879.461	23417
879.588	23467
879.715	23474
879.842	23623
879.97	23349
880.097	23079
880.224	23090
880.351	23341
880.478	23197
880.605	23204
880.732	23109
880.859	23414
880.986	23200
881.112	23102
881.239	23022
881.366	22949
881.493	22900
881.619	22736
881.746	22710
881.872	22873
881.999	22729
882.125	22596
882.252	22793
882.378	22584
882.505	22786
882.631	22481
882.757	22421
882.883	22561
883.01	22402
883.136	22390
883.262	22306
883.388	22333
883.514	22462
883.64	22489
883.766	22341
883.892	22097
884.018	22310
884.143	22382
884.269	22402
884.395	22051
884.52	21991
884.646	22059
884.772	21937
884.897	21979
885.023	21960
885.148	22090
885.274	22097
885.399	22029
885.524	22082
885.65	21937
885.775	22006
885.9	22010
886.025	22207
886.15	22116
886.275	22017
886.4	21926
886.525	22029
886.65	21903
886.775	21975
886.9	22207
887.025	22242
887.149	22044
887.274	21835
887.399	21816
887.523	21732
887.648	21747
887.773	21682
887.897	21854
888.021	21835
888.146	21663
888.27	21994
888.395	21911
888.519	21827
888.643	21835
888.767	21724
888.891	21644
889.015	21720
889.139	21610
889.263	21568
889.387	21709
889.511	21766
889.635	21705
889.759	21622
889.883	21587
890.006	21660
890.13	21553
890.254	21359
890.377	21454
890.501	21359
890.624	21245
890.748	21348
890.871	21089
890.995	21313
891.118	20975
891.241	21127
891.364	21241
891.488	21298
891.611	21226
891.734	21138
891.857	21138
891.98	21135
892.103	21161
892.226	21135
892.349	21108
892.471	20902
892.594	21085
892.717	21085
892.839	21013
892.962	21108
893.085	21055
893.207	21058
893.33	20902
893.452	20982
893.575	21112
893.697	20979
893.819	21214
893.941	21096
894.064	21138
894.186	20956
894.308	20990
894.43	21062
894.552	21081
894.674	21001
894.796	20960
894.918	20979
895.04	20982
895.161	21116
895.283	21142
895.405	20998
895.526	21085
895.648	20979
895.769	20891
895.891	20971
896.012	21135
896.134	20918
896.255	21081
896.376	20960
896.498	21020
896.619	21123
896.74	21036
896.861	21085
896.982	21329
897.103	21401
897.224	21199
897.345	21310
897.466	21195
897.587	21142
897.708	21317
897.828	21279
897.949	21192
898.07	21066
898.19	21085
898.311	21192
898.431	21230
898.552	21150
898.672	21207
898.792	21146
898.913	21138
899.033	21112
899.153	20967
899.273	20876
899.393	21020
899.513	20982
899.633	20971
899.753	20941
899.873	20918
899.993	20861
900.113	20857
900.232	20845
900.352	20826
900.472	20716
900.591	20769
900.711	20708
900.83	20651
900.95	20880
901.069	20838
901.189	20526
901.308	20438
901.427	20298
901.546	20187
901.665	20343
901.784	20317
901.904	20092
902.023	20149
902.141	19879
902.26	19746
902.379	19788
902.498	19871
902.617	19788
902.735	19715
902.854	19757
902.973	19757
903.091	19491
903.21	19491
903.328	19491
903.446	19304
903.565	19244
903.683	19346
903.801	19072
903.919	19274
904.038	19270
904.156	19084
904.274	19038
904.392	18962
904.51	19023
904.627	19000
904.745	18939
904.863	19027
904.981	18795
905.098	18726
905.216	18642
905.334	18612
905.451	18707
905.569	18677
905.686	18669
905.803	18570
905.921	18410
906.038	18631
906.155	18540
906.272	18315
906.389	18319
906.506	18273
906.623	18251
906.74	18152
906.857	18053
906.974	18083
907.091	18243
907.208	18289
907.324	18220
907.441	18129
907.557	17988
907.674	17954
907.79	17737
907.907	17805
908.023	17950
908.139	17885
908.256	17859
908.372	17794
908.488	17760
908.604	17604
908.72	17642
908.836	17676
908.952	17524
909.068	17581
909.184	17737
909.3	17684
909.415	17608
909.531	17554
909.647	17383
909.762	17322
909.878	17360
909.993	17356
910.108	17296
910.224	17212
910.339	17094
910.454	17193
910.57	17162
910.685	17098
910.8	17368
910.915	17254
911.03	17094
911.145	16889
911.259	16854
911.374	16816
911.489	16850
911.604	16771
911.718	16664
911.833	16664
911.947	16611
912.062	16455
912.176	16660
912.291	16592
912.405	16592
912.519	16835
912.633	16854
912.748	16759
912.862	16603
912.976	16523
913.09	16363
913.204	16398
913.318	16428
913.431	16466
913.545	16580
913.659	16512
913.772	16432
913.886	16257
914	16188
914.113	16215
914.226	16344
914.34	16284
914.453	16112
914.566	16276
914.68	16196
914.793	16082
914.906	15960
915.019	15842
915.132	15667
915.245	15774
915.358	15873
915.47	15778
915.583	15774
915.696	15865
915.809	15979
915.921	15998
916.034	15762
916.146	15663
916.259	15751
916.371	15778
916.483	15857
916.595	15633
916.708	15770
916.82	15610
916.932	15542
917.044	15545
917.156	15538
917.268	15443
917.38	15435
917.491	15553
917.603	15336
917.715	15492
917.826	15538
917.938	15397
918.049	15359
918.161	15363
918.272	15496
918.384	15485
918.495	15367
918.606	15249
918.717	15146
918.828	15245
918.939	15146
919.05	15100
919.161	15218
919.272	14963
919.383	15077
919.494	15230
919.604	15397
919.715	15154
919.826	15055
919.936	15047
920.047	15165
920.157	15119
920.267	15382
920.378	15077
920.488	15184
920.598	15321
920.708	15359
920.818	15184
920.928	15272
921.038	15450
921.148	15287
921.258	15142
921.368	15005
921.477	14864
921.587	14830
921.697	14735
921.806	14861
921.916	14689
922.025	14503
922.134	14522
922.244	14465
922.353	14522
922.462	14446
922.571	14313
922.68	14172
922.789	14142
922.898	14191
923.007	14001
923.116	14157
923.224	14046
923.333	14187
923.442	13955
923.55	13944
923.659	14024
923.767	14069
923.876	13963
923.984	13978
924.092	13818
924.201	13879
924.309	13799
924.417	13830
924.525	13818
924.633	13734
924.741	14541
924.849	13540
924.956	13651
925.064	13609
925.172	13521
925.279	13506
925.387	13563
925.494	13472
925.602	13616
925.709	13628
925.816	13438
925.924	13384
926.031	13578
926.138	13388
926.245	13483
926.352	13331
926.459	13529
926.566	13567
926.673	13354
926.779	13278
926.886	13308
926.993	13198
927.099	12977
927.206	13034
927.312	13027
927.419	13072
927.525	13069
927.631	13065
927.737	12951
927.843	12924
927.95	12837
928.056	12821
928.162	12890
928.267	12882
928.373	13434
928.479	12928
928.585	12768
928.69	12810
928.796	12852
928.901	12764
929.007	12578
929.112	12707
929.218	12673
929.323	12559
929.428	12601
929.533	12734
929.638	12513
929.743	12616
929.848	12597
929.953	12532
930.058	12437
930.163	12224
930.267	12308
930.372	12410
930.477	12224
930.581	12452
930.685	12330
930.79	12053
930.894	12152
930.998	12045
931.103	12327
931.207	11931
931.311	11779
931.415	11699
931.519	11547
931.623	11497
