Data from test_V78500241_2456.txt Node
Date: Fri Mar 25 15:58:48 CST 2022
User: usil
Spectrometer: V785-0024
Trigger mode: 0
Integration Time (sec): 4.000000E-1
Scans to average: 1
Nonlinearity correction enabled: false
Boxcar width: 0
Storing dark spectrum: false
XAxis mode: Wavelengths
Number of Pixels in Spectrum: 1024
>>>>>Begin Spectral Data<<<<<
801.071	29098
801.214	29105
801.356	28763
801.499	28782
801.641	28615
801.783	28672
801.926	28656
802.068	28702
802.211	28592
802.353	28478
802.496	28405
802.638	28440
802.78	28375
802.923	28299
803.065	28105
803.208	28310
803.35	28538
803.492	28603
803.635	28584
803.777	28470
803.919	28603
804.061	28892
804.204	28603
804.346	28603
804.488	28508
804.63	28607
804.773	28550
804.915	28698
805.057	28816
805.199	28668
805.341	28641
805.483	28740
805.626	28748
805.768	28626
805.91	28873
806.052	28885
806.194	28767
806.336	28957
806.478	28729
806.62	28900
806.762	28995
806.904	29086
807.046	29356
807.188	29265
807.33	29254
807.472	29303
807.614	29311
807.756	29235
807.898	29197
808.04	29113
808.182	29124
808.324	29056
808.465	29239
808.607	29242
808.749	29490
808.891	29566
809.033	29589
809.174	29649
809.316	29528
809.458	29486
809.6	29448
809.741	29528
809.883	29615
810.025	29756
810.166	29779
810.308	29874
810.45	29695
810.591	29634
810.733	29589
810.875	29539
811.016	29353
811.158	29387
811.299	29600
811.441	29752
811.582	29699
811.724	29463
811.865	29509
812.007	29577
812.148	29608
812.29	29646
812.431	29802
812.573	29824
812.714	29942
812.855	30045
812.997	30140
813.138	30254
813.279	30098
813.421	30155
813.562	30083
813.703	29912
813.845	29798
813.986	29490
814.127	29452
814.268	29307
814.41	29193
814.551	29159
814.692	29356
814.833	29155
814.974	29124
815.115	29277
815.256	29121
815.397	29044
815.539	29269
815.68	29029
815.821	28976
815.962	29083
816.103	29044
816.244	28987
816.385	29041
816.526	28809
816.666	28615
816.807	28459
816.948	28713
817.089	28527
817.23	28535
817.371	28645
817.512	28656
817.653	28660
817.793	28436
817.934	28554
818.075	28634
818.216	28443
818.356	28580
818.497	28504
818.638	28329
818.778	28428
818.919	28325
819.06	28512
819.2	28607
819.341	28569
819.481	28698
819.622	28645
819.762	28957
819.903	28771
820.043	28771
820.184	28752
820.324	28740
820.465	28740
820.605	28717
820.746	28755
820.886	28580
821.026	28630
821.167	28641
821.307	28687
821.447	28462
821.588	28531
821.728	28432
821.868	28177
822.008	27975
822.149	28055
822.289	27945
822.429	27789
822.569	27762
822.709	27747
822.849	27591
822.99	27591
823.13	27538
823.27	27660
823.41	27431
823.55	27131
823.69	27481
823.83	27389
823.97	27363
824.11	27066
824.25	27058
824.389	27218
824.529	27279
824.669	27211
824.809	27412
824.949	27412
825.089	27378
825.228	27363
825.368	27096
825.508	27131
825.648	27150
825.787	27195
825.927	27020
826.067	27009
826.206	27146
826.346	27108
826.485	27161
826.625	27028
826.765	27165
826.904	27154
827.044	26864
827.183	26830
827.323	26750
827.462	27013
827.601	26830
827.741	26781
827.88	26796
828.02	26746
828.159	26819
828.298	26872
828.437	26899
828.577	26785
828.716	26998
828.855	26689
828.994	26492
829.134	26640
829.273	26503
829.412	26511
829.551	26594
829.69	26568
829.829	26431
829.968	26727
830.107	26564
830.246	26511
830.385	26423
830.524	26317
830.663	26343
830.802	26210
830.941	26126
831.08	26138
831.219	26153
831.357	26328
831.496	26320
831.635	26122
831.774	26069
831.913	26054
832.051	25944
832.19	26027
832.329	25940
832.467	25841
832.606	25712
832.744	25849
832.883	25791
833.022	25799
833.16	25822
833.299	25906
833.437	25879
833.576	25837
833.714	25887
833.852	25856
833.991	25947
834.129	25966
834.267	25936
834.406	25894
834.544	25902
834.682	25849
834.821	25765
834.959	25955
835.097	25772
835.235	25776
835.373	25856
835.511	25898
835.65	25613
835.788	25685
835.926	25537
836.064	25453
836.202	25597
836.34	25620
836.478	25894
836.615	25704
836.753	25662
836.891	25696
837.029	25696
837.167	25586
837.305	25620
837.443	25468
837.58	25537
837.718	25540
837.856	25491
837.993	25335
838.131	25601
838.269	25221
838.406	25415
838.544	25175
838.681	25095
838.819	25050
838.956	25008
839.094	24939
839.231	25019
839.369	25099
839.506	25282
839.643	25091
839.781	24852
839.918	24886
840.055	24977
840.193	24791
840.33	24890
840.467	24928
840.604	24867
840.742	25057
840.879	24821
841.016	24696
841.153	24730
841.29	24989
841.427	24681
841.564	24981
841.701	24897
841.838	24837
841.975	24715
842.112	24764
842.249	24745
842.385	24730
842.522	24757
842.659	24684
842.796	24551
842.933	24684
843.069	24616
843.206	24551
843.343	24669
843.479	24692
843.616	24612
843.752	24353
843.889	24376
844.025	24486
844.162	24429
844.298	24437
844.435	24342
844.571	24319
844.708	24502
844.844	24509
844.98	24456
845.117	24490
845.253	24258
845.389	24251
845.525	24292
845.661	24254
845.798	24144
845.934	24159
846.07	23999
846.206	24148
846.342	24281
846.478	24072
846.614	23836
846.75	23733
846.886	23813
847.022	23836
847.158	23870
847.294	23767
847.429	23923
847.565	23775
847.701	23980
847.837	23573
847.972	23528
848.108	23638
848.244	23642
848.379	23433
848.515	23387
848.65	23421
848.786	23372
848.921	23474
849.057	23539
849.192	23512
849.328	23505
849.463	23383
849.598	23425
849.734	23200
849.869	23269
850.004	23170
850.14	23273
850.275	23132
850.41	23075
850.545	23174
850.68	23155
850.815	23166
850.95	23079
851.085	23436
851.22	23261
851.355	23311
851.49	23197
851.625	23223
851.76	23109
851.895	23121
852.03	23041
852.165	23060
852.299	23151
852.434	23337
852.569	23178
852.703	23185
852.838	23311
852.973	23273
853.107	23337
853.242	23159
853.376	23105
853.511	22873
853.645	23128
853.78	23117
853.914	23033
854.048	22904
854.183	22896
854.317	22908
854.451	23181
854.585	22957
854.72	23037
854.854	23037
854.988	22946
855.122	23044
855.256	22965
855.39	22915
855.524	23109
855.658	22980
855.792	23090
855.926	23033
856.06	23033
856.194	23075
856.327	23044
856.461	22972
856.595	22930
856.729	22847
856.862	22965
856.996	22972
857.13	23064
857.263	23102
857.397	23105
857.53	22976
857.664	23037
857.797	23014
857.931	23075
858.064	23064
858.197	23250
858.331	22972
858.464	23022
858.597	22904
858.731	22957
858.864	22911
858.997	22946
859.13	22972
859.263	23052
859.396	23280
859.529	22976
859.662	22923
859.795	22953
859.928	22927
860.061	23109
860.194	23223
860.327	23071
860.46	22953
860.592	23003
860.725	23121
860.858	23044
860.99	23014
861.123	22923
861.256	22889
861.388	22946
861.521	23832
861.653	22774
861.786	22744
861.918	22774
862.05	22885
862.183	22949
862.315	22847
862.447	22987
862.58	22881
862.712	22717
862.844	22679
862.976	22752
863.108	22725
863.24	23094
863.372	22702
863.504	22580
863.636	22698
863.768	22729
863.9	22679
864.032	22557
864.164	22603
864.296	22687
864.428	22869
864.559	22698
864.691	22710
864.823	22645
864.954	22660
865.086	22687
865.217	22607
865.349	22413
865.48	22531
865.612	22622
865.743	22675
865.875	22641
866.006	22584
866.137	22519
866.269	22531
866.4	22641
866.531	22478
866.662	22382
866.793	22440
866.924	22542
867.055	22588
867.186	22634
867.317	22466
867.448	22337
867.579	22413
867.71	22440
867.841	22474
867.972	22459
868.103	22531
868.233	22500
868.364	22577
868.495	22713
868.625	22618
868.756	22881
868.886	22607
869.017	22687
869.147	22820
869.278	22649
869.408	22778
869.539	22759
869.669	22793
869.799	22824
869.929	22801
870.06	22854
870.19	23140
870.32	23018
870.45	23071
870.58	23136
870.71	23216
870.84	23277
870.97	23140
871.1	23166
871.23	23231
871.36	23376
871.489	23387
871.619	23353
871.749	23467
871.879	23402
872.008	23524
872.138	23452
872.267	23353
872.397	23197
872.526	23117
872.656	23269
872.785	23166
872.915	23417
873.044	23398
873.173	23463
873.303	23296
873.432	23318
873.561	23474
873.69	23372
873.819	23258
873.948	23296
874.077	23474
874.206	23322
874.335	23467
874.464	23448
874.593	23463
874.722	23611
874.851	23592
874.979	23551
875.108	23699
875.237	23512
875.365	23497
875.494	23551
875.623	23501
875.751	23634
875.88	23516
876.008	23722
876.136	23649
876.265	24018
876.393	24003
876.521	23973
876.65	24155
876.778	23870
876.906	23992
877.034	23859
877.162	23927
877.29	23733
877.418	23843
877.546	23878
877.674	23866
877.802	23741
877.93	23885
878.058	23863
878.185	23863
878.313	23821
878.441	23958
878.568	23687
878.696	23798
878.824	23931
878.951	23832
879.079	24095
879.206	24125
879.333	23935
879.461	23901
879.588	23988
879.715	24159
879.842	24186
879.97	23977
880.097	23668
880.224	23771
880.351	23809
880.478	23714
880.605	23714
880.732	23771
880.859	23942
880.986	23752
881.112	23828
881.239	23573
881.366	23486
881.493	23395
881.619	23235
881.746	23398
881.872	23349
881.999	23121
882.125	23181
882.252	23326
882.378	23273
882.505	23280
882.631	22961
882.757	22972
882.883	23071
883.01	22850
883.136	22984
883.262	22835
883.388	22858
883.514	22980
883.64	22892
883.766	22866
883.892	22698
884.018	22641
884.143	23010
884.269	22946
884.395	22626
884.52	22470
884.646	22637
884.772	22481
884.897	22535
885.023	22607
885.148	22634
885.274	22713
885.399	22649
885.524	22451
885.65	22588
885.775	22618
885.9	22615
886.025	22634
886.15	22618
886.275	22466
886.4	22432
886.525	22504
886.65	22451
886.775	22481
886.9	22649
887.025	22706
887.149	22512
887.274	22367
887.399	22325
887.523	22432
887.648	22177
887.773	22257
887.897	22428
888.021	22261
888.146	22280
888.27	22390
888.395	22329
888.519	22295
888.643	22295
888.767	22341
888.891	22169
889.015	22025
889.139	22196
889.263	22029
889.387	22162
889.511	22348
889.635	22314
889.759	22063
889.883	21968
890.006	22040
890.13	22188
890.254	21941
890.377	22070
890.501	21869
890.624	21778
890.748	22036
890.871	21850
890.995	21481
891.118	21553
891.241	21618
891.364	21709
891.488	21595
891.611	21766
891.734	21618
891.857	21682
891.98	21591
892.103	21561
892.226	21633
892.349	21530
892.471	21469
892.594	21462
892.717	21671
892.839	21580
892.962	21492
893.085	21625
893.207	21591
893.33	21405
893.452	21443
893.575	21599
893.697	21488
893.819	21545
893.941	21686
894.064	21819
894.186	21458
894.308	21477
894.43	21618
894.552	21610
894.674	21553
894.796	21408
894.918	21504
895.04	21519
895.161	21428
895.283	21515
895.405	21310
895.526	21553
895.648	21382
895.769	21564
895.891	21595
896.012	21526
896.134	21591
896.255	21523
896.376	21496
896.498	21420
896.619	21504
896.74	21397
896.861	21564
896.982	21793
897.103	21816
897.224	21831
897.345	21732
897.466	21637
897.587	21682
897.708	21736
897.828	21747
897.949	21587
898.07	21458
898.19	21629
898.311	21762
898.431	21633
898.552	21622
898.672	21774
898.792	21709
898.913	21637
899.033	21568
899.153	21439
899.273	21313
899.393	21389
899.513	21435
899.633	21386
899.753	21462
899.873	21382
899.993	21401
900.113	21283
900.232	21241
900.352	21222
900.472	21279
900.591	21055
900.711	21131
900.83	21150
900.95	21298
901.069	21275
901.189	20960
901.308	20819
901.427	20739
901.546	20708
901.665	20697
901.784	20689
901.904	20469
902.023	20469
902.141	20259
902.26	20183
902.379	20313
902.498	20252
902.617	20240
902.735	20301
902.854	20282
902.973	20126
903.091	19894
903.21	19818
903.328	19780
903.446	19784
903.565	19632
903.683	19704
903.801	19529
903.919	19624
904.038	19620
904.156	19320
904.274	19578
904.392	19460
904.51	19331
904.627	19453
904.745	19377
904.863	19476
904.981	19217
905.098	19164
905.216	19156
905.334	19118
905.451	19145
905.569	19164
905.686	19190
905.803	19171
905.921	18738
906.038	19000
906.155	18916
906.272	18749
906.389	18810
906.506	18597
906.623	18681
906.74	18578
906.857	18570
906.974	18460
907.091	18719
907.208	18620
907.324	18582
907.441	18517
907.557	18334
907.674	18342
907.79	18254
907.907	18330
908.023	18235
908.139	18300
908.256	18327
908.372	18220
908.488	18174
908.604	18133
908.72	17950
908.836	18076
908.952	18011
909.068	18034
909.184	18049
909.3	18068
909.415	18026
909.531	17969
909.647	17805
909.762	17790
909.878	17710
909.993	17790
910.108	17684
910.224	17760
910.339	17665
910.454	17646
910.57	17566
910.685	17455
910.8	17634
910.915	17577
911.03	17558
911.145	17318
911.259	17315
911.374	17292
911.489	17124
911.604	17079
911.718	17075
911.833	17060
911.947	17045
912.062	16797
912.176	17045
912.291	17041
912.405	17014
912.519	17102
912.633	17258
912.748	17075
912.862	16984
912.976	16869
913.09	16774
913.204	16824
913.318	16820
913.431	16953
913.545	16919
913.659	16927
913.772	16683
913.886	16683
914	16664
914.113	16622
914.226	16694
914.34	16622
914.453	16554
914.566	16687
914.68	16519
914.793	16489
914.906	16272
915.019	16223
915.132	16135
915.245	16196
915.358	16257
915.47	16226
915.583	16116
915.696	16188
915.809	16310
915.921	16306
916.034	16101
916.146	16086
916.259	16177
916.371	16188
916.483	16071
916.595	15949
916.708	15964
916.82	15991
916.932	15941
917.044	15945
917.156	15960
917.268	15842
917.38	15884
917.491	15842
917.603	15915
917.715	15945
917.826	15800
917.938	15705
918.049	15774
918.161	15637
918.272	15915
918.384	15854
918.495	15682
918.606	15523
918.717	15492
918.828	15545
918.939	15595
919.05	15488
919.161	15477
919.272	15222
919.383	15428
919.494	15603
919.604	15713
919.715	15477
919.826	15420
919.936	15412
920.047	15591
920.157	15530
920.267	15690
920.378	15462
920.488	15462
920.598	15701
920.708	15823
920.818	15762
920.928	15595
921.038	15709
921.148	15831
921.258	15412
921.368	15401
921.477	15348
921.587	15097
921.697	15039
921.806	15199
921.916	15005
922.025	14956
922.134	14830
922.244	14792
922.353	14918
922.462	14712
922.571	14613
922.68	14549
922.789	14511
922.898	14393
923.007	14446
923.116	14511
923.224	14476
923.333	14454
923.442	14385
923.55	14244
923.659	14336
923.767	14278
923.876	14206
923.984	14271
924.092	14187
924.201	14172
924.309	14282
924.417	14149
924.525	14088
924.633	14088
924.741	14788
924.849	13913
924.956	14012
925.064	13902
925.172	13765
925.279	13776
925.387	13921
925.494	13822
925.602	13947
925.709	13856
925.816	13700
925.924	13723
926.031	13791
926.138	13788
926.245	13841
926.352	13639
926.459	13887
926.566	13921
926.673	13636
926.779	13518
926.886	13556
926.993	13457
927.099	13460
927.206	13297
927.312	13358
927.419	13464
927.525	13346
927.631	13312
927.737	13206
927.843	13213
927.95	13065
928.056	13050
928.162	13190
928.267	13202
928.373	13822
928.479	13270
928.585	12901
928.69	13088
928.796	13126
928.901	13046
929.007	12859
929.112	13156
929.218	12935
929.323	12905
929.428	12871
929.533	12996
929.638	12894
929.743	12909
929.848	12829
929.953	12787
930.058	12726
930.163	12582
930.267	12570
930.372	12719
930.477	12467
930.581	12688
930.685	12574
930.79	12407
930.894	12410
930.998	12391
931.103	12525
931.207	12194
931.311	12076
931.415	11946
931.519	11786
931.623	11832
