Data from test_V78500241_444.txt Node
Date: Fri Mar 25 15:44:52 CST 2022
User: usil
Spectrometer: V785-0024
Trigger mode: 0
Integration Time (sec): 4.000000E-1
Scans to average: 1
Nonlinearity correction enabled: false
Boxcar width: 0
Storing dark spectrum: false
XAxis mode: Wavelengths
Number of Pixels in Spectrum: 1024
>>>>>Begin Spectral Data<<<<<
801.071	28268
801.214	28379
801.356	28010
801.499	28086
801.641	27846
801.783	27865
801.926	27903
802.068	27880
802.211	27637
802.353	27663
802.496	27652
802.638	27504
802.78	27568
802.923	27408
803.065	27477
803.208	27553
803.35	27603
803.492	27595
803.635	27770
803.777	27545
803.919	27823
804.061	27857
804.204	27755
804.346	27648
804.488	27629
804.63	27667
804.773	27583
804.915	27622
805.057	27618
805.199	27591
805.341	27709
805.483	27694
805.626	27720
805.768	27679
805.91	27907
806.052	27880
806.194	27679
806.336	28021
806.478	27823
806.62	27755
806.762	27914
806.904	28143
807.046	28181
807.188	28295
807.33	28173
807.472	28181
807.614	28044
807.756	28078
807.898	28021
808.04	28074
808.182	27926
808.324	28101
808.465	27991
808.607	28238
808.749	28379
808.891	28489
809.033	28440
809.174	28489
809.316	28451
809.458	28618
809.6	28360
809.741	28504
809.883	28489
810.025	28660
810.166	28698
810.308	28748
810.45	28584
810.591	28599
810.733	28451
810.875	28436
811.016	28314
811.158	28291
811.299	28497
811.441	28500
811.582	28497
811.724	28440
811.865	28261
812.007	28409
812.148	28249
812.29	28394
812.431	28554
812.573	28710
812.714	28900
812.855	28934
812.997	28995
813.138	29060
813.279	29044
813.421	28847
813.562	28877
813.703	28774
813.845	28615
813.986	28310
814.127	28059
814.268	27899
814.41	27964
814.551	27983
814.692	28021
814.833	27964
814.974	27972
815.115	28097
815.256	27922
815.397	27899
815.539	27953
815.68	27876
815.821	27728
815.962	27835
816.103	27759
816.244	27557
816.385	27641
816.526	27496
816.666	27355
816.807	27230
816.948	27256
817.089	27416
817.23	27313
817.371	27374
817.512	27188
817.653	27298
817.793	27150
817.934	27298
818.075	27370
818.216	27154
818.356	27157
818.497	27100
818.638	27039
818.778	26948
818.919	26925
819.06	27009
819.2	27085
819.341	27116
819.481	27180
819.622	27389
819.762	27526
819.903	27370
820.043	27279
820.184	27260
820.324	27310
820.465	27287
820.605	27351
820.746	27332
820.886	27176
821.026	27336
821.167	27180
821.307	27378
821.447	27199
821.588	27093
821.728	26982
821.868	26921
822.008	26739
822.149	26606
822.289	26735
822.429	26351
822.569	26358
822.709	26366
822.849	26214
822.99	26088
823.13	26062
823.27	26081
823.41	25917
823.55	25814
823.69	25917
823.83	26027
823.97	25940
824.11	25712
824.25	25658
824.389	25715
824.529	25799
824.669	25708
824.809	25822
824.949	25811
825.089	25807
825.228	25803
825.368	25658
825.508	25582
825.648	25609
825.787	25567
825.927	25750
826.067	25430
826.206	25479
826.346	25704
826.485	25677
826.625	25460
826.765	25712
826.904	25571
827.044	25301
827.183	25255
827.323	25213
827.462	25160
827.601	25438
827.741	25320
827.88	25213
828.02	25209
828.159	25225
828.298	25247
828.437	25392
828.577	25148
828.716	25350
828.855	25301
828.994	24859
829.134	25027
829.273	25148
829.412	25008
829.551	24878
829.69	25061
829.829	25008
829.968	24935
830.107	25179
830.246	25023
830.385	24787
830.524	24715
830.663	24730
830.802	24551
830.941	24544
831.08	24521
831.219	24582
831.357	24582
831.496	24817
831.635	24620
831.774	24407
831.913	24380
832.051	24353
832.19	24300
832.329	24490
832.467	24235
832.606	24106
832.744	23942
832.883	24216
833.022	24038
833.16	24228
833.299	24277
833.437	24167
833.576	24266
833.714	24117
833.852	24213
833.991	24247
834.129	24304
834.267	24289
834.406	24346
834.544	24289
834.682	24133
834.821	24152
834.959	24376
835.097	24155
835.235	24220
835.373	24228
835.511	24258
835.65	24015
835.788	24015
835.926	23923
836.064	23912
836.202	23882
836.34	24057
836.478	24106
836.615	23961
836.753	23954
836.891	24087
837.029	23996
837.167	23999
837.305	23954
837.443	23980
837.58	23904
837.718	23908
837.856	23931
837.993	23790
838.131	23927
838.269	23718
838.406	23851
838.544	23745
838.681	23471
838.819	23398
838.956	23486
839.094	23356
839.231	23406
839.369	23600
839.506	23695
839.643	23596
839.781	23292
839.918	23379
840.055	23235
840.193	23277
840.33	23181
840.467	23197
840.604	23292
840.742	23600
840.879	23189
841.016	23136
841.153	22949
841.29	23212
841.427	23254
841.564	23242
841.701	23136
841.838	23181
841.975	23022
842.112	23204
842.249	23014
842.385	22915
842.522	23216
842.659	23113
842.796	22816
842.933	22919
843.069	22987
843.206	22946
843.343	23048
843.479	22927
843.616	22839
843.752	22755
843.889	22702
844.025	22885
844.162	22691
844.298	22790
844.435	22702
844.571	22675
844.708	22782
844.844	22801
844.98	22759
845.117	22889
845.253	22538
845.389	22565
845.525	22755
845.661	22478
845.798	22451
845.934	22550
846.07	22421
846.206	22485
846.342	22550
846.478	22337
846.614	22230
846.75	22188
846.886	22158
847.022	22200
847.158	22234
847.294	22131
847.429	22230
847.565	22196
847.701	22436
847.837	21975
847.972	21880
848.108	22029
848.244	21994
848.379	21850
848.515	21675
848.65	21686
848.786	21641
848.921	21835
849.057	21926
849.192	21876
849.328	21816
849.463	21766
849.598	21641
849.734	21622
849.869	21481
850.004	21557
850.14	21492
850.275	21431
850.41	21469
850.545	21408
850.68	21500
850.815	21542
850.95	21393
851.085	21580
851.22	21641
851.355	21561
851.49	21393
851.625	21416
851.76	21439
851.895	21374
852.03	21389
852.165	21466
852.299	21485
852.434	21610
852.569	21481
852.703	21428
852.838	21530
852.973	21519
853.107	21679
853.242	21428
853.376	21336
853.511	21154
853.645	21165
853.78	21370
853.914	21367
854.048	21272
854.183	21317
854.317	21325
854.451	21504
854.585	21245
854.72	21245
854.854	21256
854.988	21165
855.122	21237
855.256	21226
855.39	21230
855.524	21332
855.658	21466
855.792	21283
855.926	21294
856.06	21329
856.194	21408
856.327	21325
856.461	21249
856.595	21256
856.729	21317
856.862	21389
856.996	21230
857.13	21359
857.263	21386
857.397	21313
857.53	21207
857.664	21344
857.797	21431
857.931	21249
858.064	21313
858.197	21367
858.331	21218
858.464	21142
858.597	21241
858.731	21310
858.864	21245
858.997	21142
859.13	21260
859.263	21351
859.396	21363
859.529	21279
859.662	21135
859.795	21245
859.928	21294
860.061	21511
860.194	21405
860.327	21272
860.46	21351
860.592	21420
860.725	21435
860.858	21454
860.99	21272
861.123	21096
861.256	21256
861.388	21268
861.521	21800
861.653	21119
861.786	21066
861.918	21165
862.05	21104
862.183	21176
862.315	21321
862.447	21344
862.58	21169
862.712	21131
862.844	20899
862.976	21062
863.108	20986
863.24	21389
863.372	20887
863.504	20880
863.636	21039
863.768	21043
863.9	20994
864.032	20876
864.164	20994
864.296	20891
864.428	21055
864.559	20986
864.691	21028
864.823	20857
864.954	20853
865.086	20918
865.217	20804
865.349	20910
865.48	20743
865.612	20925
865.743	20979
865.875	20971
866.006	20781
866.137	20785
866.269	20796
866.4	20716
866.531	20739
866.662	20796
866.793	20773
866.924	20781
867.055	20891
867.186	20667
867.317	20689
867.448	20773
867.579	20781
867.71	20686
867.841	20636
867.972	20864
868.103	20705
868.233	20746
868.364	20739
868.495	20868
868.625	21039
868.756	21051
868.886	20891
869.017	21017
869.147	21119
869.278	21138
869.408	21028
869.539	21077
869.669	21058
869.799	21077
869.929	21123
870.06	21142
870.19	21351
870.32	21386
870.45	21447
870.58	21412
870.71	21477
870.84	21473
870.97	21481
871.1	21447
871.23	21671
871.36	21603
871.489	21587
871.619	21595
871.749	21534
871.879	21705
872.008	21679
872.138	21603
872.267	21660
872.397	21686
872.526	21572
872.656	21386
872.785	21462
872.915	21450
873.044	21618
873.173	21682
873.303	21629
873.432	21572
873.561	21736
873.69	21568
873.819	21690
873.948	21629
874.077	21724
874.206	21576
874.335	21629
874.464	21785
874.593	21865
874.722	21793
874.851	21975
874.979	21816
875.108	21869
875.237	21751
875.365	21857
875.494	21823
875.623	21945
875.751	21873
875.88	21884
876.008	21907
876.136	22051
876.265	22272
876.393	22409
876.521	22226
876.65	22314
876.778	22249
876.906	22299
877.034	22162
877.162	22257
877.29	22242
877.418	22211
877.546	22162
877.674	22166
877.802	22112
877.93	22055
878.058	22051
878.185	22090
878.313	22234
878.441	22268
878.568	22120
878.696	22116
878.824	22230
878.951	22143
879.079	22390
879.206	22474
879.333	22318
879.461	22272
879.588	22398
879.715	22390
879.842	22428
879.97	22318
880.097	22040
880.224	22128
880.351	22021
880.478	22036
880.605	21934
880.732	22063
880.859	22299
880.986	22074
881.112	21991
881.239	21774
881.366	21736
881.493	21827
881.619	21576
881.746	21610
881.872	21660
881.999	21698
882.125	21553
882.252	21648
882.378	21675
882.505	21747
882.631	21469
882.757	21393
882.883	21488
883.01	21477
883.136	21329
883.262	21207
883.388	21195
883.514	21313
883.64	21374
883.766	21195
883.892	21058
884.018	21157
884.143	21283
884.269	21447
884.395	20971
884.52	20929
884.646	20975
884.772	20914
884.897	20971
885.023	21024
885.148	21108
885.274	21138
885.399	20975
885.524	20868
885.65	20971
885.775	21017
885.9	20868
886.025	21047
886.15	21043
886.275	20971
886.4	20788
886.525	20883
886.65	20849
886.775	20826
886.9	21009
887.025	21233
887.149	20918
887.274	20697
887.399	20659
887.523	20796
887.648	20705
887.773	20621
887.897	20731
888.021	20796
888.146	20693
888.27	20823
888.395	20796
888.519	20735
888.643	20727
888.767	20693
888.891	20560
889.015	20598
889.139	20564
889.263	20469
889.387	20636
889.511	20777
889.635	20686
889.759	20469
889.883	20389
890.006	20560
890.13	20457
890.254	20457
890.377	20431
890.501	20233
890.624	20294
890.748	20320
890.871	20180
890.995	20161
891.118	20084
891.241	20138
891.364	20046
891.488	20107
891.611	20134
891.734	20077
891.857	20164
891.98	20081
892.103	20065
892.226	20126
892.349	20126
892.471	19902
892.594	19982
892.717	20153
892.839	20024
892.962	19974
893.085	20092
893.207	19936
893.33	19940
893.452	19982
893.575	20008
893.697	19902
893.819	19993
893.941	20195
894.064	20103
894.186	19993
894.308	19951
894.43	20122
894.552	20096
894.674	20122
894.796	19852
894.918	19947
895.04	19883
895.161	20043
895.283	20031
895.405	19928
895.526	20062
895.648	19967
895.769	20054
895.891	20046
896.012	20016
896.134	20065
896.255	20039
896.376	20024
896.498	20016
896.619	20134
896.74	20050
896.861	20195
896.982	20507
897.103	20518
897.224	20286
897.345	20317
897.466	20183
897.587	20317
897.708	20381
897.828	20252
897.949	20240
898.07	20035
898.19	20122
898.311	20374
898.431	20210
898.552	20313
898.672	20278
898.792	20142
898.913	20237
899.033	20065
899.153	19993
899.273	19997
899.393	19890
899.513	19928
899.633	19944
899.753	19982
899.873	20077
899.993	20145
900.113	19974
900.232	19902
900.352	19875
900.472	19693
900.591	19708
900.711	19803
900.83	19544
900.95	19826
901.069	19765
901.189	19635
901.308	19521
901.427	19327
901.546	19381
901.665	19335
901.784	19327
901.904	19179
902.023	19156
902.141	18928
902.26	18932
902.379	19008
902.498	18798
902.617	18798
902.735	18901
902.854	18829
902.973	18738
903.091	18509
903.21	18486
903.328	18464
903.446	18456
903.565	18277
903.683	18319
903.801	18270
903.919	18289
904.038	18262
904.156	18117
904.274	18140
904.392	18057
904.51	18015
904.627	18064
904.745	18068
904.863	18098
904.981	17885
905.098	17813
905.216	17783
905.334	17863
905.451	17691
905.569	17672
905.686	17817
905.803	17805
905.921	17433
906.038	17520
906.155	17608
906.272	17414
906.389	17516
906.506	17356
906.623	17364
906.74	17242
906.857	17151
906.974	17208
907.091	17303
907.208	17360
907.324	17239
907.441	17239
907.557	16938
907.674	16968
907.79	16946
907.907	17067
908.023	16995
908.139	17006
908.256	16911
908.372	16824
908.488	16831
908.604	16790
908.72	16630
908.836	16698
908.952	16622
909.068	16675
909.184	16873
909.3	16596
909.415	16801
909.531	16672
909.647	16436
909.762	16451
909.878	16394
909.993	16367
910.108	16451
910.224	16341
910.339	16371
910.454	16440
910.57	16101
910.685	16116
910.8	16341
910.915	16272
911.03	16207
911.145	16013
911.259	16044
911.374	16013
911.489	15953
911.604	15876
911.718	15808
911.833	15686
911.947	15610
912.062	15492
912.176	15774
912.291	15728
912.405	15751
912.519	15991
912.633	16006
912.748	15724
912.862	15709
912.976	15587
913.09	15492
913.204	15454
913.318	15568
913.431	15648
913.545	15603
913.659	15610
913.772	15534
913.886	15260
914	15302
914.113	15507
914.226	15526
914.34	15435
914.453	15184
914.566	15367
914.68	15237
914.793	15233
914.906	15051
915.019	14986
915.132	14834
915.245	15047
915.358	14967
915.47	14979
915.583	15001
915.696	15020
915.809	15169
915.921	15127
916.034	14963
916.146	14834
916.259	14842
916.371	14941
916.483	14937
916.595	14899
916.708	14826
916.82	14731
916.932	14769
917.044	14659
917.156	14701
917.268	14560
917.38	14708
917.491	14632
917.603	14663
917.715	14674
917.826	14743
917.938	14564
918.049	14484
918.161	14533
918.272	14651
918.384	14686
918.495	14587
918.606	14355
918.717	14252
918.828	14442
918.939	14438
919.05	14199
919.161	14385
919.272	14206
919.383	14199
919.494	14404
919.604	14575
919.715	14495
919.826	14286
919.936	14381
920.047	14415
920.157	14267
920.267	14606
920.378	14339
920.488	14343
920.598	14465
920.708	14629
920.818	14454
920.928	14499
921.038	14693
921.148	14655
921.258	14233
921.368	14180
921.477	14107
921.587	14054
921.697	13982
921.806	14119
921.916	13906
922.025	13757
922.134	13757
922.244	13704
922.353	13731
922.462	13533
922.571	13548
922.68	13396
922.789	13289
922.898	13445
923.007	13228
923.116	13426
923.224	13308
923.333	13324
923.442	13255
923.55	13202
923.659	13206
923.767	13324
923.876	13156
923.984	13129
924.092	12977
924.201	13164
924.309	13061
924.417	13023
924.525	13015
924.633	13050
924.741	13871
924.849	12791
924.956	13084
925.064	12814
925.172	12745
925.279	12776
925.387	12875
925.494	12764
925.602	12951
925.709	12829
925.816	12646
925.924	12696
926.031	12859
926.138	12806
926.245	12787
926.352	12642
926.459	12768
926.566	12738
926.673	12719
926.779	12498
926.886	12506
926.993	12372
927.099	12350
927.206	12353
927.312	12311
927.419	12414
927.525	12281
927.631	12376
927.737	12273
927.843	12197
927.95	12175
928.056	12213
928.162	12136
928.267	12285
928.373	12852
928.479	12201
928.585	12041
928.69	12102
928.796	12148
928.901	12114
929.007	11908
929.112	12034
929.218	11980
929.323	11908
929.428	11901
929.533	12121
929.638	11889
929.743	11939
929.848	11992
929.953	11866
930.058	11634
930.163	11600
930.267	11551
930.372	11767
930.477	11520
930.581	11756
930.685	11611
930.79	11478
930.894	11493
930.998	11383
931.103	11566
931.207	11170
931.311	11178
931.415	11094
931.519	10927
931.623	10881
