Data from test_V78500241_2278.txt Node
Date: Fri Mar 25 15:57:34 CST 2022
User: usil
Spectrometer: V785-0024
Trigger mode: 0
Integration Time (sec): 4.000000E-1
Scans to average: 1
Nonlinearity correction enabled: false
Boxcar width: 0
Storing dark spectrum: false
XAxis mode: Wavelengths
Number of Pixels in Spectrum: 1024
>>>>>Begin Spectral Data<<<<<
801.071	28831
801.214	28778
801.356	28622
801.499	28626
801.641	28337
801.783	28466
801.926	28523
802.068	28432
802.211	28538
802.353	28173
802.496	28090
802.638	28055
802.78	28162
802.923	28021
803.065	28013
803.208	27926
803.35	28067
803.492	28158
803.635	28375
803.777	28284
803.919	28234
804.061	28687
804.204	28459
804.346	28246
804.488	28310
804.63	28310
804.773	28204
804.915	28451
805.057	28508
805.199	28337
805.341	28428
805.483	28455
805.626	28459
805.768	28329
805.91	28516
806.052	28497
806.194	28344
806.336	28634
806.478	28596
806.62	28413
806.762	28607
806.904	28816
807.046	29083
807.188	28976
807.33	28930
807.472	29143
807.614	28839
807.756	29010
807.898	28771
808.04	28778
808.182	28782
808.324	28839
808.465	28934
808.607	28957
808.749	29166
808.891	29261
809.033	29322
809.174	29140
809.316	29128
809.458	29159
809.6	29022
809.741	29140
809.883	29345
810.025	29589
810.166	29429
810.308	29509
810.45	29467
810.591	29410
810.733	29258
810.875	29181
811.016	29067
811.158	29162
811.299	29193
811.441	29303
811.582	29330
811.724	29083
811.865	29155
812.007	29170
812.148	29315
812.29	29113
812.431	29360
812.573	29581
812.714	29661
812.855	29657
812.997	29893
813.138	29897
813.279	29984
813.421	29779
813.562	29623
813.703	29436
813.845	29486
813.986	29204
814.127	29090
814.268	28812
814.41	28949
814.551	29022
814.692	29212
814.833	28858
814.974	28980
815.115	28923
815.256	28850
815.397	28900
815.539	28854
815.68	28790
815.821	28527
815.962	28915
816.103	28755
816.244	28649
816.385	28504
816.526	28573
816.666	28268
816.807	28139
816.948	28215
817.089	28287
817.23	28226
817.371	28211
817.512	28169
817.653	28135
817.793	28120
817.934	28257
818.075	28246
818.216	28428
818.356	28219
818.497	27991
818.638	28040
818.778	28021
818.919	28074
819.06	28162
819.2	28154
819.341	28303
819.481	28219
819.622	28341
819.762	28592
819.903	28569
820.043	28557
820.184	28276
820.324	28352
820.465	28417
820.605	28386
820.746	28405
820.886	28276
821.026	28318
821.167	28360
821.307	28455
821.447	28158
821.588	28211
821.728	27876
821.868	27956
822.008	27778
822.149	27622
822.289	27720
822.429	27477
822.569	27507
822.709	27291
822.849	27184
822.99	27245
823.13	27157
823.27	27154
823.41	27104
823.55	26880
823.69	27020
823.83	27154
823.97	26910
824.11	26765
824.25	26670
824.389	26796
824.529	26952
824.669	26883
824.809	26906
824.949	26902
825.089	26872
825.228	26914
825.368	26674
825.508	26701
825.648	26800
825.787	26781
825.927	26724
826.067	26659
826.206	26735
826.346	26765
826.485	26781
826.625	26686
826.765	26800
826.904	26769
827.044	26606
827.183	26545
827.323	26457
827.462	26511
827.601	26461
827.741	26503
827.88	26583
828.02	26317
828.159	26377
828.298	26374
828.437	26518
828.577	26423
828.716	26545
828.855	26412
828.994	26237
829.134	26107
829.273	26278
829.412	26225
829.551	26130
829.69	26157
829.829	26259
829.968	26119
830.107	26195
830.246	26142
830.385	26077
830.524	26008
830.663	25928
830.802	25883
830.941	25769
831.08	25738
831.219	25727
831.357	25913
831.496	25974
831.635	25666
831.774	25738
831.913	25635
832.051	25700
832.19	25613
832.329	25544
832.467	25521
832.606	25422
832.744	25285
832.883	25419
833.022	25441
833.16	25316
833.299	25392
833.437	25400
833.576	25521
833.714	25510
833.852	25472
833.991	25529
834.129	25529
834.267	25540
834.406	25373
834.544	25552
834.682	25537
834.821	25483
834.959	25681
835.097	25327
835.235	25601
835.373	25426
835.511	25544
835.65	25346
835.788	25343
835.926	25308
836.064	25236
836.202	25148
836.34	25358
836.478	25483
836.615	25278
836.753	25282
836.891	25335
837.029	25312
837.167	25289
837.305	25160
837.443	25084
837.58	25126
837.718	25251
837.856	25240
837.993	25088
838.131	25099
838.269	25095
838.406	25019
838.544	24920
838.681	24802
838.819	24593
838.956	24585
839.094	24604
839.231	24616
839.369	24726
839.506	25031
839.643	24726
839.781	24631
839.918	24494
840.055	24601
840.193	24422
840.33	24517
840.467	24555
840.604	24544
840.742	24859
840.879	24380
841.016	24365
841.153	24388
841.29	24669
841.427	24483
841.564	24433
841.701	24559
841.838	24452
841.975	24285
842.112	24475
842.249	24216
842.385	24258
842.522	24479
842.659	24399
842.796	24232
842.933	24300
843.069	24121
843.206	24186
843.343	24296
843.479	24251
843.616	24186
843.752	24057
843.889	24060
844.025	24350
844.162	24057
844.298	24171
844.435	23980
844.571	23927
844.708	24159
844.844	24178
844.98	24129
845.117	24049
845.253	24068
845.389	24015
845.525	23973
845.661	23771
845.798	23756
845.934	23813
846.07	23668
846.206	23828
846.342	23965
846.478	23703
846.614	23478
846.75	23524
846.886	23459
847.022	23543
847.158	23444
847.294	23417
847.429	23501
847.565	23497
847.701	23699
847.837	23223
847.972	23277
848.108	23288
848.244	23246
848.379	23044
848.515	22938
848.65	23060
848.786	23124
848.921	23041
849.057	23071
849.192	23155
849.328	23014
849.463	23014
849.598	22949
849.734	23014
849.869	22949
850.004	22847
850.14	22858
850.275	22896
850.41	22683
850.545	22854
850.68	22869
850.815	22736
850.95	22805
851.085	22946
851.22	22938
851.355	22862
851.49	22850
851.625	22759
851.76	22782
851.895	22679
852.03	22744
852.165	22767
852.299	22873
852.434	22892
852.569	22774
852.703	22904
852.838	22809
852.973	23029
853.107	22790
853.242	22630
853.376	22668
853.511	22573
853.645	22698
853.78	22869
853.914	22596
854.048	22630
854.183	22694
854.317	22649
854.451	22774
854.585	22550
854.72	22599
854.854	22668
854.988	22653
855.122	22626
855.256	22508
855.39	22634
855.524	22702
855.658	22778
855.792	22698
855.926	22584
856.06	22675
856.194	22641
856.327	22687
856.461	22481
856.595	22653
856.729	22645
856.862	22797
856.996	22637
857.13	22622
857.263	22816
857.397	22645
857.53	22584
857.664	22721
857.797	22763
857.931	22721
858.064	22615
858.197	22668
858.331	22588
858.464	22535
858.597	22626
858.731	22580
858.864	22565
858.997	22569
859.13	22531
859.263	22672
859.396	22630
859.529	22641
859.662	22618
859.795	22523
859.928	22752
860.061	22634
860.194	22850
860.327	22641
860.46	22618
860.592	22786
860.725	22828
860.858	22793
860.99	22603
861.123	22588
861.256	22569
861.388	22569
861.521	23353
861.653	22512
861.786	22421
861.918	22508
862.05	22504
862.183	22519
862.315	22508
862.447	22626
862.58	22607
862.712	22356
862.844	22382
862.976	22451
863.108	22405
863.24	22717
863.372	22318
863.504	22333
863.636	22417
863.768	22318
863.9	22314
864.032	22295
864.164	22432
864.296	22261
864.428	22344
864.559	22333
864.691	22390
864.823	22352
864.954	22348
865.086	22204
865.217	22333
865.349	22158
865.48	22204
865.612	22219
865.743	22371
865.875	22249
866.006	22223
866.137	22280
866.269	22204
866.4	22166
866.531	22188
866.662	22143
866.793	22128
866.924	22150
867.055	22291
867.186	22116
867.317	22051
867.448	22128
867.579	22090
867.71	22025
867.841	21945
867.972	22211
868.103	22036
868.233	22109
868.364	22169
868.495	22188
868.625	22291
868.756	22561
868.886	22329
869.017	22325
869.147	22344
869.278	22512
869.408	22386
869.539	22424
869.669	22382
869.799	22398
869.929	22459
870.06	22519
870.19	22801
870.32	22710
870.45	22725
870.58	22687
870.71	22816
870.84	22759
870.97	22668
871.1	22702
871.23	22797
871.36	23071
871.489	22911
871.619	23056
871.749	22980
871.879	23094
872.008	23140
872.138	23056
872.267	22949
872.397	22911
872.526	22820
872.656	22866
872.785	22862
872.915	23033
873.044	23075
873.173	22911
873.303	22968
873.432	23067
873.561	22968
873.69	22972
873.819	23044
873.948	23006
874.077	22984
874.206	22934
874.335	22927
874.464	23060
874.593	23105
874.722	23284
874.851	23208
874.979	23204
875.108	23292
875.237	23204
875.365	23136
875.494	23147
875.623	23368
875.751	23174
875.88	23071
876.008	23273
876.136	23330
876.265	23566
876.393	23813
876.521	23573
876.65	23649
876.778	23703
876.906	23467
877.034	23520
877.162	23585
877.29	23440
877.418	23436
877.546	23589
877.674	23440
877.802	23471
877.93	23478
878.058	23562
878.185	23467
878.313	23448
878.441	23509
878.568	23364
878.696	23452
878.824	23406
878.951	23520
879.079	23672
879.206	23866
879.333	23600
879.461	23600
879.588	23642
879.715	23714
879.842	23752
879.97	23528
880.097	23425
880.224	23429
880.351	23410
880.478	23436
880.605	23284
880.732	23360
880.859	23497
880.986	23433
881.112	23444
881.239	23181
881.366	22995
881.493	22961
881.619	22946
881.746	22953
881.872	22938
881.999	22927
882.125	22816
882.252	22927
882.378	22889
882.505	23075
882.631	22889
882.757	22588
882.883	22713
883.01	22641
883.136	22470
883.262	22497
883.388	22440
883.514	22527
883.64	22687
883.766	22554
883.892	22325
884.018	22333
884.143	22478
884.269	22569
884.395	22291
884.52	22204
884.646	22287
884.772	22223
884.897	21998
885.023	22268
885.148	22333
885.274	22344
885.399	22196
885.524	22265
885.65	22139
885.775	22249
885.9	22207
886.025	22322
886.15	22268
886.275	22318
886.4	22082
886.525	22169
886.65	22032
886.775	22154
886.9	22287
887.025	22363
887.149	22139
887.274	21987
887.399	22078
887.523	22082
887.648	22025
887.773	21819
887.897	22048
888.021	21972
888.146	21911
888.27	22131
888.395	22154
888.519	22086
888.643	21956
888.767	22036
888.891	21915
889.015	21770
889.139	21880
889.263	21709
889.387	21785
889.511	21888
889.635	22093
889.759	21709
889.883	21743
890.006	21800
890.13	21895
890.254	21656
890.377	21816
890.501	21580
890.624	21500
890.748	21606
890.871	21424
890.995	21382
891.118	21119
891.241	21359
891.364	21325
891.488	21549
891.611	21348
891.734	21245
891.857	21218
891.98	21169
892.103	21233
892.226	21249
892.349	21287
892.471	21100
892.594	21192
892.717	21169
892.839	21142
892.962	21146
893.085	21279
893.207	21135
893.33	21154
893.452	21108
893.575	21233
893.697	21237
893.819	21317
893.941	21408
894.064	21165
894.186	21135
894.308	21077
894.43	21268
894.552	21313
894.674	21386
894.796	21169
894.918	21096
895.04	21096
895.161	21279
895.283	21195
895.405	21081
895.526	21135
895.648	21176
895.769	21112
895.891	21146
896.012	21252
896.134	21218
896.255	21214
896.376	21058
896.498	21112
896.619	21203
896.74	21135
896.861	21275
896.982	21545
897.103	21656
897.224	21393
897.345	21302
897.466	21317
897.587	21252
897.708	21477
897.828	21367
897.949	21321
898.07	21100
898.19	21268
898.311	21443
898.431	21306
898.552	21359
898.672	21401
898.792	21401
898.913	21336
899.033	21199
899.153	21188
899.273	21135
899.393	21127
899.513	21066
899.633	21017
899.753	21093
899.873	21089
899.993	21112
900.113	21047
900.232	21127
900.352	20933
900.472	20838
900.591	20804
900.711	20891
900.83	20868
900.95	21070
901.069	20895
901.189	20636
901.308	20640
901.427	20389
901.546	20415
901.665	20484
901.784	20400
901.904	20336
902.023	20191
902.141	20180
902.26	19864
902.379	20103
902.498	20001
902.617	19944
902.735	20035
902.854	19871
902.973	19871
903.091	19586
903.21	19594
903.328	19616
903.446	19582
903.565	19339
903.683	19449
903.801	19251
903.919	19335
904.038	19301
904.156	19217
904.274	19263
904.392	19076
904.51	19164
904.627	19107
904.745	19198
904.863	19114
904.981	18882
905.098	18848
905.216	18882
905.334	18897
905.451	18825
905.569	18768
905.686	18901
905.803	18719
905.921	18650
906.038	18768
906.155	18681
906.272	18467
906.389	18536
906.506	18494
906.623	18285
906.74	18323
906.857	18292
906.974	18213
907.091	18410
907.208	18509
907.324	18418
907.441	18232
907.557	17999
907.674	18201
907.79	18057
907.907	18041
908.023	18011
908.139	18114
908.256	17916
908.372	17920
908.488	17859
908.604	17752
908.72	17798
908.836	17695
908.952	17722
909.068	17828
909.184	17771
909.3	17779
909.415	17821
909.531	17809
909.647	17516
909.762	17417
909.878	17322
909.993	17410
910.108	17417
910.224	17406
910.339	17478
910.454	17303
910.57	17212
910.685	17197
910.8	17478
910.915	17322
911.03	17185
911.145	17170
911.259	17041
911.374	17033
911.489	16946
911.604	16987
911.718	16721
911.833	16896
911.947	16630
912.062	16504
912.176	16904
912.291	16820
912.405	16809
912.519	16889
912.633	16995
912.748	16752
912.862	16675
912.976	16645
913.09	16584
913.204	16527
913.318	16577
913.431	16702
913.545	16675
913.659	16664
913.772	16462
913.886	16386
914	16379
914.113	16424
914.226	16485
914.34	16424
914.453	16207
914.566	16386
914.68	16147
914.793	16204
914.906	16067
915.019	15941
915.132	15854
915.245	15926
915.358	15895
915.47	16010
915.583	15941
915.696	15899
915.809	16063
915.921	16044
916.034	15907
916.146	15857
916.259	15717
916.371	15915
916.483	15827
916.595	15728
916.708	15724
916.82	15701
916.932	15660
917.044	15599
917.156	15580
917.268	15538
917.38	15584
917.491	15553
917.603	15519
917.715	15603
917.826	15591
917.938	15469
918.049	15431
918.161	15488
918.272	15614
918.384	15606
918.495	15447
918.606	15287
918.717	15176
918.828	15302
918.939	15252
919.05	15195
919.161	15291
919.272	14990
919.383	15180
919.494	15363
919.604	15492
919.715	15275
919.826	15135
919.936	15306
920.047	15310
920.157	15332
920.267	15405
920.378	15226
920.488	15188
920.598	15378
920.708	15485
920.818	15420
920.928	15382
921.038	15485
921.148	15538
921.258	15157
921.368	15169
921.477	15024
921.587	14941
921.697	14891
921.806	14986
921.916	14800
922.025	14674
922.134	14610
922.244	14469
922.353	14712
922.462	14461
922.571	14393
922.68	14362
922.789	14267
922.898	14233
923.007	14100
923.116	14290
923.224	14164
923.333	14263
923.442	14119
923.55	14065
923.659	14164
923.767	14073
923.876	14031
923.984	14176
924.092	13974
924.201	14050
924.309	14001
924.417	13906
924.525	13856
924.633	13932
924.741	14838
924.849	13674
924.956	13791
925.064	13696
925.172	13578
925.279	13605
925.387	13601
925.494	13647
925.602	13772
925.709	13571
925.816	13540
925.924	13575
926.031	13616
926.138	13521
926.245	13647
926.352	13510
926.459	13613
926.566	13624
926.673	13540
926.779	13350
926.886	13426
926.993	13194
927.099	13179
927.206	13110
927.312	13069
927.419	13065
927.525	13069
927.631	13175
927.737	13042
927.843	13000
927.95	12886
928.056	12996
928.162	13019
928.267	12985
928.373	13643
928.479	12989
928.585	12817
928.69	12920
928.796	12905
928.901	12745
929.007	12757
929.112	12791
929.218	12768
929.323	12757
929.428	12696
929.533	12810
929.638	12574
929.743	12570
929.848	12604
929.953	12559
930.058	12414
930.163	12342
930.267	12350
930.372	12426
930.477	12319
930.581	12540
930.685	12353
930.79	12258
930.894	12171
930.998	12152
931.103	12372
931.207	11958
931.311	11855
931.415	11741
931.519	11623
931.623	11627
