Data from test_V78500241_3730.txt Node
Date: Fri Mar 25 16:07:38 CST 2022
User: usil
Spectrometer: V785-0024
Trigger mode: 0
Integration Time (sec): 4.000000E-1
Scans to average: 1
Nonlinearity correction enabled: false
Boxcar width: 0
Storing dark spectrum: false
XAxis mode: Wavelengths
Number of Pixels in Spectrum: 1024
>>>>>Begin Spectral Data<<<<<
801.071	28230
801.214	28120
801.356	27850
801.499	27854
801.641	27865
801.783	27892
801.926	27850
802.068	27835
802.211	27766
802.353	27591
802.496	27660
802.638	27561
802.78	27496
802.923	27367
803.065	27336
803.208	27321
803.35	27511
803.492	27576
803.635	27656
803.777	27538
803.919	27736
804.061	27956
804.204	27755
804.346	27618
804.488	27504
804.63	27599
804.773	27526
804.915	27785
805.057	27797
805.199	27781
805.341	27850
805.483	27797
805.626	27751
805.768	27667
805.91	27838
806.052	27914
806.194	27724
806.336	27960
806.478	27892
806.62	27861
806.762	27926
806.904	28124
807.046	28413
807.188	28318
807.33	28451
807.472	28341
807.614	28196
807.756	28272
807.898	28048
808.04	28055
808.182	28025
808.324	28131
808.465	28128
808.607	28344
808.749	28432
808.891	28637
809.033	28561
809.174	28512
809.316	28542
809.458	28344
809.6	28485
809.741	28615
809.883	28634
810.025	28835
810.166	28755
810.308	28752
810.45	28828
810.591	28694
810.733	28569
810.875	28527
811.016	28546
811.158	28497
811.299	28573
811.441	28618
811.582	28569
811.724	28561
811.865	28466
812.007	28371
812.148	28508
812.29	28550
812.431	28683
812.573	28896
812.714	28820
812.855	29090
812.997	29193
813.138	29326
813.279	29071
813.421	29056
813.562	28976
813.703	28736
813.845	28702
813.986	28436
814.127	28371
814.268	28249
814.41	28287
814.551	28188
814.692	28253
814.833	28204
814.974	28131
815.115	28211
815.256	28044
815.397	28112
815.539	28143
815.68	28032
815.821	27903
815.962	28059
816.103	28040
816.244	27823
816.385	27759
816.526	27660
816.666	27595
816.807	27500
816.948	27637
817.089	27507
817.23	27500
817.371	27549
817.512	27492
817.653	27519
817.793	27435
817.934	27545
818.075	27496
818.216	27606
818.356	27351
818.497	27298
818.638	27275
818.778	27275
818.919	27256
819.06	27272
819.2	27298
819.341	27447
819.481	27572
819.622	27679
819.762	27728
819.903	27705
820.043	27698
820.184	27690
820.324	27564
820.465	27781
820.605	27663
820.746	27595
820.886	27427
821.026	27606
821.167	27610
821.307	27671
821.447	27610
821.588	27526
821.728	27374
821.868	27047
822.008	27070
822.149	27058
822.289	26952
822.429	26682
822.569	26712
822.709	26697
822.849	26533
822.99	26518
823.13	26381
823.27	26507
823.41	26256
823.55	26195
823.69	26290
823.83	26275
823.97	26202
824.11	26092
824.25	26005
824.389	26107
824.529	26164
824.669	26134
824.809	26328
824.949	26084
825.089	26294
825.228	26210
825.368	25955
825.508	25951
825.648	25986
825.787	25978
825.927	26065
826.067	25970
826.206	25887
826.346	26039
826.485	26024
826.625	25986
826.765	26077
826.904	26005
827.044	25791
827.183	25788
827.323	25727
827.462	25784
827.601	25784
827.741	25647
827.88	25803
828.02	25712
828.159	25727
828.298	25719
828.437	25647
828.577	25559
828.716	25765
828.855	25616
828.994	25468
829.134	25403
829.273	25354
829.412	25464
829.551	25369
829.69	25289
829.829	25312
829.968	25620
830.107	25453
830.246	25487
830.385	25392
830.524	25217
830.663	25114
830.802	25148
830.941	25076
831.08	24970
831.219	25228
831.357	25103
831.496	25335
831.635	24859
831.774	25000
831.913	24837
832.051	24890
832.19	24646
832.329	24825
832.467	24635
832.606	24585
832.744	24639
832.883	24650
833.022	24665
833.16	24601
833.299	24757
833.437	24661
833.576	24779
833.714	24616
833.852	24886
833.991	24734
834.129	24871
834.267	24734
834.406	24776
834.544	24772
834.682	24749
834.821	24791
834.959	25008
835.097	24760
835.235	24787
835.373	24810
835.511	24719
835.65	24669
835.788	24715
835.926	24437
836.064	24433
836.202	24338
836.34	24544
836.478	24711
836.615	24601
836.753	24502
836.891	24585
837.029	24650
837.167	24525
837.305	24437
837.443	24372
837.58	24494
837.718	24445
837.856	24433
837.993	24391
838.131	24414
838.269	24338
838.406	24380
838.544	24247
838.681	24133
838.819	24041
838.956	23961
839.094	23836
839.231	23809
839.369	24072
839.506	24281
839.643	24076
839.781	23988
839.918	23916
840.055	23824
840.193	23813
840.33	23733
840.467	23783
840.604	23897
840.742	24072
840.879	23661
841.016	23676
841.153	23490
841.29	23855
841.427	23767
841.564	23707
841.701	23691
841.838	23718
841.975	23657
842.112	23646
842.249	23543
842.385	23429
842.522	23798
842.659	23592
842.796	23672
842.933	23604
843.069	23478
843.206	23516
843.343	23665
843.479	23486
843.616	23539
843.752	23315
843.889	23410
844.025	23406
844.162	23356
844.298	23406
844.435	23269
844.571	23261
844.708	23345
844.844	23429
844.98	23414
845.117	23395
845.253	23326
845.389	23147
845.525	23113
845.661	23242
845.798	22938
845.934	23189
846.07	23071
846.206	23254
846.342	23208
846.478	23060
846.614	22869
846.75	22809
846.886	22801
847.022	22816
847.158	22809
847.294	22919
847.429	22877
847.565	22763
847.701	22915
847.837	22626
847.972	22493
848.108	22679
848.244	22535
848.379	22375
848.515	22337
848.65	22234
848.786	22371
848.921	22306
849.057	22573
849.192	22455
849.328	22451
849.463	22481
849.598	22344
849.734	22276
849.869	22173
850.004	22109
850.14	22204
850.275	22090
850.41	22025
850.545	22070
850.68	22112
850.815	22276
850.95	22185
851.085	22333
851.22	22356
851.355	22253
851.49	22074
851.625	22135
851.76	22048
851.895	21964
852.03	22002
852.165	22109
852.299	22116
852.434	22147
852.569	22082
852.703	22116
852.838	22246
852.973	22344
853.107	22169
853.242	22128
853.376	22017
853.511	21930
853.645	21880
853.78	22067
853.914	21892
854.048	22051
854.183	22010
854.317	22128
854.451	22192
854.585	21888
854.72	21892
854.854	22105
854.988	21945
855.122	22032
855.256	21793
855.39	21907
855.524	22017
855.658	21907
855.792	21892
855.926	21945
856.06	21968
856.194	22044
856.327	22051
856.461	21899
856.595	21907
856.729	21827
856.862	22059
856.996	22078
857.13	22025
857.263	22040
857.397	21994
857.53	21888
857.664	22002
857.797	22078
857.931	22086
858.064	21964
858.197	22006
858.331	21888
858.464	21812
858.597	21941
858.731	21934
858.864	21945
858.997	21918
859.13	21895
859.263	21918
859.396	22078
859.529	21953
859.662	21960
859.795	21968
859.928	21926
860.061	22090
860.194	22223
860.327	22002
860.46	21865
860.592	22070
860.725	22093
860.858	22025
860.99	21949
861.123	22029
861.256	21747
861.388	21968
861.521	22634
861.653	21850
861.786	21637
861.918	21774
862.05	21724
862.183	21895
862.315	21907
862.447	22025
862.58	21873
862.712	21728
862.844	21652
862.976	21709
863.108	21785
863.24	22097
863.372	21762
863.504	21701
863.636	21580
863.768	21747
863.9	21629
864.032	21576
864.164	21511
864.296	21625
864.428	21648
864.559	21747
864.691	21770
864.823	21667
864.954	21587
865.086	21538
865.217	21637
865.349	21454
865.48	21557
865.612	21576
865.743	21637
865.875	21583
866.006	21561
866.137	21610
866.269	21652
866.4	21519
866.531	21370
866.662	21389
866.793	21500
866.924	21530
867.055	21610
867.186	21447
867.317	21481
867.448	21488
867.579	21454
867.71	21439
867.841	21401
867.972	21511
868.103	21329
868.233	21431
868.364	21458
868.495	21603
868.625	21724
868.756	21720
868.886	21641
869.017	21759
869.147	21698
869.278	21911
869.408	21812
869.539	21743
869.669	21873
869.799	21686
869.929	21842
870.06	21892
870.19	21964
870.32	22021
870.45	22135
870.58	22226
870.71	22192
870.84	22287
870.97	22097
871.1	22185
871.23	22322
871.36	22440
871.489	22314
871.619	22310
871.749	22379
871.879	22268
872.008	22402
872.138	22280
872.267	22337
872.397	22188
872.526	22150
872.656	22299
872.785	22082
872.915	22386
873.044	22382
873.173	22318
873.303	22421
873.432	22348
873.561	22405
873.69	22398
873.819	22390
873.948	22352
874.077	22497
874.206	22421
874.335	22291
874.464	22500
874.593	22512
874.722	22611
874.851	22603
874.979	22660
875.108	22675
875.237	22523
875.365	22402
875.494	22596
875.623	22618
875.751	22413
875.88	22508
876.008	22771
876.136	22782
876.265	23174
876.393	23079
876.521	22934
876.65	23003
876.778	22930
876.906	22908
877.034	22854
877.162	23025
877.29	22934
877.418	22831
877.546	22889
877.674	22904
877.802	22809
877.93	22976
878.058	22862
878.185	22828
878.313	22820
878.441	22987
878.568	22706
878.696	22828
878.824	22900
878.951	23052
879.079	23018
879.206	23220
879.333	23033
879.461	22934
879.588	23064
879.715	23060
879.842	23094
879.97	22869
880.097	22805
880.224	22759
880.351	22797
880.478	22831
880.605	22592
880.732	22801
880.859	22927
880.986	22824
881.112	22919
881.239	22611
881.366	22371
881.493	22348
881.619	22257
881.746	22295
881.872	22325
881.999	22257
882.125	22280
882.252	22382
882.378	22246
882.505	22253
882.631	22215
882.757	22051
882.883	22063
883.01	21991
883.136	21895
883.262	21949
883.388	21709
883.514	21960
883.64	21926
883.766	21895
883.892	21622
884.018	21808
884.143	21835
884.269	21922
884.395	21724
884.52	21603
884.646	21595
884.772	21583
884.897	21504
885.023	21633
885.148	21614
885.274	21770
885.399	21713
885.524	21663
885.65	21553
885.775	21671
885.9	21568
886.025	21759
886.15	21622
886.275	21564
886.4	21534
886.525	21526
886.65	21591
886.775	21587
886.9	21797
887.025	21789
887.149	21568
887.274	21450
887.399	21268
887.523	21428
887.648	21329
887.773	21264
887.897	21424
888.021	21561
888.146	21359
888.27	21412
888.395	21504
888.519	21428
888.643	21408
888.767	21412
888.891	21218
889.015	21214
889.139	21203
889.263	21085
889.387	21230
889.511	21336
889.635	21268
889.759	21184
889.883	21157
890.006	21165
890.13	21230
890.254	21119
890.377	21131
890.501	20952
890.624	20880
890.748	21024
890.871	20720
890.995	20804
891.118	20678
891.241	20792
891.364	20636
891.488	20880
891.611	20800
891.734	20712
891.857	20716
891.98	20762
892.103	20762
892.226	20720
892.349	20697
892.471	20571
892.594	20632
892.717	20556
892.839	20693
892.962	20754
893.085	20731
893.207	20625
893.33	20469
893.452	20461
893.575	20613
893.697	20549
893.819	20811
893.941	20804
894.064	20727
894.186	20648
894.308	20507
894.43	20705
894.552	20750
894.674	20754
894.796	20590
894.918	20541
895.04	20693
895.161	20750
895.283	20655
895.405	20632
895.526	20590
895.648	20663
895.769	20716
895.891	20640
896.012	20659
896.134	20632
896.255	20609
896.376	20533
896.498	20594
896.619	20625
896.74	20594
896.861	20640
896.982	20986
897.103	20956
897.224	20845
897.345	20918
897.466	20724
897.587	20895
897.708	20830
897.828	20845
897.949	20830
898.07	20731
898.19	20746
898.311	20918
898.431	20796
898.552	20735
898.672	20925
898.792	20982
898.913	20758
899.033	20651
899.153	20632
899.273	20571
899.393	20552
899.513	20667
899.633	20560
899.753	20530
899.873	20412
899.993	20602
900.113	20465
900.232	20659
900.352	20507
900.472	20461
900.591	20415
900.711	20339
900.83	20320
900.95	20377
901.069	20370
901.189	20176
901.308	20149
901.427	19940
901.546	19807
901.665	19989
901.784	19883
901.904	19715
902.023	19658
902.141	19373
902.26	19457
902.379	19476
902.498	19548
902.617	19354
902.735	19506
902.854	19430
902.973	19324
903.091	19072
903.21	19057
903.328	18966
903.446	18981
903.565	18935
903.683	18894
903.801	18810
903.919	18696
904.038	18833
904.156	18642
904.274	18764
904.392	18669
904.51	18688
904.627	18623
904.745	18787
904.863	18684
904.981	18376
905.098	18414
905.216	18338
905.334	18426
905.451	18273
905.569	18224
905.686	18266
905.803	18247
905.921	18095
906.038	18186
906.155	18114
906.272	17939
906.389	17996
906.506	17836
906.623	17901
906.74	17855
906.857	17600
906.974	17760
907.091	17885
907.208	18015
907.324	17882
907.441	17695
907.557	17589
907.674	17520
907.79	17478
907.907	17490
908.023	17577
908.139	17570
908.256	17615
908.372	17448
908.488	17486
908.604	17353
908.72	17166
908.836	17349
908.952	17212
909.068	17334
909.184	17398
909.3	17261
909.415	17307
909.531	17299
909.647	17003
909.762	17033
909.878	16972
909.993	16942
910.108	16946
910.224	17006
910.339	17010
910.454	16790
910.57	16820
910.685	16786
910.8	16915
910.915	16900
911.03	16824
911.145	16694
911.259	16577
911.374	16596
911.489	16440
911.604	16436
911.718	16360
911.833	16207
911.947	16253
912.062	16192
912.176	16337
912.291	16371
912.405	16272
912.519	16466
912.633	16485
912.748	16234
912.862	16363
912.976	16109
913.09	16021
913.204	16074
913.318	16059
913.431	16112
913.545	16162
913.659	16192
913.772	16097
913.886	16029
914	15907
914.113	15972
914.226	16025
914.34	15979
914.453	15876
914.566	15960
914.68	15804
914.793	15732
914.906	15622
915.019	15564
915.132	15431
915.245	15599
915.358	15572
915.47	15561
915.583	15526
915.696	15450
915.809	15572
915.921	15519
916.034	15378
916.146	15389
916.259	15424
916.371	15614
916.483	15481
916.595	15348
916.708	15264
916.82	15321
916.932	15310
917.044	15252
917.156	15340
917.268	15127
917.38	15195
917.491	15097
917.603	15157
917.715	15237
917.826	15317
917.938	15055
918.049	15009
918.161	15097
918.272	15142
918.384	15226
918.495	15017
918.606	14933
918.717	14815
918.828	14891
918.939	14956
919.05	14880
919.161	14937
919.272	14655
919.383	14777
919.494	15001
919.604	15077
919.715	14880
919.826	14731
919.936	14861
920.047	15017
920.157	14857
920.267	14998
920.378	14819
920.488	14769
920.598	14967
920.708	15192
920.818	14986
920.928	14948
921.038	15104
921.148	15062
921.258	14731
921.368	14697
921.477	14644
921.587	14636
921.697	14454
921.806	14636
921.916	14404
922.025	14313
922.134	14252
922.244	14138
922.353	14210
922.462	14096
922.571	14008
922.68	13894
922.789	13849
922.898	13894
923.007	13799
923.116	13909
923.224	13887
923.333	13856
923.442	13662
923.55	13715
923.659	13826
923.767	13681
923.876	13556
923.984	13647
924.092	13563
924.201	13616
924.309	13601
924.417	13662
924.525	13510
924.633	13525
924.741	14301
924.849	13274
924.956	13438
925.064	13320
925.172	13145
925.279	13270
925.387	13312
925.494	13327
925.602	13430
925.709	13320
925.816	13099
925.924	13209
926.031	13274
926.138	13202
926.245	13255
926.352	13126
926.459	13282
926.566	13255
926.673	13179
926.779	13061
926.886	12981
926.993	12856
927.099	12878
927.206	12741
927.312	12867
927.419	12878
927.525	12760
927.631	12814
927.737	12715
927.843	12627
927.95	12585
928.056	12681
928.162	12669
928.267	12696
928.373	13308
928.479	12707
928.585	12395
928.69	12574
928.796	12589
928.901	12525
929.007	12445
929.112	12448
929.218	12456
929.323	12445
929.428	12422
929.533	12490
929.638	12327
929.743	12357
929.848	12342
929.953	12300
930.058	12121
930.163	12064
930.267	12034
930.372	12148
930.477	11988
930.581	12224
930.685	12057
930.79	11904
930.894	11961
930.998	11885
931.103	12095
931.207	11649
931.311	11600
931.415	11532
931.519	11231
931.623	11315
