Data from test_V78500241_1584.txt Node
Date: Fri Mar 25 15:52:46 CST 2022
User: usil
Spectrometer: V785-0024
Trigger mode: 0
Integration Time (sec): 4.000000E-1
Scans to average: 1
Nonlinearity correction enabled: false
Boxcar width: 0
Storing dark spectrum: false
XAxis mode: Wavelengths
Number of Pixels in Spectrum: 1024
>>>>>Begin Spectral Data<<<<<
801.071	27941
801.214	27899
801.356	27770
801.499	27580
801.641	27504
801.783	27785
801.926	27652
802.068	27599
802.211	27515
802.353	27538
802.496	27245
802.638	27214
802.78	27313
802.923	27138
803.065	27135
803.208	27142
803.35	27252
803.492	27245
803.635	27454
803.777	27332
803.919	27412
804.061	27724
804.204	27500
804.346	27363
804.488	27405
804.63	27329
804.773	27351
804.915	27374
805.057	27511
805.199	27435
805.341	27568
805.483	27641
805.626	27698
805.768	27481
805.91	27576
806.052	27629
806.194	27504
806.336	27637
806.478	27720
806.62	27587
806.762	27652
806.904	27812
807.046	27991
807.188	27865
807.33	27975
807.472	28044
807.614	27850
807.756	28082
807.898	27880
808.04	27869
808.182	27831
808.324	27876
808.465	27873
808.607	28013
808.749	28204
808.891	28310
809.033	28356
809.174	28234
809.316	28226
809.458	28128
809.6	28257
809.741	28325
809.883	28375
810.025	28470
810.166	28546
810.308	28440
810.45	28531
810.591	28375
810.733	28162
810.875	28090
811.016	28090
811.158	28135
811.299	28116
811.441	28360
811.582	28382
811.724	28246
811.865	28249
812.007	28169
812.148	28169
812.29	28272
812.431	28257
812.573	28618
812.714	28592
812.855	28763
812.997	28801
813.138	29003
813.279	28801
813.421	28687
813.562	28790
813.703	28497
813.845	28485
813.986	28101
814.127	28048
814.268	27903
814.41	27827
814.551	27903
814.692	27975
814.833	27857
814.974	27857
815.115	27873
815.256	27690
815.397	27705
815.539	27694
815.68	27736
815.821	27526
815.962	27637
816.103	27618
816.244	27549
816.385	27462
816.526	27610
816.666	27332
816.807	27138
816.948	27363
817.089	27211
817.23	27180
817.371	27138
817.512	27180
817.653	27138
817.793	27039
817.934	27184
818.075	27142
818.216	27199
818.356	27119
818.497	27070
818.638	26963
818.778	26845
818.919	26883
819.06	27055
819.2	27074
819.341	27188
819.481	27214
819.622	27283
819.762	27515
819.903	27435
820.043	27374
820.184	27272
820.324	27363
820.465	27466
820.605	27306
820.746	27195
820.886	27169
821.026	27279
821.167	27112
821.307	27302
821.447	27146
821.588	27074
821.728	26967
821.868	26845
822.008	26773
822.149	26705
822.289	26712
822.429	26381
822.569	26389
822.709	26419
822.849	26237
822.99	26225
823.13	26161
823.27	26100
823.41	26096
823.55	25868
823.69	26001
823.83	25970
823.97	25864
824.11	25757
824.25	25849
824.389	25909
824.529	25864
824.669	25830
824.809	25928
824.949	25845
825.089	25963
825.228	25868
825.368	25601
825.508	25670
825.648	25647
825.787	25738
825.927	25651
826.067	25662
826.206	25685
826.346	25693
826.485	25651
826.625	25655
826.765	25731
826.904	25670
827.044	25479
827.183	25441
827.323	25308
827.462	25388
827.601	25335
827.741	25304
827.88	25430
828.02	25259
828.159	25365
828.298	25518
828.437	25377
828.577	25392
828.716	25441
828.855	25270
828.994	24989
829.134	25160
829.273	25137
829.412	24989
829.551	24810
829.69	25129
829.829	25194
829.968	25171
830.107	25202
830.246	25103
830.385	25027
830.524	25019
830.663	24863
830.802	24951
830.941	24612
831.08	24604
831.219	24783
831.357	24738
831.496	25034
831.635	24730
831.774	24540
831.913	24627
832.051	24407
832.19	24452
832.329	24330
832.467	24357
832.606	24232
832.744	24277
832.883	24388
833.022	24292
833.16	24315
833.299	24429
833.437	24391
833.576	24353
833.714	24426
833.852	24395
833.991	24551
834.129	24513
834.267	24551
834.406	24452
834.544	24509
834.682	24365
834.821	24262
834.959	24467
835.097	24357
835.235	24483
835.373	24399
835.511	24319
835.65	24057
835.788	24270
835.926	24152
836.064	23996
836.202	24087
836.34	24163
836.478	24426
836.615	24251
836.753	24391
836.891	24281
837.029	24174
837.167	24186
837.305	24190
837.443	24125
837.58	24015
837.718	24095
837.856	23992
837.993	24049
838.131	24064
838.269	23950
838.406	24041
838.544	23916
838.681	23672
838.819	23699
838.956	23551
839.094	23372
839.231	23505
839.369	23752
839.506	23958
839.643	23783
839.781	23471
839.918	23516
840.055	23539
840.193	23611
840.33	23379
840.467	23558
840.604	23440
840.742	23695
840.879	23318
841.016	23516
841.153	23406
841.29	23520
841.427	23471
841.564	23520
841.701	23429
841.838	23531
841.975	23353
842.112	23474
842.249	23273
842.385	23193
842.522	23383
842.659	23162
842.796	23136
842.933	23235
843.069	23200
843.206	23162
843.343	23220
843.479	23235
843.616	23174
843.752	23003
843.889	22984
844.025	23067
844.162	22877
844.298	23155
844.435	22892
844.571	23041
844.708	22976
844.844	23006
844.98	23189
845.117	23071
845.253	22927
845.389	22843
845.525	22900
845.661	22828
845.798	22577
845.934	22786
846.07	22675
846.206	22839
846.342	22801
846.478	22797
846.614	22561
846.75	22417
846.886	22352
847.022	22527
847.158	22485
847.294	22436
847.429	22569
847.565	22443
847.701	22683
847.837	22226
847.972	22177
848.108	22333
848.244	22337
848.379	22013
848.515	22067
848.65	21979
848.786	22109
848.921	22124
849.057	22246
849.192	22185
849.328	22101
849.463	22048
849.598	22021
849.734	21873
849.869	21895
850.004	21816
850.14	21857
850.275	21884
850.41	21705
850.545	21713
850.68	21789
850.815	21861
850.95	21854
851.085	21876
851.22	21941
851.355	21854
851.49	21766
851.625	21770
851.76	21865
851.895	21663
852.03	21838
852.165	21854
852.299	21861
852.434	21972
852.569	21800
852.703	21762
852.838	21781
852.973	21781
853.107	21865
853.242	21686
853.376	21622
853.511	21450
853.645	21633
853.78	21724
853.914	21690
854.048	21572
854.183	21553
854.317	21679
854.451	21842
854.585	21694
854.72	21648
854.854	21644
854.988	21622
855.122	21641
855.256	21530
855.39	21603
855.524	21648
855.658	21789
855.792	21667
855.926	21720
856.06	21701
856.194	21785
856.327	21561
856.461	21652
856.595	21724
856.729	21564
856.862	21751
856.996	21709
857.13	21614
857.263	21743
857.397	21797
857.53	21633
857.664	21641
857.797	21739
857.931	21705
858.064	21720
858.197	21720
858.331	21709
858.464	21595
858.597	21576
858.731	21473
858.864	21526
858.997	21690
859.13	21793
859.263	21633
859.396	21667
859.529	21629
859.662	21595
859.795	21660
859.928	21690
860.061	21747
860.194	21850
860.327	21641
860.46	21743
860.592	21698
860.725	21774
860.858	21766
860.99	21743
861.123	21587
861.256	21576
861.388	21720
861.521	22314
861.653	21538
861.786	21355
861.918	21530
862.05	21644
862.183	21717
862.315	21667
862.447	21633
862.58	21538
862.712	21310
862.844	21310
862.976	21332
863.108	21313
863.24	21819
863.372	21294
863.504	21428
863.636	21424
863.768	21488
863.9	21279
864.032	21237
864.164	21294
864.296	21359
864.428	21420
864.559	21405
864.691	21359
864.823	21317
864.954	21344
865.086	21287
865.217	21329
865.349	21066
865.48	21211
865.612	21180
865.743	21473
865.875	21272
866.006	21249
866.137	21131
866.269	21203
866.4	21157
866.531	21161
866.662	21081
866.793	21116
866.924	21176
867.055	21279
867.186	21237
867.317	21138
867.448	21195
867.579	21001
867.71	21013
867.841	21005
867.972	21180
868.103	21081
868.233	21264
868.364	21275
868.495	21325
868.625	21310
868.756	21443
868.886	21313
869.017	21359
869.147	21572
869.278	21405
869.408	21431
869.539	21477
869.669	21515
869.799	21511
869.929	21511
870.06	21545
870.19	21671
870.32	21618
870.45	21793
870.58	21876
870.71	21865
870.84	21915
870.97	21823
871.1	21774
871.23	21922
871.36	22013
871.489	21876
871.619	22006
871.749	22051
871.879	22029
872.008	22154
872.138	22040
872.267	22021
872.397	21785
872.526	21789
872.656	21915
872.785	21937
872.915	22185
873.044	22173
873.173	22082
873.303	22040
873.432	21991
873.561	22166
873.69	22048
873.819	21994
873.948	22158
874.077	22120
874.206	22082
874.335	22040
874.464	22207
874.593	22185
874.722	22154
874.851	22344
874.979	22329
875.108	22249
875.237	22287
875.365	22162
875.494	22306
875.623	22284
875.751	22303
875.88	22363
876.008	22386
876.136	22447
876.265	22630
876.393	22653
876.521	22740
876.65	22630
876.778	22725
876.906	22599
877.034	22531
877.162	22660
877.29	22516
877.418	22694
877.546	22531
877.674	22599
877.802	22493
877.93	22618
878.058	22554
878.185	22512
878.313	22512
878.441	22599
878.568	22398
878.696	22569
878.824	22531
878.951	22759
879.079	22759
879.206	22915
879.333	22774
879.461	22645
879.588	22717
879.715	22759
879.842	22949
879.97	22607
880.097	22459
880.224	22424
880.351	22493
880.478	22538
880.605	22428
880.732	22402
880.859	22588
880.986	22417
881.112	22436
881.239	22363
881.366	22200
881.493	22048
881.619	22067
881.746	22124
881.872	21994
881.999	21899
882.125	21953
882.252	22040
882.378	21998
882.505	22131
882.631	21732
882.757	21816
882.883	21812
883.01	21778
883.136	21641
883.262	21591
883.388	21469
883.514	21682
883.64	21781
883.766	21542
883.892	21428
884.018	21435
884.143	21637
884.269	21656
884.395	21424
884.52	21310
884.646	21389
884.772	21245
884.897	21283
885.023	21340
885.148	21386
885.274	21469
885.399	21431
885.524	21355
885.65	21279
885.775	21370
885.9	21332
886.025	21549
886.15	21359
886.275	21272
886.4	21256
886.525	21264
886.65	21195
886.775	21306
886.9	21367
887.025	21519
887.149	21252
887.274	21146
887.399	21047
887.523	21096
887.648	21055
887.773	20933
887.897	21222
888.021	21199
888.146	20963
888.27	21108
888.395	21188
888.519	21108
888.643	21024
888.767	21161
888.891	20975
889.015	20838
889.139	20914
889.263	20731
889.387	21081
889.511	21157
889.635	21108
889.759	20864
889.883	20823
890.006	20902
890.13	20880
890.254	20887
890.377	20781
890.501	20617
890.624	20708
890.748	20667
890.871	20552
890.995	20381
891.118	20301
891.241	20434
891.364	20419
891.488	20625
891.611	20503
891.734	20495
891.857	20469
891.98	20503
892.103	20552
892.226	20522
892.349	20313
892.471	20374
892.594	20332
892.717	20381
892.839	20305
892.962	20313
893.085	20419
893.207	20358
893.33	20187
893.452	20282
893.575	20412
893.697	20332
893.819	20571
893.941	20450
894.064	20587
894.186	20263
894.308	20172
894.43	20366
894.552	20556
894.674	20442
894.796	20210
894.918	20355
895.04	20301
895.161	20252
895.283	20408
895.405	20225
895.526	20358
895.648	20389
895.769	20377
895.891	20351
896.012	20396
896.134	20366
896.255	20381
896.376	20324
896.498	20370
896.619	20252
896.74	20427
896.861	20381
896.982	20632
897.103	20830
897.224	20686
897.345	20568
897.466	20526
897.587	20507
897.708	20727
897.828	20587
897.949	20503
898.07	20328
898.19	20606
898.311	20617
898.431	20526
898.552	20537
898.672	20571
898.792	20674
898.913	20507
899.033	20461
899.153	20393
899.273	20240
899.393	20305
899.513	20343
899.633	20476
899.753	20313
899.873	20130
899.993	20347
900.113	20199
900.232	20400
900.352	20275
900.472	20077
900.591	20012
900.711	20115
900.83	20008
900.95	20187
901.069	20126
901.189	20073
901.308	19803
901.427	19662
901.546	19750
901.665	19685
901.784	19605
901.904	19510
902.023	19396
902.141	19244
902.26	19187
902.379	19308
902.498	19247
902.617	19129
902.735	19247
902.854	19107
902.973	19084
903.091	18840
903.21	18734
903.328	18779
903.446	18749
903.565	18703
903.683	18608
903.801	18521
903.919	18650
904.038	18578
904.156	18483
904.274	18513
904.392	18574
904.51	18372
904.627	18342
904.745	18502
904.863	18414
904.981	18140
905.098	18003
905.216	18079
905.334	18155
905.451	18102
905.569	18053
905.686	18125
905.803	18114
905.921	17836
906.038	17901
906.155	17901
906.272	17802
906.389	17760
906.506	17638
906.623	17570
906.74	17676
906.857	17570
906.974	17551
907.091	17684
907.208	17722
907.324	17589
907.441	17505
907.557	17372
907.674	17307
907.79	17284
907.907	17398
908.023	17353
908.139	17376
908.256	17334
908.372	17261
908.488	17140
908.604	17162
908.72	17067
908.836	17048
908.952	17029
909.068	17022
909.184	17117
909.3	17090
909.415	16957
909.531	17025
909.647	16816
909.762	16786
909.878	16828
909.993	16805
910.108	16683
910.224	16664
910.339	16710
910.454	16577
910.57	16485
910.685	16512
910.8	16755
910.915	16778
911.03	16535
911.145	16337
911.259	16253
911.374	16375
911.489	16238
911.604	16196
911.718	16025
911.833	16112
911.947	16017
912.062	15934
912.176	16128
912.291	16071
912.405	16097
912.519	16333
912.633	16234
912.748	16158
912.862	16032
912.976	15934
913.09	15846
913.204	15873
913.318	15854
913.431	15994
913.545	15987
913.659	16025
913.772	15812
913.886	15789
914	15789
914.113	15800
914.226	15797
914.34	15694
914.453	15625
914.566	15728
914.68	15557
914.793	15443
914.906	15325
915.019	15336
915.132	15195
915.245	15336
915.358	15302
915.47	15291
915.583	15329
915.696	15332
915.809	15348
915.921	15443
916.034	15245
916.146	15233
916.259	15218
916.371	15173
916.483	15195
916.595	15195
916.708	15070
916.82	15165
916.932	15074
917.044	15070
917.156	15036
917.268	14880
917.38	14956
917.491	14826
917.603	14902
917.715	14933
917.826	15001
917.938	14914
918.049	14758
918.161	14815
918.272	14982
918.384	14906
918.495	14933
918.606	14735
918.717	14708
918.828	14735
918.939	14731
919.05	14682
919.161	14636
919.272	14537
919.383	14594
919.494	14693
919.604	14800
919.715	14701
919.826	14708
919.936	14598
920.047	14788
920.157	14590
920.267	14800
920.378	14674
920.488	14629
920.598	14769
920.708	14899
920.818	14807
920.928	14777
921.038	14921
921.148	14937
921.258	14640
921.368	14590
921.477	14423
921.587	14434
921.697	14278
921.806	14343
921.916	14218
922.025	14130
922.134	14145
922.244	14062
922.353	14054
922.462	13925
922.571	13963
922.68	13719
922.789	13788
922.898	13670
923.007	13666
923.116	13693
923.224	13662
923.333	13689
923.442	13499
923.55	13537
923.659	13514
923.767	13708
923.876	13552
923.984	13605
924.092	13499
924.201	13518
924.309	13422
924.417	13495
924.525	13392
924.633	13419
924.741	14393
924.849	13270
924.956	13297
925.064	13202
925.172	13091
925.279	13129
925.387	13118
925.494	13145
925.602	13259
925.709	13160
925.816	13095
925.924	13095
926.031	13171
926.138	13099
926.245	13141
926.352	12848
926.459	13069
926.566	13251
926.673	13057
926.779	12920
926.886	12894
926.993	12760
927.099	12650
927.206	12650
927.312	12639
927.419	12779
927.525	12650
927.631	12673
927.737	12563
927.843	12547
927.95	12414
928.056	12559
928.162	12528
928.267	12597
928.373	13114
928.479	12555
928.585	12300
928.69	12483
928.796	12509
928.901	12422
929.007	12258
929.112	12369
929.218	12289
929.323	12319
929.428	12209
929.533	12384
929.638	12117
929.743	12117
929.848	12213
929.953	12060
930.058	12011
930.163	11889
930.267	11935
930.372	12095
930.477	11847
930.581	12117
930.685	11954
930.79	11703
930.894	11916
930.998	11836
931.103	11813
931.207	11539
931.311	11493
931.415	11334
931.519	11242
931.623	11143
