Data from test_V78500241_3288.txt Node
Date: Fri Mar 25 16:04:34 CST 2022
User: usil
Spectrometer: V785-0024
Trigger mode: 0
Integration Time (sec): 4.000000E-1
Scans to average: 1
Nonlinearity correction enabled: false
Boxcar width: 0
Storing dark spectrum: false
XAxis mode: Wavelengths
Number of Pixels in Spectrum: 1024
>>>>>Begin Spectral Data<<<<<
801.071	28523
801.214	28542
801.356	28440
801.499	28318
801.641	28268
801.783	28177
801.926	28310
802.068	28276
802.211	28135
802.353	28135
802.496	27979
802.638	27960
802.78	27873
802.923	27755
803.065	27816
803.208	27823
803.35	27941
803.492	28074
803.635	28097
803.777	28055
803.919	28196
804.061	28569
804.204	28025
804.346	28166
804.488	27994
804.63	28120
804.773	28143
804.915	28048
805.057	28169
805.199	28093
805.341	28306
805.483	28234
805.626	28261
805.768	28226
805.91	28295
806.052	28291
806.194	28253
806.336	28379
806.478	28318
806.62	28462
806.762	28436
806.904	28577
807.046	28771
807.188	28584
807.33	28668
807.472	28839
807.614	28733
807.756	28744
807.898	28664
808.04	28405
808.182	28531
808.324	28538
808.465	28698
808.607	28736
808.749	28858
808.891	29006
809.033	29124
809.174	28896
809.316	29003
809.458	28892
809.6	28930
809.741	29029
809.883	29162
810.025	29280
810.166	29356
810.308	29193
810.45	29128
810.591	29208
810.733	29090
810.875	29025
811.016	28911
811.158	28995
811.299	28961
811.441	29113
811.582	29048
811.724	29079
811.865	28858
812.007	29006
812.148	28934
812.29	29128
812.431	29159
812.573	29353
812.714	29341
812.855	29566
812.997	29589
813.138	29703
813.279	29680
813.421	29577
813.562	29589
813.703	29296
813.845	29162
813.986	28896
814.127	28824
814.268	28729
814.41	28710
814.551	28573
814.692	28782
814.833	28656
814.974	28607
815.115	28698
815.256	28603
815.397	28580
815.539	28626
815.68	28398
815.821	28436
815.962	28325
816.103	28371
816.244	28386
816.385	28295
816.526	28272
816.666	28055
816.807	28036
816.948	28078
817.089	28124
817.23	28025
817.371	28097
817.512	27979
817.653	27998
817.793	28021
817.934	28051
818.075	27960
818.216	28017
818.356	27854
818.497	27895
818.638	27835
818.778	27762
818.919	27705
819.06	27907
819.2	28013
819.341	28013
819.481	28082
819.622	27994
819.762	28249
819.903	28272
820.043	28249
820.184	28051
820.324	28032
820.465	28295
820.605	28124
820.746	28185
820.886	28002
821.026	28082
821.167	28101
821.307	28128
821.447	28181
821.588	27918
821.728	27953
821.868	27580
822.008	27515
822.149	27424
822.289	27397
822.429	27283
822.569	27135
822.709	27093
822.849	27108
822.99	27142
823.13	27077
823.27	26918
823.41	26910
823.55	26781
823.69	26948
823.83	26838
823.97	26781
824.11	26545
824.25	26575
824.389	26575
824.529	26754
824.669	26735
824.809	26686
824.949	26731
825.089	26758
825.228	26667
825.368	26503
825.508	26579
825.648	26442
825.787	26590
825.927	26746
826.067	26366
826.206	26644
826.346	26583
826.485	26522
826.625	26461
826.765	26739
826.904	26594
827.044	26415
827.183	26305
827.323	26275
827.462	26248
827.601	26313
827.741	26202
827.88	26271
828.02	26142
828.159	26408
828.298	26347
828.437	26396
828.577	26180
828.716	26377
828.855	26149
828.994	25883
829.134	25974
829.273	26069
829.412	25940
829.551	25769
829.69	26065
829.829	26050
829.968	26107
830.107	26077
830.246	26001
830.385	25811
830.524	25879
830.663	25746
830.802	25643
830.941	25605
831.08	25582
831.219	25594
831.357	25681
831.496	25887
831.635	25594
831.774	25525
831.913	25563
832.051	25289
832.19	25236
832.329	25358
832.467	25251
832.606	25289
832.744	25206
832.883	25179
833.022	25148
833.16	25339
833.299	25270
833.437	25145
833.576	25301
833.714	25289
833.852	25434
833.991	25320
834.129	25495
834.267	25430
834.406	25285
834.544	25251
834.682	25335
834.821	25190
834.959	25449
835.097	25118
835.235	25419
835.373	25198
835.511	25187
835.65	25225
835.788	25209
835.926	24958
836.064	24932
836.202	24932
836.34	25133
836.478	25263
836.615	24962
836.753	25209
836.891	25148
837.029	25065
837.167	25072
837.305	25057
837.443	25031
837.58	24951
837.718	25000
837.856	24935
837.993	24837
838.131	24833
838.269	24852
838.406	24981
838.544	24856
838.681	24532
838.819	24593
838.956	24483
839.094	24384
839.231	24544
839.369	24597
839.506	24810
839.643	24753
839.781	24357
839.918	24410
840.055	24327
840.193	24464
840.33	24174
840.467	24273
840.604	24391
840.742	24631
840.879	24155
841.016	24190
841.153	24083
841.29	24319
841.427	24224
841.564	24384
841.701	24300
841.838	24239
841.975	24140
842.112	24197
842.249	24095
842.385	24159
842.522	24281
842.659	24235
842.796	24095
842.933	24064
843.069	24060
843.206	23946
843.343	24121
843.479	24011
843.616	24068
843.752	23946
843.889	23908
844.025	23992
844.162	23843
844.298	23965
844.435	23805
844.571	23790
844.708	23988
844.844	24110
844.98	24076
845.117	23988
845.253	23843
845.389	23802
845.525	23665
845.661	23646
845.798	23573
845.934	23547
846.07	23646
846.206	23558
846.342	23805
846.478	23535
846.614	23417
846.75	23345
846.886	23174
847.022	23288
847.158	23220
847.294	23349
847.429	23379
847.565	23231
847.701	23512
847.837	23083
847.972	22965
848.108	23079
848.244	23109
848.379	23018
848.515	23037
848.65	22919
848.786	23037
848.921	22892
849.057	23064
849.192	23071
849.328	22831
849.463	22850
849.598	22790
849.734	22816
849.869	22805
850.004	22653
850.14	22698
850.275	22607
850.41	22485
850.545	22584
850.68	22493
850.815	22660
850.95	22664
851.085	22831
851.22	22816
851.355	22729
851.49	22618
851.625	22645
851.76	22584
851.895	22607
852.03	22618
852.165	22641
852.299	22687
852.434	22679
852.569	22637
852.703	22793
852.838	22679
852.973	22786
853.107	22691
853.242	22599
853.376	22588
853.511	22440
853.645	22432
853.78	22615
853.914	22382
854.048	22402
854.183	22325
854.317	22573
854.451	22641
854.585	22424
854.72	22432
854.854	22516
854.988	22443
855.122	22478
855.256	22287
855.39	22550
855.524	22550
855.658	22451
855.792	22436
855.926	22569
856.06	22508
856.194	22599
856.327	22569
856.461	22352
856.595	22531
856.729	22356
856.862	22561
856.996	22588
857.13	22360
857.263	22687
857.397	22603
857.53	22421
857.664	22554
857.797	22459
857.931	22584
858.064	22527
858.197	22580
858.331	22523
858.464	22531
858.597	22306
858.731	22405
858.864	22379
858.997	22424
859.13	22527
859.263	22527
859.396	22596
859.529	22550
859.662	22535
859.795	22512
859.928	22409
860.061	22736
860.194	22790
860.327	22603
860.46	22405
860.592	22664
860.725	22656
860.858	22721
860.99	22481
861.123	22436
861.256	22424
861.388	22512
861.521	23174
861.653	22344
861.786	22223
861.918	22344
862.05	22226
862.183	22310
862.315	22474
862.447	22413
862.58	22325
862.712	22223
862.844	22169
862.976	22356
863.108	22169
863.24	22675
863.372	22211
863.504	22082
863.636	22112
863.768	22325
863.9	22181
864.032	22086
864.164	22070
864.296	22181
864.428	22177
864.559	22306
864.691	22276
864.823	22150
864.954	22093
865.086	22211
865.217	22101
865.349	21972
865.48	22093
865.612	22067
865.743	22192
865.875	22086
866.006	22128
866.137	22048
866.269	22105
866.4	22120
866.531	22139
866.662	21846
866.793	21953
866.924	21964
867.055	22032
867.186	21915
867.317	21838
867.448	21873
867.579	21979
867.71	21915
867.841	21793
867.972	22032
868.103	21934
868.233	21865
868.364	21960
868.495	22067
868.625	22112
868.756	22310
868.886	22223
869.017	22291
869.147	22223
869.278	22352
869.408	22112
869.539	22143
869.669	22295
869.799	22192
869.929	22360
870.06	22253
870.19	22512
870.32	22329
870.45	22519
870.58	22607
870.71	22752
870.84	22786
870.97	22679
871.1	22717
871.23	22672
871.36	22976
871.489	22675
871.619	22854
871.749	22771
871.879	22934
872.008	22816
872.138	22980
872.267	22824
872.397	22641
872.526	22679
872.656	22664
872.785	22630
872.915	22782
873.044	22984
873.173	22805
873.303	22911
873.432	22869
873.561	22877
873.69	22744
873.819	22824
873.948	22774
874.077	22889
874.206	22809
874.335	22812
874.464	22862
874.593	22930
874.722	22949
874.851	23170
874.979	23140
875.108	23242
875.237	22987
875.365	22923
875.494	23010
875.623	23033
875.751	23056
875.88	23140
876.008	23147
876.136	23376
876.265	23463
876.393	23524
876.521	23589
876.65	23398
876.778	23474
876.906	23653
877.034	23277
877.162	23406
877.29	23414
877.418	23440
877.546	23455
877.674	23406
877.802	23353
877.93	23463
878.058	23353
878.185	23334
878.313	23364
878.441	23493
878.568	23189
878.696	23296
878.824	23296
878.951	23474
879.079	23562
879.206	23691
879.333	23627
879.461	23490
879.588	23627
879.715	23558
879.842	23589
879.97	23414
880.097	23307
880.224	23197
880.351	23311
880.478	23166
880.605	23204
880.732	23155
880.859	23436
880.986	23204
881.112	23364
881.239	23208
881.366	22885
881.493	22892
881.619	22927
881.746	22778
881.872	22774
881.999	22786
882.125	22588
882.252	22843
882.378	22660
882.505	22793
882.631	22546
882.757	22523
882.883	22535
883.01	22478
883.136	22325
883.262	22386
883.388	22219
883.514	22318
883.64	22443
883.766	22344
883.892	22181
884.018	22314
884.143	22379
884.269	22527
884.395	22162
884.52	22135
884.646	22143
884.772	22063
884.897	22032
885.023	22059
885.148	22131
885.274	22257
885.399	22166
885.524	22139
885.65	22135
885.775	22032
885.9	22036
886.025	22124
886.15	21983
886.275	22101
886.4	21991
886.525	22120
886.65	22070
886.775	22017
886.9	22078
887.025	22253
887.149	21960
887.274	21838
887.399	21831
887.523	21755
887.648	21873
887.773	21793
887.897	21934
888.021	21903
888.146	21766
888.27	21873
888.395	21968
888.519	21778
888.643	21850
888.767	21736
888.891	21785
889.015	21663
889.139	21755
889.263	21660
889.387	21823
889.511	21819
889.635	21812
889.759	21580
889.883	21580
890.006	21679
890.13	21743
890.254	21595
890.377	21641
890.501	21313
890.624	21355
890.748	21374
890.871	21256
890.995	21233
891.118	21070
891.241	21138
891.364	21070
891.488	21275
891.611	21161
891.734	21291
891.857	21218
891.98	21154
892.103	21268
892.226	21135
892.349	21135
892.471	21070
892.594	21135
892.717	21096
892.839	21081
892.962	21081
893.085	21157
893.207	21093
893.33	21058
893.452	21074
893.575	21077
893.697	21108
893.819	21279
893.941	21237
894.064	21077
894.186	21085
894.308	21055
894.43	21119
894.552	21226
894.674	21089
894.796	20963
894.918	21001
895.04	21055
895.161	21138
895.283	21024
895.405	21017
895.526	20971
895.648	21055
895.769	21100
895.891	21066
896.012	21112
896.134	21096
896.255	21081
896.376	20979
896.498	21096
896.619	21074
896.74	21055
896.861	21074
896.982	21367
897.103	21462
897.224	21348
897.345	21245
897.466	21310
897.587	21245
897.708	21416
897.828	21359
897.949	21226
898.07	21077
898.19	21230
898.311	21310
898.431	21222
898.552	21161
898.672	21412
898.792	21370
898.913	21264
899.033	21127
899.153	21096
899.273	20990
899.393	20979
899.513	21074
899.633	21051
899.753	20933
899.873	20845
899.993	20937
900.113	20975
900.232	20979
900.352	20834
900.472	20819
900.591	20705
900.711	20746
900.83	20773
900.95	20735
901.069	20811
901.189	20731
901.308	20476
901.427	20301
901.546	20343
901.665	20419
901.784	20336
901.904	20233
902.023	20149
902.141	19841
902.26	19833
902.379	19909
902.498	19875
902.617	19727
902.735	19841
902.854	19940
902.973	19784
903.091	19537
903.21	19460
903.328	19533
903.446	19377
903.565	19259
903.683	19236
903.801	19198
903.919	19274
904.038	19225
904.156	19088
904.274	19012
904.392	18981
904.51	18954
904.627	18977
904.745	19004
904.863	19156
904.981	18905
905.098	18738
905.216	18654
905.334	18802
905.451	18753
905.569	18745
905.686	18802
905.803	18642
905.921	18452
906.038	18658
906.155	18437
906.272	18509
906.389	18319
906.506	18304
906.623	18350
906.74	18205
906.857	18197
906.974	18163
907.091	18216
907.208	18422
907.324	18216
907.441	18213
907.557	18022
907.674	17996
907.79	17939
907.907	17866
908.023	18003
908.139	17897
908.256	17889
908.372	17779
908.488	17893
908.604	17630
908.72	17638
908.836	17691
908.952	17649
909.068	17710
909.184	17687
909.3	17748
909.415	17745
909.531	17684
909.647	17387
909.762	17360
909.878	17345
909.993	17318
910.108	17349
910.224	17341
910.339	17383
910.454	17193
910.57	17181
910.685	17102
910.8	17398
910.915	17307
911.03	17094
911.145	16942
911.259	16949
911.374	16915
911.489	16919
911.604	16835
911.718	16630
911.833	16694
911.947	16561
912.062	16588
912.176	16733
912.291	16778
912.405	16759
912.519	16908
912.633	16831
912.748	16790
912.862	16660
912.976	16500
913.09	16386
913.204	16436
913.318	16417
913.431	16592
913.545	16603
913.659	16607
913.772	16413
913.886	16188
914	16246
914.113	16329
914.226	16394
914.34	16325
914.453	16147
914.566	16329
914.68	16143
914.793	16112
914.906	15918
915.019	15956
915.132	15804
915.245	15812
915.358	15972
915.47	15888
915.583	15865
915.696	15762
915.809	15960
915.921	16036
916.034	15701
916.146	15789
916.259	15671
916.371	15884
916.483	15785
916.595	15637
916.708	15576
916.82	15762
916.932	15622
917.044	15523
917.156	15526
917.268	15496
917.38	15428
917.491	15526
917.603	15534
917.715	15462
917.826	15652
917.938	15439
918.049	15386
918.161	15519
918.272	15500
918.384	15568
918.495	15382
918.606	15272
918.717	15142
918.828	15260
918.939	15207
919.05	15047
919.161	15176
919.272	15066
919.383	15024
919.494	15203
919.604	15359
919.715	15249
919.826	15112
919.936	15142
920.047	15211
920.157	15108
920.267	15291
920.378	15287
920.488	15173
920.598	15306
920.708	15481
920.818	15348
920.928	15264
921.038	15477
921.148	15447
921.258	15097
921.368	14963
921.477	14994
921.587	14876
921.697	14750
921.806	14838
921.916	14769
922.025	14667
922.134	14571
922.244	14469
922.353	14556
922.462	14419
922.571	14393
922.68	14199
922.789	14183
922.898	14176
923.007	14149
923.116	14202
923.224	14039
923.333	14092
923.442	14050
923.55	13925
923.659	14081
923.767	14088
923.876	13970
923.984	13997
924.092	13814
924.201	13925
924.309	13947
924.417	13833
924.525	13803
924.633	13883
924.741	14571
924.849	13605
924.956	13681
925.064	13582
925.172	13499
925.279	13483
925.387	13628
925.494	13476
925.602	13624
925.709	13632
925.816	13464
925.924	13540
926.031	13464
926.138	13464
926.245	13491
926.352	13350
926.459	13514
926.566	13441
926.673	13369
926.779	13270
926.886	13232
926.993	13156
927.099	13061
927.206	13091
927.312	13004
927.419	13209
927.525	13137
927.631	13156
927.737	12989
927.843	12901
927.95	12848
928.056	12882
928.162	12894
928.267	12928
928.373	13415
928.479	12958
928.585	12654
928.69	12779
928.796	12894
928.901	12749
929.007	12551
929.112	12821
929.218	12681
929.323	12642
929.428	12601
929.533	12692
929.638	12593
929.743	12559
929.848	12669
929.953	12551
930.058	12403
930.163	12277
930.267	12270
930.372	12418
930.477	12220
930.581	12566
930.685	12304
930.79	12125
930.894	12220
930.998	12095
931.103	12270
931.207	11954
931.311	11874
931.415	11672
931.519	11520
931.623	11532
