Data from test_V78500241_2755.txt Node
Date: Fri Mar 25 16:00:53 CST 2022
User: usil
Spectrometer: V785-0024
Trigger mode: 0
Integration Time (sec): 4.000000E-1
Scans to average: 1
Nonlinearity correction enabled: false
Boxcar width: 0
Storing dark spectrum: false
XAxis mode: Wavelengths
Number of Pixels in Spectrum: 1024
>>>>>Begin Spectral Data<<<<<
801.071	28885
801.214	28691
801.356	28527
801.499	28417
801.641	28443
801.783	28291
801.926	28371
802.068	28242
802.211	28249
802.353	28207
802.496	28154
802.638	28169
802.78	28013
802.923	27816
803.065	27991
803.208	27934
803.35	28006
803.492	28185
803.635	28291
803.777	28238
803.919	28512
804.061	28725
804.204	28322
804.346	28226
804.488	28234
804.63	28352
804.773	28291
804.915	28390
805.057	28432
805.199	28261
805.341	28432
805.483	28401
805.626	28409
805.768	28386
805.91	28386
806.052	28596
806.194	28466
806.336	28687
806.478	28516
806.62	28519
806.762	28607
806.904	28744
807.046	29094
807.188	28809
807.33	28809
807.472	29041
807.614	28927
807.756	29044
807.898	28603
808.04	28740
808.182	28683
808.324	28816
808.465	28877
808.607	29067
808.749	29170
808.891	29113
809.033	29345
809.174	29299
809.316	29083
809.458	29284
809.6	29044
809.741	29235
809.883	29372
810.025	29486
810.166	29497
810.308	29558
810.45	29364
810.591	29368
810.733	29311
810.875	29193
811.016	29113
811.158	29041
811.299	29463
811.441	29429
811.582	29421
811.724	29292
811.865	29033
812.007	29235
812.148	29242
812.29	29303
812.431	29505
812.573	29474
812.714	29767
812.855	29661
812.997	29634
813.138	29893
813.279	29722
813.421	29554
813.562	29562
813.703	29577
813.845	29459
813.986	29067
814.127	28843
814.268	28892
814.41	28824
814.551	28858
814.692	28930
814.833	28972
814.974	28850
815.115	28797
815.256	28828
815.397	28892
815.539	28911
815.68	28702
815.821	28630
815.962	28740
816.103	28645
816.244	28561
816.385	28489
816.526	28481
816.666	28306
816.807	28310
816.948	28265
817.089	28249
817.23	28314
817.371	28169
817.512	28154
817.653	28192
817.793	28196
817.934	28341
818.075	28200
818.216	28257
818.356	28166
818.497	28154
818.638	27918
818.778	27926
818.919	27987
819.06	28067
819.2	28131
819.341	28265
819.481	28162
819.622	28386
819.762	28607
819.903	28428
820.043	28329
820.184	28421
820.324	28291
820.465	28443
820.605	28310
820.746	28287
820.886	28169
821.026	28329
821.167	28124
821.307	28291
821.447	28051
821.588	28070
821.728	28097
821.868	27865
822.008	27793
822.149	27705
822.289	27587
822.429	27336
822.569	27344
822.709	27393
822.849	27298
822.99	27332
823.13	27184
823.27	27093
823.41	27116
823.55	26853
823.69	27062
823.83	27013
823.97	26929
824.11	26762
824.25	26769
824.389	26861
824.529	26872
824.669	26929
824.809	26914
824.949	27017
825.089	26910
825.228	26975
825.368	26693
825.508	26594
825.648	26815
825.787	26815
825.927	26689
826.067	26640
826.206	26686
826.346	26849
826.485	26842
826.625	26750
826.765	26872
826.904	26754
827.044	26545
827.183	26583
827.323	26602
827.462	26507
827.601	26560
827.741	26461
827.88	26560
828.02	26278
828.159	26492
828.298	26442
828.437	26385
828.577	26377
828.716	26511
828.855	26301
828.994	26069
829.134	26210
829.273	26176
829.412	26073
829.551	26096
829.69	26058
829.829	26244
829.968	26256
830.107	26187
830.246	26294
830.385	26126
830.524	26043
830.663	25982
830.802	26012
830.941	25723
831.08	25700
831.219	25913
831.357	25883
831.496	25875
831.635	25788
831.774	25769
831.913	25693
832.051	25529
832.19	25411
832.329	25495
832.467	25460
832.606	25350
832.744	25354
832.883	25270
833.022	25449
833.16	25411
833.299	25487
833.437	25346
833.576	25567
833.714	25445
833.852	25605
833.991	25529
834.129	25491
834.267	25605
834.406	25556
834.544	25601
834.682	25578
834.821	25582
834.959	25757
835.097	25392
835.235	25502
835.373	25331
835.511	25422
835.65	25362
835.788	25304
835.926	25236
836.064	25152
836.202	25133
836.34	25285
836.478	25301
836.615	25266
836.753	25441
836.891	25419
837.029	25331
837.167	25293
837.305	25183
837.443	25213
837.58	25069
837.718	25088
837.856	25206
837.993	25034
838.131	25152
838.269	25000
838.406	24901
838.544	25031
838.681	24798
838.819	24772
838.956	24642
839.094	24658
839.231	24475
839.369	24837
839.506	25012
839.643	24856
839.781	24498
839.918	24665
840.055	24570
840.193	24483
840.33	24426
840.467	24498
840.604	24429
840.742	24749
840.879	24388
841.016	24505
841.153	24262
841.29	24597
841.427	24399
841.564	24513
841.701	24490
841.838	24380
841.975	24399
842.112	24460
842.249	24296
842.385	24285
842.522	24395
842.659	24342
842.796	24235
842.933	24292
843.069	24205
843.206	24357
843.343	24273
843.479	24300
843.616	24369
843.752	24117
843.889	23984
844.025	24224
844.162	24045
844.298	24182
844.435	24133
844.571	24057
844.708	24110
844.844	24163
844.98	24129
845.117	24121
845.253	24026
845.389	23764
845.525	23908
845.661	23843
845.798	23729
845.934	23916
846.07	23710
846.206	23756
846.342	23821
846.478	23668
846.614	23505
846.75	23497
846.886	23505
847.022	23600
847.158	23554
847.294	23596
847.429	23505
847.565	23315
847.701	23634
847.837	23296
847.972	23124
848.108	23212
848.244	23265
848.379	23159
848.515	23102
848.65	23143
848.786	23029
848.921	22999
849.057	23124
849.192	23166
849.328	23124
849.463	23056
849.598	22965
849.734	22991
849.869	22961
850.004	22866
850.14	22949
850.275	22873
850.41	22790
850.545	22710
850.68	22748
850.815	22919
850.95	22588
851.085	22991
851.22	22946
851.355	22885
851.49	22831
851.625	22816
851.76	22805
851.895	22755
852.03	22805
852.165	22850
852.299	22949
852.434	22919
852.569	23060
852.703	22812
852.838	22911
852.973	22942
853.107	22873
853.242	22816
853.376	22694
853.511	22527
853.645	22641
853.78	22839
853.914	22725
854.048	22577
854.183	22717
854.317	22664
854.451	22824
854.585	22702
854.72	22588
854.854	22812
854.988	22653
855.122	22668
855.256	22413
855.39	22736
855.524	22729
855.658	22744
855.792	22706
855.926	22767
856.06	22668
856.194	22713
856.327	22630
856.461	22611
856.595	22596
856.729	22607
856.862	22847
856.996	22615
857.13	22771
857.263	22778
857.397	22637
857.53	22618
857.664	22786
857.797	22778
857.931	22915
858.064	22694
858.197	22816
858.331	22577
858.464	22443
858.597	22577
858.731	22698
858.864	22519
858.997	22615
859.13	22626
859.263	22664
859.396	22641
859.529	22744
859.662	22634
859.795	22675
859.928	22645
860.061	22809
860.194	22717
860.327	22702
860.46	22755
860.592	22774
860.725	22847
860.858	22812
860.99	22725
861.123	22698
861.256	22592
861.388	22584
861.521	23349
861.653	22584
861.786	22500
861.918	22565
862.05	22538
862.183	22569
862.315	22615
862.447	22645
862.58	22440
862.712	22333
862.844	22287
862.976	22371
863.108	22554
863.24	22930
863.372	22268
863.504	22398
863.636	22276
863.768	22413
863.9	22363
864.032	22341
864.164	22246
864.296	22417
864.428	22405
864.559	22348
864.691	22413
864.823	22322
864.954	22379
865.086	22196
865.217	22173
865.349	22211
865.48	22192
865.612	22257
865.743	22337
865.875	22306
866.006	22158
866.137	22246
866.269	22188
866.4	22276
866.531	22017
866.662	22124
866.793	22219
866.924	22112
867.055	22166
867.186	22109
867.317	22173
867.448	21975
867.579	21998
867.71	22192
867.841	22051
867.972	22093
868.103	22192
868.233	22147
868.364	22135
868.495	22276
868.625	22371
868.756	22390
868.886	22322
869.017	22409
869.147	22538
869.278	22550
869.408	22504
869.539	22443
869.669	22523
869.799	22489
869.929	22443
870.06	22546
870.19	22736
870.32	22790
870.45	22744
870.58	22774
870.71	23010
870.84	22748
870.97	22706
871.1	22824
871.23	22889
871.36	22892
871.489	22976
871.619	22908
871.749	22957
871.879	23044
872.008	23014
872.138	23067
872.267	23121
872.397	22953
872.526	22858
872.656	22889
872.785	22816
872.915	23060
873.044	23083
873.173	23006
873.303	23056
873.432	23086
873.561	23147
873.69	22919
873.819	23086
873.948	23121
874.077	23033
874.206	22904
874.335	23060
874.464	23212
874.593	23288
874.722	23105
874.851	23181
874.979	23299
875.108	23189
875.237	23223
875.365	23140
875.494	23231
875.623	23242
875.751	23197
875.88	23288
876.008	23398
876.136	23383
876.265	23604
876.393	23657
876.521	23596
876.65	23745
876.778	23627
876.906	23524
877.034	23505
877.162	23547
877.29	23558
877.418	23554
877.546	23657
877.674	23490
877.802	23554
877.93	23585
878.058	23490
878.185	23478
878.313	23600
878.441	23547
878.568	23402
878.696	23459
878.824	23615
878.951	23619
879.079	23745
879.206	23824
879.333	23604
879.461	23661
879.588	23672
879.715	23882
879.842	23824
879.97	23638
880.097	23455
880.224	23353
880.351	23425
880.478	23429
880.605	23440
880.732	23486
880.859	23661
880.986	23345
881.112	23376
881.239	23341
881.366	23170
881.493	22995
881.619	23029
881.746	23014
881.872	22938
881.999	22927
882.125	22896
882.252	23109
882.378	22908
882.505	23029
882.631	22847
882.757	22668
882.883	22649
883.01	22736
883.136	22592
883.262	22565
883.388	22664
883.514	22626
883.64	22603
883.766	22519
883.892	22314
884.018	22371
884.143	22546
884.269	22767
884.395	22348
884.52	22219
884.646	22249
884.772	22169
884.897	22257
885.023	22287
885.148	22249
885.274	22440
885.399	22394
885.524	22242
885.65	22371
885.775	22242
885.9	22261
886.025	22402
886.15	22223
886.275	22265
886.4	22059
886.525	22257
886.65	22341
886.775	22135
886.9	22348
887.025	22409
887.149	22188
887.274	22143
887.399	21911
887.523	21968
887.648	21915
887.773	21892
887.897	22131
888.021	22048
888.146	21846
888.27	21968
888.395	22128
888.519	21972
888.643	22002
888.767	21934
888.891	21922
889.015	21778
889.139	21956
889.263	21774
889.387	21907
889.511	21987
889.635	22063
889.759	21819
889.883	21739
890.006	21766
890.13	21797
890.254	21656
890.377	21724
890.501	21481
890.624	21641
890.748	21660
890.871	21603
890.995	21279
891.118	21458
891.241	21287
891.364	21256
891.488	21481
891.611	21317
891.734	21405
891.857	21317
891.98	21260
892.103	21355
892.226	21336
892.349	21245
892.471	21203
892.594	21336
892.717	21260
892.839	21275
892.962	21340
893.085	21317
893.207	21241
893.33	21173
893.452	21070
893.575	21272
893.697	21207
893.819	21412
893.941	21450
894.064	21469
894.186	21169
894.308	21180
894.43	21260
894.552	21287
894.674	21287
894.796	21127
894.918	21237
895.04	21161
895.161	21313
895.283	21351
895.405	21154
895.526	21230
895.648	21188
895.769	21260
895.891	21207
896.012	21306
896.134	21306
896.255	21214
896.376	21119
896.498	21165
896.619	21272
896.74	21226
896.861	21184
896.982	21511
897.103	21648
897.224	21443
897.345	21496
897.466	21435
897.587	21439
897.708	21610
897.828	21469
897.949	21389
898.07	21256
898.19	21359
898.311	21477
898.431	21298
898.552	21382
898.672	21462
898.792	21416
898.913	21363
899.033	21310
899.153	21203
899.273	21047
899.393	21066
899.513	21157
899.633	21264
899.753	20979
899.873	21058
899.993	21203
900.113	21089
900.232	21104
900.352	21055
900.472	20933
900.591	20804
900.711	20975
900.83	20872
900.95	21081
901.069	21154
901.189	20762
901.308	20594
901.427	20465
901.546	20465
901.665	20465
901.784	20450
901.904	20301
902.023	20218
902.141	20043
902.26	19989
902.379	20050
902.498	19875
902.617	19849
902.735	20084
902.854	19940
902.973	19909
903.091	19685
903.21	19525
903.328	19499
903.446	19514
903.565	19601
903.683	19457
903.801	19247
903.919	19346
904.038	19354
904.156	19152
904.274	19152
904.392	19103
904.51	18996
904.627	19232
904.745	19263
904.863	19225
904.981	18920
905.098	18863
905.216	18825
905.334	18856
905.451	18863
905.569	18719
905.686	18833
905.803	18909
905.921	18726
906.038	18810
906.155	18551
906.272	18620
906.389	18532
906.506	18395
906.623	18327
906.74	18399
906.857	18201
906.974	18079
907.091	18441
907.208	18445
907.324	18346
907.441	18216
907.557	18209
907.674	18155
907.79	18030
907.907	18072
908.023	18129
908.139	18133
908.256	18068
908.372	17828
908.488	17843
908.604	17920
908.72	17672
908.836	17771
908.952	17764
909.068	17889
909.184	17767
909.3	17790
909.415	17824
909.531	17668
909.647	17493
909.762	17554
909.878	17562
909.993	17463
910.108	17577
910.224	17417
910.339	17391
910.454	17372
910.57	17303
910.685	17185
910.8	17551
910.915	17463
911.03	17417
911.145	17083
911.259	17067
911.374	17208
911.489	16953
911.604	16900
911.718	16930
911.833	16809
911.947	16771
912.062	16630
912.176	16774
912.291	16831
912.405	16793
912.519	16927
912.633	16972
912.748	16847
912.862	16668
912.976	16596
913.09	16531
913.204	16577
913.318	16744
913.431	16698
913.545	16656
913.659	16748
913.772	16630
913.886	16489
914	16398
914.113	16462
914.226	16531
914.34	16428
914.453	16226
914.566	16466
914.68	16417
914.793	16116
914.906	15998
915.019	15915
915.132	15899
915.245	16071
915.358	16036
915.47	15960
915.583	16032
915.696	15968
915.809	16120
915.921	16017
916.034	15865
916.146	15747
916.259	15979
916.371	15968
916.483	15915
916.595	15800
916.708	15785
916.82	15835
916.932	15755
917.044	15720
917.156	15660
917.268	15542
917.38	15496
917.491	15447
917.603	15561
917.715	15755
917.826	15614
917.938	15564
918.049	15386
918.161	15500
918.272	15694
918.384	15690
918.495	15511
918.606	15310
918.717	15378
918.828	15351
918.939	15439
919.05	15272
919.161	15321
919.272	15085
919.383	15230
919.494	15340
919.604	15545
919.715	15329
919.826	15138
919.936	15268
920.047	15378
920.157	15351
920.267	15458
920.378	15370
920.488	15116
920.598	15469
920.708	15587
920.818	15424
920.928	15359
921.038	15580
921.148	15447
921.258	15180
921.368	15157
921.477	14994
921.587	15100
921.697	14826
921.806	15047
921.916	14910
922.025	14701
922.134	14564
922.244	14492
922.353	14705
922.462	14606
922.571	14454
922.68	14324
922.789	14275
922.898	14218
923.007	14244
923.116	14374
923.224	14233
923.333	14366
923.442	14107
923.55	14084
923.659	14138
923.767	14172
923.876	14092
923.984	14103
924.092	13959
924.201	14054
924.309	13883
924.417	13951
924.525	13921
924.633	13974
924.741	14842
924.849	13639
924.956	13814
925.064	13628
925.172	13662
925.279	13689
925.387	13658
925.494	13670
925.602	13757
925.709	13753
925.816	13632
925.924	13540
926.031	13613
926.138	13518
926.245	13609
926.352	13502
926.459	13628
926.566	13727
926.673	13552
926.779	13358
926.886	13312
926.993	13206
927.099	13114
927.206	13183
927.312	13183
927.419	13198
927.525	13137
927.631	13171
927.737	13027
927.843	12951
927.95	12916
928.056	12970
928.162	12943
928.267	13080
928.373	13613
928.479	13084
928.585	12806
928.69	12996
928.796	13000
928.901	12856
929.007	12726
929.112	12875
929.218	12791
929.323	12749
929.428	12749
929.533	12833
929.638	12627
929.743	12730
929.848	12688
929.953	12585
930.058	12597
930.163	12300
930.267	12365
930.372	12479
930.477	12285
930.581	12532
930.685	12380
930.79	12296
930.894	12270
930.998	12209
931.103	12319
931.207	11958
931.311	11931
931.415	11836
931.519	11604
931.623	11718
