Data from test_V78500241_1728.txt Node
Date: Fri Mar 25 15:53:46 CST 2022
User: usil
Spectrometer: V785-0024
Trigger mode: 0
Integration Time (sec): 4.000000E-1
Scans to average: 1
Nonlinearity correction enabled: false
Boxcar width: 0
Storing dark spectrum: false
XAxis mode: Wavelengths
Number of Pixels in Spectrum: 1024
>>>>>Begin Spectral Data<<<<<
801.071	28401
801.214	28386
801.356	28120
801.499	28070
801.641	28029
801.783	28101
801.926	28112
802.068	28093
802.211	28044
802.353	27987
802.496	27781
802.638	27747
802.78	27804
802.923	27671
803.065	27724
803.208	27614
803.35	27835
803.492	27945
803.635	27991
803.777	27888
803.919	27979
804.061	28424
804.204	27975
804.346	27968
804.488	27911
804.63	28017
804.773	27911
804.915	28070
805.057	28131
805.199	27934
805.341	28166
805.483	28128
805.626	28082
805.768	28086
805.91	28211
806.052	28173
806.194	28143
806.336	28284
806.478	28002
806.62	28253
806.762	28379
806.904	28390
807.046	28645
807.188	28596
807.33	28691
807.472	28649
807.614	28630
807.756	28550
807.898	28557
808.04	28455
808.182	28344
808.324	28459
808.465	28485
808.607	28778
808.749	28812
808.891	28854
809.033	29056
809.174	28885
809.316	28759
809.458	28877
809.6	28687
809.741	28980
809.883	28999
810.025	29227
810.166	29121
810.308	29124
810.45	29044
810.591	28892
810.733	28763
810.875	28767
811.016	28755
811.158	28850
811.299	28911
811.441	28995
811.582	29014
811.724	28782
811.865	28767
812.007	28809
812.148	28740
812.29	28923
812.431	28968
812.573	29041
812.714	29246
812.855	29284
812.997	29467
813.138	29619
813.279	29512
813.421	29395
813.562	29311
813.703	29136
813.845	29048
813.986	28801
814.127	28759
814.268	28474
814.41	28580
814.551	28405
814.692	28565
814.833	28531
814.974	28607
815.115	28641
815.256	28390
815.397	28333
815.539	28379
815.68	28379
815.821	28329
815.962	28382
816.103	28344
816.244	28112
816.385	28215
816.526	28101
816.666	27991
816.807	27903
816.948	27808
817.089	27846
817.23	27842
817.371	27823
817.512	27800
817.653	27907
817.793	27819
817.934	27781
818.075	27960
818.216	27869
818.356	27808
818.497	27751
818.638	27606
818.778	27591
818.919	27534
819.06	27709
819.2	27648
819.341	27759
819.481	27793
819.622	28040
819.762	28181
819.903	28044
820.043	28006
820.184	28036
820.324	27854
820.465	28086
820.605	27911
820.746	28013
820.886	27728
821.026	27831
821.167	27895
821.307	27895
821.447	27884
821.588	27895
821.728	27675
821.868	27549
822.008	27386
822.149	27260
822.289	27321
822.429	26963
822.569	27062
822.709	26979
822.849	26811
822.99	26777
823.13	26750
823.27	26743
823.41	26632
823.55	26632
823.69	26613
823.83	26773
823.97	26663
824.11	26499
824.25	26434
824.389	26423
824.529	26541
824.669	26457
824.809	26560
824.949	26560
825.089	26598
825.228	26568
825.368	26370
825.508	26142
825.648	26298
825.787	26473
825.927	26431
826.067	26377
826.206	26191
826.346	26438
826.485	26408
826.625	26370
826.765	26545
826.904	26434
827.044	26214
827.183	26126
827.323	26020
827.462	26115
827.601	26077
827.741	26153
827.88	26145
828.02	25913
828.159	25951
828.298	26065
828.437	26062
828.577	25959
828.716	26122
828.855	25921
828.994	26016
829.134	25814
829.273	25765
829.412	25731
829.551	25639
829.69	25616
829.829	25719
829.968	25845
830.107	25761
830.246	25533
830.385	25715
830.524	25651
830.663	25514
830.802	25373
830.941	25445
831.08	25335
831.219	25556
831.357	25365
831.496	25586
831.635	25419
831.774	25263
831.913	25232
832.051	25183
832.19	25263
832.329	25221
832.467	24958
832.606	25019
832.744	25072
832.883	24973
833.022	24951
833.16	24989
833.299	24989
833.437	25137
833.576	25103
833.714	25069
833.852	25091
833.991	25122
834.129	25168
834.267	25255
834.406	25209
834.544	25118
834.682	25027
834.821	24996
834.959	25129
835.097	24992
835.235	25023
835.373	25050
835.511	25042
835.65	24859
835.788	24886
835.926	24825
836.064	24734
836.202	24730
836.34	24939
836.478	25027
836.615	24848
836.753	24798
836.891	24920
837.029	24848
837.167	24897
837.305	24890
837.443	24852
837.58	24859
837.718	24688
837.856	24772
837.993	24707
838.131	24715
838.269	24570
838.406	24540
838.544	24525
838.681	24460
838.819	24384
838.956	24155
839.094	24076
839.231	24205
839.369	24479
839.506	24551
839.643	24357
839.781	24277
839.918	23980
840.055	24205
840.193	24136
840.33	24098
840.467	24148
840.604	24232
840.742	24342
840.879	24091
841.016	24041
841.153	24011
841.29	24323
841.427	24068
841.564	24140
841.701	24045
841.838	24110
841.975	24041
842.112	24155
842.249	23958
842.385	23999
842.522	24163
842.659	23942
842.796	23824
842.933	23843
843.069	23798
843.206	23851
843.343	23920
843.479	23832
843.616	23843
843.752	23547
843.889	23634
844.025	23752
844.162	23691
844.298	23756
844.435	23634
844.571	23661
844.708	23611
844.844	23870
844.98	23630
845.117	23779
845.253	23649
845.389	23440
845.525	23585
845.661	23543
845.798	23410
845.934	23368
846.07	23330
846.206	23421
846.342	23585
846.478	23414
846.614	23109
846.75	22987
846.886	22980
847.022	23086
847.158	23083
847.294	23193
847.429	23162
847.565	23098
847.701	23318
847.837	22873
847.972	22763
848.108	22934
848.244	22850
848.379	22927
848.515	22687
848.65	22793
848.786	22752
848.921	22694
849.057	22843
849.192	22847
849.328	22622
849.463	22828
849.598	22740
849.734	22599
849.869	22535
850.004	22554
850.14	22470
850.275	22493
850.41	22481
850.545	22363
850.68	22462
850.815	22466
850.95	22447
851.085	22672
851.22	22485
851.355	22493
851.49	22375
851.625	22447
851.76	22436
851.895	22341
852.03	22386
852.165	22481
852.299	22474
852.434	22474
852.569	22573
852.703	22512
852.838	22455
852.973	22531
853.107	22615
853.242	22436
853.376	22261
853.511	22226
853.645	22211
853.78	22333
853.914	22162
854.048	22226
854.183	22268
854.317	22306
854.451	22489
854.585	22284
854.72	22158
854.854	22287
854.988	22185
855.122	22242
855.256	22032
855.39	22223
855.524	22348
855.658	22284
855.792	22253
855.926	22360
856.06	22318
856.194	22352
856.327	22200
856.461	22177
856.595	22196
856.729	22268
856.862	22371
856.996	22230
857.13	22333
857.263	22413
857.397	22485
857.53	22325
857.664	22325
857.797	22329
857.931	22310
858.064	22280
858.197	22554
858.331	22306
858.464	22169
858.597	22116
858.731	22299
858.864	22337
858.997	22223
859.13	22265
859.263	22192
859.396	22246
859.529	22169
859.662	22314
859.795	22242
859.928	22306
860.061	22394
860.194	22512
860.327	22284
860.46	22310
860.592	22527
860.725	22504
860.858	22329
860.99	22299
861.123	22124
861.256	22230
861.388	22295
861.521	23056
861.653	22272
861.786	22017
861.918	22090
862.05	22154
862.183	22158
862.315	22261
862.447	22242
862.58	22109
862.712	22029
862.844	21941
862.976	22131
863.108	22166
863.24	22398
863.372	21838
863.504	22040
863.636	22074
863.768	21968
863.9	22010
864.032	21876
864.164	21846
864.296	21964
864.428	22093
864.559	22181
864.691	22021
864.823	22032
864.954	21918
865.086	21975
865.217	21880
865.349	21827
865.48	21922
865.612	21922
865.743	22048
865.875	21793
866.006	21926
866.137	21838
866.269	21812
866.4	21838
866.531	21960
866.662	21770
866.793	21857
866.924	21732
867.055	21808
867.186	21869
867.317	21781
867.448	21766
867.579	21743
867.71	21701
867.841	21656
867.972	21869
868.103	21766
868.233	21732
868.364	21709
868.495	21987
868.625	22017
868.756	22226
868.886	22010
869.017	22013
869.147	22082
869.278	22287
869.408	22166
869.539	22006
869.669	22120
869.799	22143
869.929	22147
870.06	22025
870.19	22379
870.32	22299
870.45	22325
870.58	22432
870.71	22516
870.84	22466
870.97	22352
871.1	22497
871.23	22664
871.36	22717
871.489	22455
871.619	22653
871.749	22592
871.879	22565
872.008	22850
872.138	22698
872.267	22584
872.397	22565
872.526	22436
872.656	22341
872.785	22516
872.915	22691
873.044	22618
873.173	22550
873.303	22653
873.432	22740
873.561	22854
873.69	22687
873.819	22767
873.948	22710
874.077	22630
874.206	22615
874.335	22615
874.464	22809
874.593	22881
874.722	22843
874.851	22930
874.979	22835
875.108	22953
875.237	22778
875.365	22744
875.494	22809
875.623	22919
875.751	22824
875.88	22911
876.008	23083
876.136	22999
876.265	23258
876.393	23326
876.521	23372
876.65	23398
876.778	23258
876.906	23239
877.034	23216
877.162	23265
877.29	23075
877.418	23193
877.546	23235
877.674	23204
877.802	23121
877.93	23121
878.058	23117
878.185	23071
878.313	23155
878.441	23105
878.568	23010
878.696	23048
878.824	23227
878.951	23345
879.079	23410
879.206	23528
879.333	23383
879.461	23311
879.588	23269
879.715	23299
879.842	23592
879.97	23212
880.097	23044
880.224	22995
880.351	23124
880.478	22987
880.605	23006
880.732	23029
880.859	23170
880.986	23003
881.112	23010
881.239	22938
881.366	22694
881.493	22656
881.619	22656
881.746	22573
881.872	22596
881.999	22565
882.125	22569
882.252	22599
882.378	22527
882.505	22634
882.631	22363
882.757	22295
882.883	22291
883.01	22272
883.136	22150
883.262	22090
883.388	22101
883.514	22207
883.64	22265
883.766	22207
883.892	22112
884.018	22013
884.143	22181
884.269	22219
884.395	22036
884.52	21918
884.646	21926
884.772	21861
884.897	21953
885.023	21827
885.148	21911
885.274	21964
885.399	21945
885.524	21979
885.65	21831
885.775	21899
885.9	21831
886.025	22067
886.15	21934
886.275	21873
886.4	21797
886.525	21888
886.65	21800
886.775	21759
886.9	21918
887.025	22082
887.149	21827
887.274	21709
887.399	21827
887.523	21629
887.648	21576
887.773	21603
887.897	21663
888.021	21694
888.146	21591
888.27	21675
888.395	21759
888.519	21724
888.643	21812
888.767	21686
888.891	21538
889.015	21454
889.139	21618
889.263	21412
889.387	21648
889.511	21652
889.635	21553
889.759	21408
889.883	21454
890.006	21545
890.13	21458
890.254	21359
890.377	21386
890.501	21165
890.624	21142
890.748	21294
890.871	21055
890.995	21074
891.118	20872
891.241	20872
891.364	20998
891.488	21135
891.611	20918
891.734	21104
891.857	21028
891.98	21005
892.103	21051
892.226	20944
892.349	20906
892.471	20811
892.594	20891
892.717	20960
892.839	20758
892.962	20849
893.085	20937
893.207	20902
893.33	20769
893.452	20853
893.575	20887
893.697	20975
893.819	21017
893.941	21100
894.064	20910
894.186	20830
894.308	20956
894.43	20929
894.552	20971
894.674	20918
894.796	20811
894.918	20929
895.04	20834
895.161	21138
895.283	20880
895.405	20830
895.526	20868
895.648	20842
895.769	20967
895.891	20796
896.012	20982
896.134	20990
896.255	20891
896.376	20811
896.498	20823
896.619	21009
896.74	20868
896.861	20845
896.982	21146
897.103	21363
897.224	21089
897.345	21123
897.466	21028
897.587	21104
897.708	21340
897.828	21108
897.949	21013
898.07	20918
898.19	21005
898.311	21127
898.431	21047
898.552	21047
898.672	21165
898.792	21112
898.913	21108
899.033	21032
899.153	20868
899.273	20788
899.393	20857
899.513	20899
899.633	20777
899.753	20811
899.873	20735
899.993	20807
900.113	20712
900.232	20659
900.352	20796
900.472	20625
900.591	20530
900.711	20556
900.83	20461
900.95	20625
901.069	20651
901.189	20389
901.308	20358
901.427	20103
901.546	20233
901.665	20130
901.784	20126
901.904	19959
902.023	19925
902.141	19635
902.26	19658
902.379	19753
902.498	19674
902.617	19624
902.735	19734
902.854	19761
902.973	19666
903.091	19384
903.21	19320
903.328	19274
903.446	19285
903.565	19107
903.683	19038
903.801	19038
903.919	19099
904.038	19126
904.156	18943
904.274	19050
904.392	18882
904.51	18840
904.627	18859
904.745	18916
904.863	18856
904.981	18563
905.098	18525
905.216	18540
905.334	18532
905.451	18498
905.569	18494
905.686	18559
905.803	18483
905.921	18308
906.038	18494
906.155	18266
906.272	18205
906.389	18289
906.506	18076
906.623	18133
906.74	18049
906.857	17992
906.974	17977
907.091	18144
907.208	18148
907.324	18133
907.441	18026
907.557	17779
907.674	17798
907.79	17748
907.907	17802
908.023	17809
908.139	17699
908.256	17707
908.372	17756
908.488	17570
908.604	17467
908.72	17421
908.836	17520
908.952	17467
909.068	17547
909.184	17551
909.3	17463
909.415	17551
909.531	17566
909.647	17299
909.762	17117
909.878	17132
909.993	17174
910.108	17220
910.224	17121
910.339	17216
910.454	17037
910.57	17022
910.685	17025
910.8	17277
910.915	17071
911.03	16972
911.145	16869
911.259	16683
911.374	16736
911.489	16717
911.604	16637
911.718	16493
911.833	16504
911.947	16535
912.062	16344
912.176	16512
912.291	16611
912.405	16580
912.519	16675
912.633	16618
912.748	16577
912.862	16459
912.976	16367
913.09	16162
913.204	16363
913.318	16318
913.431	16371
913.545	16481
913.659	16375
913.772	16200
913.886	16093
914	16006
914.113	16226
914.226	16215
914.34	16143
914.453	15960
914.566	16226
914.68	15960
914.793	15903
914.906	15850
915.019	15720
915.132	15690
915.245	15774
915.358	15762
915.47	15766
915.583	15701
915.696	15732
915.809	15751
915.921	15774
916.034	15603
916.146	15667
916.259	15435
916.371	15652
916.483	15660
916.595	15523
916.708	15576
916.82	15580
916.932	15511
917.044	15504
917.156	15454
917.268	15397
917.38	15370
917.491	15325
917.603	15332
917.715	15405
917.826	15408
917.938	15241
918.049	15165
918.161	15176
918.272	15332
918.384	15291
918.495	15287
918.606	15138
918.717	15077
918.828	15138
918.939	15192
919.05	15100
919.161	15081
919.272	14891
919.383	15047
919.494	15036
919.604	15332
919.715	15142
919.826	14960
919.936	14948
920.047	15112
920.157	14979
920.267	15135
920.378	15062
920.488	14963
920.598	15127
920.708	15332
920.818	15199
920.928	15123
921.038	15378
921.148	15393
921.258	14956
921.368	14941
921.477	14804
921.587	14701
921.697	14701
921.806	14781
921.916	14606
922.025	14480
922.134	14473
922.244	14381
922.353	14454
922.462	14317
922.571	14313
922.68	14191
922.789	14081
922.898	13982
923.007	13982
923.116	14031
923.224	14027
923.333	13951
923.442	13860
923.55	13852
923.659	13917
923.767	14001
923.876	13818
923.984	13868
924.092	13772
924.201	13811
924.309	13753
924.417	13772
924.525	13662
924.633	13772
924.741	14499
924.849	13514
924.956	13582
925.064	13403
925.172	13464
925.279	13392
925.387	13472
925.494	13483
925.602	13525
925.709	13548
925.816	13316
925.924	13400
926.031	13518
926.138	13369
926.245	13384
926.352	13202
926.459	13419
926.566	13346
926.673	13343
926.779	13156
926.886	13141
926.993	13027
927.099	13057
927.206	12905
927.312	13008
927.419	13065
927.525	12973
927.631	13080
927.737	12905
927.843	12878
927.95	12692
928.056	12760
928.162	12791
928.267	12875
928.373	13384
928.479	12810
928.585	12608
928.69	12719
928.796	12802
928.901	12684
929.007	12498
929.112	12601
929.218	12578
929.323	12544
929.428	12502
929.533	12658
929.638	12452
929.743	12506
929.848	12456
929.953	12471
930.058	12353
930.163	12155
930.267	12091
930.372	12292
930.477	12163
930.581	12369
930.685	12152
930.79	12015
930.894	12045
930.998	12041
931.103	12182
931.207	11878
931.311	11786
931.415	11611
931.519	11436
931.623	11398
