Data from test_V78500241_2879.txt Node
Date: Fri Mar 25 16:01:44 CST 2022
User: usil
Spectrometer: V785-0024
Trigger mode: 0
Integration Time (sec): 4.000000E-1
Scans to average: 1
Nonlinearity correction enabled: false
Boxcar width: 0
Storing dark spectrum: false
XAxis mode: Wavelengths
Number of Pixels in Spectrum: 1024
>>>>>Begin Spectral Data<<<<<
801.071	28561
801.214	28580
801.356	28261
801.499	28257
801.641	28147
801.783	28188
801.926	28177
802.068	28101
802.211	28139
802.353	28070
802.496	27865
802.638	27831
802.78	27838
802.923	27804
803.065	27835
803.208	27793
803.35	27888
803.492	27983
803.635	28025
803.777	27907
803.919	28074
804.061	28371
804.204	28082
804.346	28070
804.488	27945
804.63	28029
804.773	27945
804.915	28166
805.057	28219
805.199	27972
805.341	28158
805.483	28344
805.626	28291
805.768	28051
805.91	28139
806.052	28169
806.194	28147
806.336	28390
806.478	28230
806.62	28375
806.762	28401
806.904	28436
807.046	28683
807.188	28596
807.33	28733
807.472	28725
807.614	28683
807.756	28664
807.898	28504
808.04	28519
808.182	28443
808.324	28577
808.465	28508
808.607	28759
808.749	28927
808.891	28957
809.033	29170
809.174	29018
809.316	28839
809.458	28900
809.6	28744
809.741	29006
809.883	29060
810.025	29056
810.166	29109
810.308	29204
810.45	29117
810.591	29162
810.733	28984
810.875	28793
811.016	28877
811.158	28885
811.299	28984
811.441	29090
811.582	29056
811.724	29037
811.865	28801
812.007	28923
812.148	28854
812.29	29018
812.431	29090
812.573	29277
812.714	29280
812.855	29345
812.997	29630
813.138	29665
813.279	29691
813.421	29444
813.562	29478
813.703	29406
813.845	29132
813.986	28949
814.127	28698
814.268	28691
814.41	28755
814.551	28622
814.692	28630
814.833	28554
814.974	28599
815.115	28459
815.256	28424
815.397	28348
815.539	28504
815.68	28337
815.821	28474
815.962	28497
816.103	28314
816.244	28234
816.385	28086
816.526	28154
816.666	28090
816.807	27850
816.948	27926
817.089	28169
817.23	27949
817.371	27956
817.512	27956
817.653	28002
817.793	27888
817.934	27975
818.075	27991
818.216	27876
818.356	27869
818.497	27819
818.638	27709
818.778	27800
818.919	27667
819.06	27812
819.2	27800
819.341	27903
819.481	27979
819.622	28029
819.762	28287
819.903	28246
820.043	28162
820.184	27911
820.324	28131
820.465	28059
820.605	27926
820.746	28143
820.886	27960
821.026	27953
821.167	27888
821.307	28090
821.447	27861
821.588	27873
821.728	27785
821.868	27553
822.008	27458
822.149	27485
822.289	27397
822.429	27169
822.569	27161
822.709	27096
822.849	27096
822.99	26853
823.13	26956
823.27	26868
823.41	26735
823.55	26689
823.69	26735
823.83	26746
823.97	26689
824.11	26564
824.25	26606
824.389	26514
824.529	26720
824.669	26434
824.809	26682
824.949	26667
825.089	26617
825.228	26495
825.368	26446
825.508	26453
825.648	26522
825.787	26427
825.927	26511
826.067	26453
826.206	26545
826.346	26404
826.485	26499
826.625	26404
826.765	26590
826.904	26343
827.044	26362
827.183	26126
827.323	26233
827.462	26161
827.601	26206
827.741	26111
827.88	26149
828.02	26259
828.159	26103
828.298	26263
828.437	26301
828.577	25951
828.716	26305
828.855	26073
828.994	25822
829.134	25852
829.273	25966
829.412	25913
829.551	25830
829.69	25871
829.829	25902
829.968	25864
830.107	25917
830.246	25890
830.385	25837
830.524	25856
830.663	25613
830.802	25597
830.941	25510
831.08	25586
831.219	25556
831.357	25578
831.496	25753
831.635	25422
831.774	25381
831.913	25415
832.051	25274
832.19	25285
832.329	25327
832.467	25289
832.606	25023
832.744	24996
832.883	25183
833.022	25126
833.16	25175
833.299	25190
833.437	25171
833.576	25308
833.714	25095
833.852	25240
833.991	25270
834.129	25187
834.267	25324
834.406	25187
834.544	25240
834.682	25179
834.821	25050
834.959	25373
835.097	25137
835.235	25293
835.373	25145
835.511	25263
835.65	24935
835.788	25084
835.926	25038
836.064	24909
836.202	25008
836.34	25046
836.478	25023
836.615	25118
836.753	25091
836.891	25091
837.029	25050
837.167	24909
837.305	25012
837.443	24890
837.58	24871
837.718	25031
837.856	24871
837.993	24932
838.131	24806
838.269	24692
838.406	24722
838.544	24738
838.681	24551
838.819	24532
838.956	24308
839.094	24414
839.231	24342
839.369	24528
839.506	24760
839.643	24563
839.781	24243
839.918	24296
840.055	24232
840.193	24289
840.33	24102
840.467	24281
840.604	24353
840.742	24407
840.879	24167
841.016	24163
841.153	24102
841.29	24391
841.427	24186
841.564	24304
841.701	24315
841.838	24197
841.975	23984
842.112	24076
842.249	24011
842.385	23973
842.522	24273
842.659	24015
842.796	23973
842.933	23916
843.069	23946
843.206	23798
843.343	23958
843.479	23992
843.616	23996
843.752	23805
843.889	23783
844.025	23992
844.162	23718
844.298	23878
844.435	23710
844.571	23646
844.708	23859
844.844	23866
844.98	23984
845.117	23813
845.253	23722
845.389	23608
845.525	23646
845.661	23566
845.798	23478
845.934	23459
846.07	23486
846.206	23459
846.342	23745
846.478	23478
846.614	23372
846.75	23124
846.886	23258
847.022	23429
847.158	23166
847.294	23269
847.429	23223
847.565	23075
847.701	23433
847.837	22869
847.972	22889
848.108	22946
848.244	22980
848.379	22774
848.515	22835
848.65	22679
848.786	22793
848.921	22900
849.057	22911
849.192	22896
849.328	22786
849.463	22797
849.598	22805
849.734	22797
849.869	22615
850.004	22615
850.14	22637
850.275	22679
850.41	22489
850.545	22474
850.68	22554
850.815	22622
850.95	22466
851.085	22805
851.22	22664
851.355	22565
851.49	22637
851.625	22664
851.76	22561
851.895	22295
852.03	22504
852.165	22516
852.299	22622
852.434	22759
852.569	22622
852.703	22565
852.838	22573
852.973	22664
853.107	22675
853.242	22451
853.376	22398
853.511	22158
853.645	22253
853.78	22402
853.914	22394
854.048	22398
854.183	22333
854.317	22443
854.451	22664
854.585	22421
854.72	22443
854.854	22436
854.988	22417
855.122	22474
855.256	22242
855.39	22390
855.524	22497
855.658	22474
855.792	22310
855.926	22405
856.06	22478
856.194	22489
856.327	22394
856.461	22200
856.595	22344
856.729	22223
856.862	22424
856.996	22398
857.13	22371
857.263	22516
857.397	22421
857.53	22375
857.664	22375
857.797	22413
857.931	22512
858.064	22436
858.197	22489
858.331	22481
858.464	22280
858.597	22268
858.731	22402
858.864	22295
858.997	22329
859.13	22478
859.263	22436
859.396	22375
859.529	22333
859.662	22177
859.795	22257
859.928	22481
860.061	22573
860.194	22561
860.327	22405
860.46	22314
860.592	22493
860.725	22398
860.858	22405
860.99	22402
861.123	22375
861.256	22268
861.388	22367
861.521	23147
861.653	22249
861.786	22200
861.918	22314
862.05	22337
862.183	22295
862.315	22280
862.447	22375
862.58	22223
862.712	22150
862.844	22067
862.976	22329
863.108	22238
863.24	22497
863.372	22063
863.504	21941
863.636	22124
863.768	22074
863.9	22112
864.032	22086
864.164	22124
864.296	22017
864.428	22120
864.559	22101
864.691	22181
864.823	22211
864.954	22070
865.086	21994
865.217	22044
865.349	21926
865.48	22017
865.612	21968
865.743	22124
865.875	22063
866.006	21953
866.137	21994
866.269	21918
866.4	21918
866.531	22021
866.662	21892
866.793	21953
866.924	21918
867.055	21949
867.186	21979
867.317	21846
867.448	21808
867.579	21892
867.71	21907
867.841	21812
867.972	22036
868.103	21899
868.233	21888
868.364	21941
868.495	21968
868.625	22177
868.756	22276
868.886	21918
869.017	22048
869.147	22211
869.278	22284
869.408	22207
869.539	22200
869.669	22169
869.799	22116
869.929	22188
870.06	22112
870.19	22538
870.32	22348
870.45	22474
870.58	22554
870.71	22584
870.84	22656
870.97	22611
871.1	22653
871.23	22683
871.36	22801
871.489	22569
871.619	22767
871.749	22858
871.879	22752
872.008	22812
872.138	22725
872.267	22782
872.397	22489
872.526	22440
872.656	22546
872.785	22455
872.915	22850
873.044	22820
873.173	22683
873.303	22801
873.432	22805
873.561	22934
873.69	22824
873.819	22801
873.948	22900
874.077	22782
874.206	22755
874.335	22812
874.464	22778
874.593	22984
874.722	22999
874.851	22930
874.979	22957
875.108	23029
875.237	22980
875.365	22976
875.494	22858
875.623	22999
875.751	23029
875.88	22850
876.008	23033
876.136	23204
876.265	23391
876.393	23421
876.521	23482
876.65	23395
876.778	23387
876.906	23353
877.034	23326
877.162	23360
877.29	23246
877.418	23246
877.546	23372
877.674	23356
877.802	23425
877.93	23315
878.058	23246
878.185	23200
878.313	23284
878.441	23406
878.568	23041
878.696	23193
878.824	23349
878.951	23421
879.079	23410
879.206	23638
879.333	23497
879.461	23303
879.588	23482
879.715	23376
879.842	23543
879.97	23349
880.097	23140
880.224	23212
880.351	23197
880.478	23128
880.605	22965
880.732	23071
880.859	23326
880.986	23284
881.112	23185
881.239	22991
881.366	22858
881.493	22748
881.619	22809
881.746	22862
881.872	22729
881.999	22668
882.125	22710
882.252	22729
882.378	22649
882.505	22698
882.631	22599
882.757	22417
882.883	22470
883.01	22348
883.136	22379
883.262	22352
883.388	22147
883.514	22402
883.64	22432
883.766	22154
883.892	22143
884.018	22287
884.143	22337
884.269	22352
884.395	22021
884.52	21968
884.646	22067
884.772	21979
884.897	21899
885.023	22101
885.148	22055
885.274	22116
885.399	22276
885.524	22086
885.65	21953
885.775	21926
885.9	22025
886.025	21968
886.15	22055
886.275	21911
886.4	21766
886.525	22025
886.65	21903
886.775	21972
886.9	22051
887.025	22204
887.149	22021
887.274	21778
887.399	21770
887.523	21739
887.648	21751
887.773	21682
887.897	21854
888.021	21827
888.146	21732
888.27	21888
888.395	21797
888.519	21755
888.643	21743
888.767	21835
888.891	21660
889.015	21561
889.139	21614
889.263	21583
889.387	21583
889.511	21724
889.635	21671
889.759	21587
889.883	21488
890.006	21603
890.13	21686
890.254	21283
890.377	21587
890.501	21249
890.624	21336
890.748	21340
890.871	21176
890.995	21005
891.118	21047
891.241	21108
891.364	21089
891.488	21173
891.611	21176
891.734	21043
891.857	21062
891.98	21173
892.103	21100
892.226	21184
892.349	20990
892.471	20876
892.594	21024
892.717	21028
892.839	20963
892.962	21051
893.085	21028
893.207	20990
893.33	20826
893.452	20842
893.575	21039
893.697	21047
893.819	21017
893.941	21230
894.064	21066
894.186	20937
894.308	20887
894.43	21070
894.552	21188
894.674	21039
894.796	20937
894.918	20963
895.04	20944
895.161	21150
895.283	21112
895.405	21039
895.526	20902
895.648	20975
895.769	21043
895.891	20960
896.012	21074
896.134	20994
896.255	20982
896.376	20880
896.498	20956
896.619	21032
896.74	20979
896.861	20899
896.982	21367
897.103	21420
897.224	21393
897.345	21123
897.466	21169
897.587	21180
897.708	21416
897.828	21195
897.949	21062
898.07	21039
898.19	21100
898.311	21420
898.431	21203
898.552	21104
898.672	21161
898.792	21272
898.913	21226
899.033	21047
899.153	20910
899.273	20864
899.393	20952
899.513	20929
899.633	20956
899.753	20960
899.873	20918
899.993	20853
900.113	20838
900.232	20883
900.352	20689
900.472	20743
900.591	20712
900.711	20648
900.83	20575
900.95	20838
901.069	20724
901.189	20549
901.308	20248
901.427	20259
901.546	20412
901.665	20271
901.784	20355
901.904	20058
902.023	20115
902.141	19788
902.26	19803
902.379	19890
902.498	19761
902.617	19734
902.735	19814
902.854	19674
902.973	19791
903.091	19392
903.21	19415
903.328	19324
903.446	19350
903.565	19274
903.683	19137
903.801	19236
903.919	19187
904.038	19164
904.156	18913
904.274	19095
904.392	18966
904.51	18920
904.627	18958
904.745	18966
904.863	18928
904.981	18749
905.098	18608
905.216	18646
905.334	18623
905.451	18700
905.569	18696
905.686	18635
905.803	18559
905.921	18414
906.038	18597
906.155	18464
906.272	18277
906.389	18433
906.506	18114
906.623	18076
906.74	18216
906.857	18133
906.974	18049
907.091	18091
907.208	18224
907.324	18106
907.441	18125
907.557	17927
907.674	17954
907.79	17684
907.907	17764
908.023	17961
908.139	17775
908.256	17893
908.372	17805
908.488	17748
908.604	17623
908.72	17680
908.836	17539
908.952	17558
909.068	17619
909.184	17714
909.3	17482
909.415	17668
909.531	17627
909.647	17242
909.762	17311
909.878	17292
909.993	17231
910.108	17326
910.224	17265
910.339	17151
910.454	17132
910.57	17083
910.685	17041
910.8	17322
910.915	17155
911.03	17010
911.145	16839
911.259	16843
911.374	16965
911.489	16831
911.604	16698
911.718	16611
911.833	16580
911.947	16474
912.062	16504
912.176	16622
912.291	16607
912.405	16584
912.519	16866
912.633	16858
912.748	16713
912.862	16580
912.976	16337
913.09	16219
913.204	16337
913.318	16394
913.431	16413
913.545	16493
913.659	16481
913.772	16375
913.886	16215
914	16200
914.113	16265
914.226	16417
914.34	16143
914.453	16181
914.566	16253
914.68	16036
914.793	16032
914.906	15895
915.019	15800
915.132	15705
915.245	15819
915.358	15736
915.47	15793
915.583	15675
915.696	15789
915.809	15934
915.921	15819
916.034	15743
916.146	15739
916.259	15675
916.371	15842
916.483	15785
916.595	15641
916.708	15656
916.82	15576
916.932	15473
917.044	15488
917.156	15629
917.268	15584
917.38	15500
917.491	15397
917.603	15401
917.715	15405
917.826	15458
917.938	15370
918.049	15226
918.161	15332
918.272	15443
918.384	15504
918.495	15298
918.606	15207
918.717	15108
918.828	15207
918.939	15119
919.05	15119
919.161	15036
919.272	14918
919.383	14998
919.494	15226
919.604	15351
919.715	15161
919.826	15036
919.936	15112
920.047	15180
920.157	15085
920.267	15226
920.378	15131
920.488	14986
920.598	15233
920.708	15431
920.818	15249
920.928	15142
921.038	15367
921.148	15359
921.258	15047
921.368	14967
921.477	14868
921.587	14796
921.697	14670
921.806	14872
921.916	14678
922.025	14526
922.134	14461
922.244	14385
922.353	14503
922.462	14377
922.571	14256
922.68	14081
922.789	14142
922.898	14161
923.007	14046
923.116	14107
923.224	14103
923.333	14062
923.442	13936
923.55	13959
923.659	13940
923.767	13970
923.876	13852
923.984	13913
924.092	13841
924.201	13837
924.309	13860
924.417	13860
924.525	13795
924.633	13845
924.741	14636
924.849	13575
924.956	13651
925.064	13518
925.172	13480
925.279	13483
925.387	13457
925.494	13529
925.602	13594
925.709	13624
925.816	13327
925.924	13453
926.031	13438
926.138	13415
926.245	13499
926.352	13327
926.459	13506
926.566	13483
926.673	13369
926.779	13213
926.886	13194
926.993	13065
927.099	13050
927.206	12913
927.312	12951
927.419	13145
927.525	13107
927.631	12966
927.737	12981
927.843	12886
927.95	12795
928.056	12856
928.162	12924
928.267	12882
928.373	13552
928.479	12905
928.585	12650
928.69	12787
928.796	12848
928.901	12696
929.007	12555
929.112	12722
929.218	12563
929.323	12688
929.428	12559
929.533	12658
929.638	12517
929.743	12528
929.848	12582
929.953	12456
930.058	12342
930.163	12228
930.267	12304
930.372	12365
930.477	12292
930.581	12410
930.685	12205
930.79	12182
930.894	12125
930.998	12038
931.103	12186
931.207	11836
931.311	11802
931.415	11707
931.519	11493
931.623	11410
