Data from test_V78500241_1145.txt Node
Date: Fri Mar 25 15:49:43 CST 2022
User: usil
Spectrometer: V785-0024
Trigger mode: 0
Integration Time (sec): 4.000000E-1
Scans to average: 1
Nonlinearity correction enabled: false
Boxcar width: 0
Storing dark spectrum: false
XAxis mode: Wavelengths
Number of Pixels in Spectrum: 1024
>>>>>Begin Spectral Data<<<<<
801.071	28557
801.214	28443
801.356	28417
801.499	28162
801.641	27899
801.783	27972
801.926	28006
802.068	27960
802.211	28067
802.353	27907
802.496	27812
802.638	27812
802.78	27629
802.923	27739
803.065	27652
803.208	27633
803.35	27785
803.492	27888
803.635	27884
803.777	27800
803.919	27892
804.061	28348
804.204	28101
804.346	27873
804.488	27800
804.63	27903
804.773	27838
804.915	27945
805.057	27930
805.199	27956
805.341	28097
805.483	28112
805.626	28090
805.768	28101
805.91	28101
806.052	28173
806.194	28093
806.336	28394
806.478	28242
806.62	28242
806.762	28242
806.904	28337
807.046	28653
807.188	28569
807.33	28478
807.472	28656
807.614	28675
807.756	28516
807.898	28466
808.04	28322
808.182	28367
808.324	28451
808.465	28584
808.607	28702
808.749	28691
808.891	29018
809.033	28938
809.174	28888
809.316	28721
809.458	28683
809.6	28786
809.741	28934
809.883	29022
810.025	29033
810.166	28991
810.308	29166
810.45	29052
810.591	29033
810.733	28767
810.875	28744
811.016	28793
811.158	28755
811.299	28752
811.441	28991
811.582	28965
811.724	28900
811.865	28717
812.007	28801
812.148	28831
812.29	28900
812.431	28885
812.573	29181
812.714	29193
812.855	29368
812.997	29334
813.138	29619
813.279	29497
813.421	29193
813.562	29349
813.703	29193
813.845	29037
813.986	28793
814.127	28436
814.268	28497
814.41	28516
814.551	28512
814.692	28660
814.833	28592
814.974	28565
815.115	28508
815.256	28371
815.397	28436
815.539	28382
815.68	28303
815.821	28219
815.962	28424
816.103	28272
816.244	28287
816.385	28109
816.526	28158
816.666	27876
816.807	27800
816.948	27911
817.089	28021
817.23	27778
817.371	27739
817.512	27941
817.653	27724
817.793	27797
817.934	27774
818.075	27922
818.216	27797
818.356	27762
818.497	27785
818.638	27458
818.778	27580
818.919	27629
819.06	27583
819.2	27770
819.341	27899
819.481	27797
819.622	27968
819.762	28169
819.903	28044
820.043	28093
820.184	28002
820.324	27930
820.465	27987
820.605	28055
820.746	27918
820.886	27835
821.026	28051
821.167	27941
821.307	28021
821.447	28025
821.588	27823
821.728	27614
821.868	27393
822.008	27321
822.149	27367
822.289	27291
822.429	27062
822.569	26979
822.709	27020
822.849	26689
822.99	26956
823.13	26842
823.27	26788
823.41	26640
823.55	26564
823.69	26594
823.83	26682
823.97	26613
824.11	26419
824.25	26537
824.389	26431
824.529	26503
824.669	26453
824.809	26530
824.949	26606
825.089	26613
825.228	26682
825.368	26332
825.508	26313
825.648	26305
825.787	26351
825.927	26514
826.067	26370
826.206	26476
826.346	26351
826.485	26366
826.625	26320
826.765	26434
826.904	26389
827.044	26062
827.183	26142
827.323	25940
827.462	26172
827.601	26180
827.741	26119
827.88	26084
828.02	25966
828.159	25955
828.298	26062
828.437	26054
828.577	26012
828.716	26084
828.855	26027
828.994	25849
829.134	25887
829.273	25871
829.412	25811
829.551	25795
829.69	25700
829.829	25753
829.968	25917
830.107	25837
830.246	25799
830.385	25700
830.524	25563
830.663	25563
830.802	25388
830.941	25396
831.08	25388
831.219	25487
831.357	25400
831.496	25597
831.635	25358
831.774	25362
831.913	25213
832.051	25247
832.19	25015
832.329	25141
832.467	25080
832.606	24962
832.744	25072
832.883	25194
833.022	24901
833.16	25080
833.299	25065
833.437	25202
833.576	25217
833.714	25099
833.852	25095
833.991	25221
834.129	25190
834.267	25057
834.406	25095
834.544	25198
834.682	25141
834.821	25042
834.959	25141
835.097	25091
835.235	24992
835.373	25152
835.511	25114
835.65	25019
835.788	24970
835.926	24787
836.064	24745
836.202	24677
836.34	24787
836.478	25031
836.615	24894
836.753	24943
836.891	24973
837.029	24996
837.167	24886
837.305	24844
837.443	24871
837.58	24734
837.718	24844
837.856	24852
837.993	24757
838.131	24627
838.269	24760
838.406	24547
838.544	24646
838.681	24399
838.819	24369
838.956	24254
839.094	24285
839.231	24327
839.369	24342
839.506	24532
839.643	24441
839.781	24247
839.918	24224
840.055	24251
840.193	24201
840.33	24117
840.467	24163
840.604	24235
840.742	24433
840.879	24057
841.016	24110
841.153	23939
841.29	24190
841.427	24201
841.564	24224
841.701	24216
841.838	24022
841.975	23946
842.112	23965
842.249	24003
842.385	23866
842.522	24171
842.659	23996
842.796	23851
842.933	23973
843.069	23832
843.206	23790
843.343	23889
843.479	23977
843.616	24018
843.752	23653
843.889	23710
844.025	23779
844.162	23634
844.298	23786
844.435	23703
844.571	23581
844.708	23729
844.844	23802
844.98	23646
845.117	23691
845.253	23531
845.389	23493
845.525	23524
845.661	23604
845.798	23326
845.934	23501
846.07	23315
846.206	23455
846.342	23433
846.478	23299
846.614	23200
846.75	22965
846.886	23090
847.022	23227
847.158	23296
847.294	23155
847.429	23155
847.565	22976
847.701	23334
847.837	22778
847.972	22793
848.108	22896
848.244	22942
848.379	22744
848.515	22729
848.65	22683
848.786	22618
848.921	22858
849.057	22816
849.192	22831
849.328	22748
849.463	22721
849.598	22691
849.734	22573
849.869	22596
850.004	22363
850.14	22413
850.275	22474
850.41	22344
850.545	22466
850.68	22500
850.815	22527
850.95	22493
851.085	22717
851.22	22584
851.355	22535
851.49	22459
851.625	22459
851.76	22394
851.895	22424
852.03	22447
852.165	22432
852.299	22417
852.434	22630
852.569	22565
852.703	22527
852.838	22497
852.973	22736
853.107	22588
853.242	22493
853.376	22295
853.511	22135
853.645	22120
853.78	22306
853.914	22211
854.048	22299
854.183	22188
854.317	22303
854.451	22417
854.585	22230
854.72	22356
854.854	22424
854.988	22306
855.122	22188
855.256	22204
855.39	22219
855.524	22337
855.658	22246
855.792	22291
855.926	22341
856.06	22386
856.194	22424
856.327	22223
856.461	22200
856.595	22211
856.729	22253
856.862	22306
856.996	22257
857.13	22428
857.263	22363
857.397	22219
857.53	22497
857.664	22272
857.797	22333
857.931	22287
858.064	22257
858.197	22379
858.331	22303
858.464	22188
858.597	22150
858.731	22325
858.864	22272
858.997	22284
859.13	22398
859.263	22322
859.396	22333
859.529	22337
859.662	22219
859.795	22147
859.928	22295
860.061	22367
860.194	22363
860.327	22322
860.46	22226
860.592	22341
860.725	22489
860.858	22474
860.99	22242
861.123	22135
861.256	22223
861.388	22363
861.521	22881
861.653	22029
861.786	22059
861.918	22097
862.05	22074
862.183	22070
862.315	22207
862.447	22314
862.58	22242
862.712	21911
862.844	22010
862.976	21968
863.108	22059
863.24	22489
863.372	21838
863.504	21972
863.636	21987
863.768	22048
863.9	21979
864.032	21850
864.164	22010
864.296	22105
864.428	22070
864.559	21972
864.691	22025
864.823	21975
864.954	22093
865.086	21979
865.217	21899
865.349	21895
865.48	21804
865.612	21899
865.743	21994
865.875	21789
866.006	21846
866.137	21857
866.269	21869
866.4	21739
866.531	21800
866.662	21831
866.793	21781
866.924	21812
867.055	21861
867.186	21755
867.317	21888
867.448	21770
867.579	21739
867.71	21793
867.841	21778
867.972	21766
868.103	21759
868.233	21739
868.364	21762
868.495	22021
868.625	22021
868.756	22070
868.886	21994
869.017	21880
869.147	22124
869.278	22097
869.408	22116
869.539	22029
869.669	22097
869.799	22120
869.929	22215
870.06	22181
870.19	22360
870.32	22318
870.45	22451
870.58	22455
870.71	22557
870.84	22421
870.97	22462
871.1	22428
871.23	22584
871.36	22577
871.489	22474
871.619	22717
871.749	22523
871.879	22725
872.008	22615
872.138	22630
872.267	22641
872.397	22531
872.526	22428
872.656	22485
872.785	22584
872.915	22702
873.044	22729
873.173	22626
873.303	22717
873.432	22637
873.561	22824
873.69	22649
873.819	22759
873.948	22691
874.077	22660
874.206	22683
874.335	22573
874.464	22805
874.593	22797
874.722	22782
874.851	22908
874.979	22885
875.108	22946
875.237	22862
875.365	22805
875.494	22866
875.623	22858
875.751	22820
875.88	23006
876.008	22999
876.136	22923
876.265	23296
876.393	23387
876.521	23402
876.65	23322
876.778	23261
876.906	23223
877.034	23143
877.162	23197
877.29	23189
877.418	23159
877.546	23208
877.674	23143
877.802	23064
877.93	23181
878.058	23174
878.185	23090
878.313	23117
878.441	23307
878.568	23037
878.696	23121
878.824	23185
878.951	23360
879.079	23353
879.206	23547
879.333	23410
879.461	23193
879.588	23414
879.715	23341
879.842	23478
879.97	23254
880.097	23147
880.224	23071
880.351	23037
880.478	23029
880.605	22972
880.732	23025
880.859	23250
880.986	23037
881.112	22934
881.239	22877
881.366	22767
881.493	22812
881.619	22573
881.746	22668
881.872	22485
881.999	22580
882.125	22554
882.252	22569
882.378	22466
882.505	22531
882.631	22352
882.757	22272
882.883	22375
883.01	22367
883.136	22265
883.262	22029
883.388	22272
883.514	22200
883.64	22337
883.766	22158
883.892	22139
884.018	22086
884.143	22310
884.269	22276
884.395	22029
884.52	21911
884.646	21816
884.772	21842
884.897	21800
885.023	22032
885.148	21960
885.274	22036
885.399	22002
885.524	22078
885.65	21998
885.775	22006
885.9	21930
886.025	22067
886.15	22036
886.275	21884
886.4	21800
886.525	21960
886.65	21770
886.775	21812
886.9	21937
887.025	22029
887.149	21915
887.274	21720
887.399	21606
887.523	21739
887.648	21648
887.773	21587
887.897	21884
888.021	21652
888.146	21507
888.27	21842
888.395	21580
888.519	21709
888.643	21682
888.767	21644
888.891	21492
889.015	21492
889.139	21610
889.263	21447
889.387	21618
889.511	21660
889.635	21538
889.759	21466
889.883	21454
890.006	21538
890.13	21450
890.254	21348
890.377	21405
890.501	21203
890.624	21135
890.748	21313
890.871	21135
890.995	21093
891.118	20979
891.241	21039
891.364	21032
891.488	21112
891.611	21058
891.734	20918
891.857	21180
891.98	21032
892.103	21001
892.226	21055
892.349	20872
892.471	20750
892.594	20990
892.717	20906
892.839	20902
892.962	20937
893.085	21070
893.207	20944
893.33	20849
893.452	20868
893.575	20990
893.697	20883
893.819	20933
893.941	21127
894.064	20975
894.186	20849
894.308	20731
894.43	21039
894.552	21013
894.674	20952
894.796	20868
894.918	20990
895.04	20705
895.161	20960
895.283	21024
895.405	20731
895.526	20910
895.648	20792
895.769	20921
895.891	20739
896.012	20834
896.134	20906
896.255	20914
896.376	20838
896.498	20864
896.619	20990
896.74	20899
896.861	20921
896.982	21214
897.103	21473
897.224	21096
897.345	21074
897.466	21116
897.587	21039
897.708	21260
897.828	21165
897.949	21051
898.07	20872
898.19	21036
898.311	21184
898.431	21142
898.552	21123
898.672	21058
898.792	21165
898.913	21055
899.033	21055
899.153	20941
899.273	20811
899.393	20796
899.513	20864
899.633	20823
899.753	20876
899.873	20750
899.993	20906
900.113	20697
900.232	20792
900.352	20648
900.472	20511
900.591	20629
900.711	20640
900.83	20564
900.95	20640
901.069	20689
901.189	20484
901.308	20233
901.427	20096
901.546	20191
901.665	20240
901.784	20244
901.904	20008
902.023	19959
902.141	19712
902.26	19742
902.379	19734
902.498	19647
902.617	19677
902.735	19719
902.854	19575
902.973	19594
903.091	19441
903.21	19324
903.328	19285
903.446	19194
903.565	19122
903.683	19190
903.801	18932
903.919	19080
904.038	19145
904.156	18829
904.274	18958
904.392	18821
904.51	18871
904.627	18913
904.745	18856
904.863	18916
904.981	18848
905.098	18593
905.216	18574
905.334	18578
905.451	18616
905.569	18479
905.686	18551
905.803	18551
905.921	18365
906.038	18532
906.155	18323
906.272	18273
906.389	18243
906.506	18133
906.623	18087
906.74	18155
906.857	17965
906.974	17969
907.091	18076
907.208	18133
907.324	18041
907.441	17988
907.557	17722
907.674	17783
907.79	17760
907.907	17737
908.023	17722
908.139	17893
908.256	17794
908.372	17680
908.488	17611
908.604	17554
908.72	17482
908.836	17459
908.952	17459
909.068	17596
909.184	17630
909.3	17512
909.415	17501
909.531	17459
909.647	17193
909.762	17231
909.878	17060
909.993	17223
910.108	17178
910.224	17124
910.339	17269
910.454	17136
910.57	17041
910.685	16961
910.8	17223
910.915	17117
911.03	16995
911.145	16752
911.259	16736
911.374	16759
911.489	16664
911.604	16679
911.718	16531
911.833	16618
911.947	16500
912.062	16421
912.176	16615
912.291	16584
912.405	16546
912.519	16736
912.633	16679
912.748	16580
912.862	16550
912.976	16371
913.09	16261
913.204	16230
913.318	16348
913.431	16344
913.545	16379
913.659	16405
913.772	16360
913.886	16147
914	16116
914.113	16105
914.226	16188
914.34	16135
914.453	15994
914.566	16067
914.68	16071
914.793	15911
914.906	15846
915.019	15671
915.132	15709
915.245	15713
915.358	15652
915.47	15660
915.583	15770
915.696	15682
915.809	15854
915.921	15732
916.034	15622
916.146	15545
916.259	15663
916.371	15629
916.483	15564
916.595	15622
916.708	15595
916.82	15545
916.932	15587
917.044	15450
917.156	15458
917.268	15321
917.38	15431
917.491	15260
917.603	15389
917.715	15428
917.826	15481
917.938	15184
918.049	15241
918.161	15268
918.272	15439
918.384	15359
918.495	15268
918.606	15135
918.717	15062
918.828	15104
918.939	15142
919.05	15001
919.161	15020
919.272	14845
919.383	14975
919.494	15039
919.604	15252
919.715	15108
919.826	14960
919.936	15127
920.047	15093
920.157	15062
920.267	15245
920.378	14994
920.488	15020
920.598	15184
920.708	15363
920.818	15108
920.928	15131
921.038	15351
921.148	15310
921.258	14982
921.368	14986
921.477	14842
921.587	14765
921.697	14629
921.806	14819
921.916	14617
922.025	14503
922.134	14526
922.244	14332
922.353	14438
922.462	14263
922.571	14153
922.68	14206
922.789	14134
922.898	14058
923.007	13986
923.116	14176
923.224	13940
923.333	14043
923.442	13932
923.55	13951
923.659	13875
923.767	13921
923.876	13791
923.984	13803
924.092	13837
924.201	13830
924.309	13814
924.417	13731
924.525	13799
924.633	13643
924.741	14495
924.849	13499
924.956	13662
925.064	13464
925.172	13411
925.279	13426
925.387	13514
925.494	13381
925.602	13575
925.709	13472
925.816	13274
925.924	13388
926.031	13449
926.138	13415
926.245	13362
926.352	13251
926.459	13480
926.566	13430
926.673	13274
926.779	13122
926.886	13160
926.993	13038
927.099	13008
927.206	12970
927.312	13004
927.419	13065
927.525	12878
927.631	12939
927.737	12871
927.843	12776
927.95	12703
928.056	12833
928.162	12829
928.267	12817
928.373	13480
928.479	12840
928.585	12677
928.69	12707
928.796	12791
928.901	12658
929.007	12452
929.112	12612
929.218	12536
929.323	12536
929.428	12559
929.533	12658
929.638	12426
929.743	12506
929.848	12532
929.953	12437
930.058	12342
930.163	12136
930.267	12239
930.372	12414
930.477	12106
930.581	12334
930.685	12273
930.79	12053
930.894	12098
930.998	12034
931.103	12171
931.207	11809
931.311	11741
931.415	11627
931.519	11478
931.623	11444
