Data from test_V78500241_3659.txt Node
Date: Fri Mar 25 16:07:08 CST 2022
User: usil
Spectrometer: V785-0024
Trigger mode: 0
Integration Time (sec): 4.000000E-1
Scans to average: 1
Nonlinearity correction enabled: false
Boxcar width: 0
Storing dark spectrum: false
XAxis mode: Wavelengths
Number of Pixels in Spectrum: 1024
>>>>>Begin Spectral Data<<<<<
801.071	28565
801.214	28645
801.356	28379
801.499	28246
801.641	28219
801.783	28265
801.926	28219
802.068	28230
802.211	28192
802.353	28097
802.496	28059
802.638	27983
802.78	27922
802.923	27781
803.065	27610
803.208	27880
803.35	27857
803.492	27987
803.635	28188
803.777	28021
803.919	28093
804.061	28500
804.204	28219
804.346	28048
804.488	28135
804.63	28063
804.773	28200
804.915	28078
805.057	28360
805.199	28166
805.341	28356
805.483	28287
805.626	28394
805.768	28211
805.91	28284
806.052	28284
806.194	28192
806.336	28443
806.478	28322
806.62	28192
806.762	28447
806.904	28603
807.046	28793
807.188	28679
807.33	28850
807.472	28771
807.614	28797
807.756	28744
807.898	28641
808.04	28588
808.182	28546
808.324	28596
808.465	28641
808.607	28976
808.749	28930
808.891	29102
809.033	29132
809.174	29003
809.316	28987
809.458	29094
809.6	29113
809.741	29014
809.883	29079
810.025	29094
810.166	29258
810.308	29200
810.45	29067
810.591	29121
810.733	29067
810.875	29079
811.016	29052
811.158	28805
811.299	29018
811.441	29303
811.582	29048
811.724	29041
811.865	29102
812.007	29083
812.148	28892
812.29	29166
812.431	29094
812.573	29356
812.714	29425
812.855	29474
812.997	29520
813.138	29718
813.279	29554
813.421	29619
813.562	29463
813.703	29318
813.845	29280
813.986	28999
814.127	28824
814.268	28725
814.41	28942
814.551	28736
814.692	28725
814.833	28767
814.974	28573
815.115	28847
815.256	28489
815.397	28565
815.539	28538
815.68	28546
815.821	28413
815.962	28554
816.103	28417
816.244	28382
816.385	28207
816.526	28238
816.666	28139
816.807	28185
816.948	28040
817.089	28131
817.23	28044
817.371	28013
817.512	27934
817.653	28055
817.793	27994
817.934	27979
818.075	28226
818.216	28128
818.356	27960
818.497	27854
818.638	27857
818.778	27720
818.919	27884
819.06	27816
819.2	28032
819.341	28101
819.481	28120
819.622	28120
819.762	28310
819.903	28265
820.043	28219
820.184	28257
820.324	28143
820.465	28150
820.605	28116
820.746	28128
820.886	27983
821.026	28059
821.167	28207
821.307	28215
821.447	27922
821.588	27941
821.728	27983
821.868	27781
822.008	27610
822.149	27618
822.289	27542
822.429	27249
822.569	27226
822.709	27146
822.849	27066
822.99	27062
823.13	27093
823.27	27024
823.41	26876
823.55	26773
823.69	27001
823.83	26948
823.97	26895
824.11	26602
824.25	26708
824.389	26648
824.529	26918
824.669	26583
824.809	26861
824.949	26777
825.089	26781
825.228	26769
825.368	26533
825.508	26484
825.648	26625
825.787	26678
825.927	26583
826.067	26503
826.206	26651
826.346	26526
826.485	26655
826.625	26545
826.765	26686
826.904	26583
827.044	26336
827.183	26431
827.323	26176
827.462	26400
827.601	26256
827.741	26278
827.88	26434
828.02	26157
828.159	26408
828.298	26317
828.437	26427
828.577	26142
828.716	26453
828.855	26290
828.994	25966
829.134	26008
829.273	26077
829.412	25909
829.551	25833
829.69	26024
829.829	26062
829.968	26016
830.107	26035
830.246	25993
830.385	25982
830.524	25921
830.663	25757
830.802	25712
830.941	25559
831.08	25460
831.219	25704
831.357	25624
831.496	25856
831.635	25708
831.774	25548
831.913	25476
832.051	25483
832.19	25358
832.329	25499
832.467	25327
832.606	25225
832.744	25278
832.883	25202
833.022	25126
833.16	25266
833.299	25301
833.437	25232
833.576	25335
833.714	25274
833.852	25384
833.991	25225
834.129	25411
834.267	25274
834.406	25194
834.544	25388
834.682	25297
834.821	25320
834.959	25559
835.097	25213
835.235	25373
835.373	25403
835.511	25320
835.65	25179
835.788	25251
835.926	25015
836.064	25046
836.202	24954
836.34	25137
836.478	25190
836.615	25156
836.753	25160
836.891	25190
837.029	25179
837.167	24977
837.305	24992
837.443	24962
837.58	24859
837.718	25091
837.856	24958
837.993	24913
838.131	24920
838.269	24840
838.406	24890
838.544	24726
838.681	24635
838.819	24601
838.956	24441
839.094	24376
839.231	24372
839.369	24559
839.506	24795
839.643	24646
839.781	24521
839.918	24426
840.055	24418
840.193	24426
840.33	24266
840.467	24517
840.604	24429
840.742	24620
840.879	24209
841.016	24338
841.153	24395
841.29	24361
841.427	24330
841.564	24194
841.701	24247
841.838	24300
841.975	24209
842.112	24197
842.249	24209
842.385	24064
842.522	24327
842.659	24235
842.796	23992
842.933	24083
843.069	23969
843.206	24186
843.343	24121
843.479	24087
843.616	24053
843.752	23843
843.889	23893
844.025	23954
844.162	23794
844.298	24041
844.435	23722
844.571	23828
844.708	23798
844.844	24136
844.98	23935
845.117	24057
845.253	23729
845.389	23695
845.525	23855
845.661	23790
845.798	23649
845.934	23729
846.07	23570
846.206	23566
846.342	23608
846.478	23520
846.614	23337
846.75	23227
846.886	23364
847.022	23497
847.158	23273
847.294	23360
847.429	23273
847.565	23383
847.701	23551
847.837	23025
847.972	23003
848.108	23162
848.244	23189
848.379	23006
848.515	22858
848.65	22778
848.786	22987
848.921	22850
849.057	22961
849.192	22957
849.328	22942
849.463	22900
849.598	22919
849.734	22831
849.869	22725
850.004	22733
850.14	22729
850.275	22801
850.41	22611
850.545	22694
850.68	22634
850.815	22675
850.95	22672
851.085	22839
851.22	22835
851.355	22729
851.49	22649
851.625	22626
851.76	22611
851.895	22694
852.03	22694
852.165	22641
852.299	22675
852.434	22725
852.569	22729
852.703	22755
852.838	22763
852.973	22892
853.107	22816
853.242	22592
853.376	22565
853.511	22325
853.645	22440
853.78	22706
853.914	22550
854.048	22512
854.183	22462
854.317	22565
854.451	22736
854.585	22497
854.72	22500
854.854	22459
854.988	22459
855.122	22470
855.256	22474
855.39	22535
855.524	22698
855.658	22573
855.792	22516
855.926	22584
856.06	22592
856.194	22493
856.327	22417
856.461	22443
856.595	22413
856.729	22417
856.862	22641
856.996	22546
857.13	22531
857.263	22603
857.397	22577
857.53	22443
857.664	22493
857.797	22675
857.931	22691
858.064	22519
858.197	22679
858.331	22531
858.464	22504
858.597	22455
858.731	22462
858.864	22455
858.997	22531
859.13	22557
859.263	22436
859.396	22656
859.529	22538
859.662	22421
859.795	22413
859.928	22497
860.061	22538
860.194	22664
860.327	22569
860.46	22489
860.592	22596
860.725	22786
860.858	22512
860.99	22493
861.123	22531
861.256	22379
861.388	22436
861.521	23250
861.653	22481
861.786	22344
861.918	22287
862.05	22500
862.183	22352
862.315	22424
862.447	22504
862.58	22474
862.712	22295
862.844	22173
862.976	22356
863.108	22215
863.24	22660
863.372	22169
863.504	22287
863.636	22192
863.768	22219
863.9	22280
864.032	22162
864.164	22223
864.296	22284
864.428	22306
864.559	22303
864.691	22367
864.823	22284
864.954	22097
865.086	22261
865.217	22105
865.349	22181
865.48	22070
865.612	22048
865.743	22234
865.875	22097
866.006	22036
866.137	22006
866.269	22177
866.4	22101
866.531	21941
866.662	22032
866.793	22032
866.924	22051
867.055	21953
867.186	21934
867.317	21941
867.448	22017
867.579	22021
867.71	21953
867.841	21937
867.972	22051
868.103	21892
868.233	21876
868.364	22070
868.495	22093
868.625	22185
868.756	22246
868.886	22158
869.017	22166
869.147	22226
869.278	22394
869.408	22173
869.539	22158
869.669	22204
869.799	22314
869.929	22310
870.06	22261
870.19	22580
870.32	22485
870.45	22622
870.58	22740
870.71	22793
870.84	22763
870.97	22478
871.1	22656
871.23	22790
871.36	22801
871.489	22771
871.619	22835
871.749	22729
871.879	22999
872.008	22957
872.138	22828
872.267	22953
872.397	22801
872.526	22569
872.656	22797
872.785	22721
872.915	22850
873.044	22953
873.173	22774
873.303	22919
873.432	22930
873.561	22908
873.69	22934
873.819	22972
873.948	22915
874.077	22980
874.206	22839
874.335	22961
874.464	22976
874.593	23079
874.722	23033
874.851	23132
874.979	23216
875.108	23121
875.237	22968
875.365	22915
875.494	23102
875.623	23143
875.751	23060
875.88	23124
876.008	23189
876.136	23288
876.265	23490
876.393	23608
876.521	23608
876.65	23493
876.778	23516
876.906	23425
877.034	23410
877.162	23440
877.29	23261
877.418	23463
877.546	23440
877.674	23379
877.802	23269
877.93	23471
878.058	23334
878.185	23334
878.313	23303
878.441	23372
878.568	23277
878.696	23299
878.824	23391
878.951	23554
879.079	23703
879.206	23752
879.333	23634
879.461	23528
879.588	23638
879.715	23649
879.842	23764
879.97	23509
880.097	23349
880.224	23121
880.351	23166
880.478	23307
880.605	23254
880.732	23204
880.859	23497
880.986	23239
881.112	23296
881.239	23098
881.366	22980
881.493	22866
881.619	22664
881.746	22919
881.872	22831
881.999	22736
882.125	22805
882.252	22721
882.378	22831
882.505	22904
882.631	22637
882.757	22561
882.883	22512
883.01	22485
883.136	22371
883.262	22402
883.388	22382
883.514	22508
883.64	22440
883.766	22272
883.892	22268
884.018	22341
884.143	22436
884.269	22478
884.395	22295
884.52	22112
884.646	22200
884.772	22040
884.897	21880
885.023	22051
885.148	22147
885.274	22211
885.399	22268
885.524	22120
885.65	22204
885.775	22139
885.9	22109
886.025	22238
886.15	22246
886.275	22158
886.4	21975
886.525	22128
886.65	22032
886.775	21979
886.9	22204
887.025	22261
887.149	22109
887.274	21823
887.399	21861
887.523	21915
887.648	21819
887.773	21755
887.897	21869
888.021	21819
888.146	21854
888.27	21930
888.395	22013
888.519	21903
888.643	21884
888.767	22013
888.891	21846
889.015	21629
889.139	21835
889.263	21625
889.387	21728
889.511	21915
889.635	21625
889.759	21606
889.883	21641
890.006	21660
890.13	21720
890.254	21656
890.377	21739
890.501	21378
890.624	21496
890.748	21374
890.871	21298
890.995	21218
891.118	21230
891.241	21192
891.364	21180
891.488	21272
891.611	21199
891.734	21264
891.857	21386
891.98	21157
892.103	21226
892.226	21165
892.349	21116
892.471	21009
892.594	21085
892.717	21135
892.839	21077
892.962	21024
893.085	21214
893.207	21214
893.33	20982
893.452	21081
893.575	21150
893.697	21047
893.819	21230
893.941	21313
894.064	21100
894.186	21096
894.308	21009
894.43	21233
894.552	21298
894.674	21066
894.796	21055
894.918	21036
895.04	21070
895.161	21211
895.283	21089
895.405	21009
895.526	21070
895.648	21020
895.769	21116
895.891	21100
896.012	21085
896.134	21188
896.255	21104
896.376	21070
896.498	21123
896.619	21119
896.74	21161
896.861	21154
896.982	21454
897.103	21462
897.224	21245
897.345	21401
897.466	21184
897.587	21386
897.708	21405
897.828	21226
897.949	21325
898.07	21150
898.19	21279
898.311	21260
898.431	21188
898.552	21150
898.672	21256
898.792	21256
898.913	21298
899.033	21214
899.153	21165
899.273	20960
899.393	21066
899.513	20948
899.633	21028
899.753	21123
899.873	20925
899.993	21066
900.113	20956
900.232	21032
900.352	20929
900.472	20823
900.591	20697
900.711	20838
900.83	20731
900.95	20811
901.069	20902
901.189	20769
901.308	20552
901.427	20358
901.546	20271
901.665	20438
901.784	20309
901.904	20214
902.023	20199
902.141	19909
902.26	19928
902.379	20069
902.498	19818
902.617	19830
902.735	19871
902.854	19780
902.973	19731
903.091	19643
903.21	19510
903.328	19525
903.446	19499
903.565	19320
903.683	19312
903.801	19304
903.919	19403
904.038	19221
904.156	19038
904.274	19179
904.392	19065
904.51	19042
904.627	19107
904.745	19114
904.863	19046
904.981	18928
905.098	18734
905.216	18711
905.334	18795
905.451	18837
905.569	18738
905.686	18837
905.803	18688
905.921	18551
906.038	18612
906.155	18536
906.272	18433
906.389	18277
906.506	18285
906.623	18273
906.74	18281
906.857	18102
906.974	18292
907.091	18426
907.208	18460
907.324	18262
907.441	18140
907.557	18038
907.674	17996
907.79	17931
907.907	17912
908.023	18030
908.139	18019
908.256	17821
908.372	17809
908.488	17866
908.604	17783
908.72	17627
908.836	17748
908.952	17722
909.068	17710
909.184	17813
909.3	17760
909.415	17661
909.531	17676
909.647	17486
909.762	17360
909.878	17368
909.993	17334
910.108	17364
910.224	17334
910.339	17345
910.454	17193
910.57	17102
910.685	17155
910.8	17349
910.915	17284
911.03	17284
911.145	17033
911.259	16995
911.374	16972
911.489	16869
911.604	16850
911.718	16603
911.833	16679
911.947	16675
912.062	16546
912.176	16683
912.291	16679
912.405	16664
912.519	16908
912.633	16919
912.748	16812
912.862	16615
912.976	16550
913.09	16295
913.204	16535
913.318	16519
913.431	16626
913.545	16519
913.659	16607
913.772	16344
913.886	16379
914	16310
914.113	16367
914.226	16344
914.34	16436
914.453	16166
914.566	16352
914.68	16177
914.793	16158
914.906	15945
915.019	15937
915.132	15819
915.245	15846
915.358	15838
915.47	15880
915.583	15926
915.696	15854
915.809	15983
915.921	16044
916.034	15778
916.146	15819
916.259	15747
916.371	15895
916.483	15785
916.595	15736
916.708	15709
916.82	15625
916.932	15610
917.044	15591
917.156	15542
917.268	15488
917.38	15564
917.491	15481
917.603	15519
917.715	15606
917.826	15542
917.938	15420
918.049	15393
918.161	15500
918.272	15564
918.384	15595
918.495	15454
918.606	15370
918.717	15237
918.828	15192
918.939	15275
919.05	15161
919.161	15184
919.272	14979
919.383	15108
919.494	15291
919.604	15370
919.715	15268
919.826	15154
919.936	15233
920.047	15298
920.157	15260
920.267	15340
920.378	15207
920.488	15169
920.598	15313
920.708	15466
920.818	15298
920.928	15306
921.038	15401
921.148	15485
921.258	15085
921.368	15093
921.477	14948
921.587	14994
921.697	14773
921.806	14899
921.916	14697
922.025	14686
922.134	14594
922.244	14473
922.353	14575
922.462	14473
922.571	14336
922.68	14153
922.789	14168
922.898	14240
923.007	14199
923.116	14233
923.224	14202
923.333	14138
923.442	14119
923.55	13947
923.659	14073
923.767	14138
923.876	13894
923.984	13887
924.092	13921
924.201	13921
924.309	13906
924.417	13906
924.525	13761
924.633	13818
924.741	14735
924.849	13597
924.956	13727
925.064	13674
925.172	13521
925.279	13544
925.387	13651
925.494	13597
925.602	13624
925.709	13662
925.816	13514
925.924	13499
926.031	13582
926.138	13518
926.245	13586
926.352	13430
926.459	13540
926.566	13559
926.673	13419
926.779	13369
926.886	13308
926.993	13160
927.099	13084
927.206	13137
927.312	13012
927.419	13206
927.525	13046
927.631	13118
927.737	12958
927.843	12897
927.95	12875
928.056	12928
928.162	12989
928.267	12989
928.373	13559
928.479	12985
928.585	12787
928.69	12951
928.796	12848
928.901	12764
929.007	12620
929.112	12795
929.218	12669
929.323	12623
929.428	12662
929.533	12802
929.638	12589
929.743	12589
929.848	12700
929.953	12620
930.058	12536
930.163	12254
930.267	12319
930.372	12585
930.477	12296
930.581	12536
930.685	12342
930.79	12152
930.894	12194
930.998	12205
931.103	12289
931.207	11859
931.311	11805
931.415	11741
931.519	11592
931.623	11516
