Data from test_V78500241_2536.txt Node
Date: Fri Mar 25 15:59:22 CST 2022
User: usil
Spectrometer: V785-0024
Trigger mode: 0
Integration Time (sec): 4.000000E-1
Scans to average: 1
Nonlinearity correction enabled: false
Boxcar width: 0
Storing dark spectrum: false
XAxis mode: Wavelengths
Number of Pixels in Spectrum: 1024
>>>>>Begin Spectral Data<<<<<
801.071	28337
801.214	28249
801.356	28249
801.499	27994
801.641	27819
801.783	27956
801.926	27949
802.068	27972
802.211	27922
802.353	27766
802.496	27713
802.638	27629
802.78	27500
802.923	27561
803.065	27397
803.208	27332
803.35	27557
803.492	27675
803.635	27762
803.777	27728
803.919	27831
804.061	28013
804.204	27934
804.346	27679
804.488	27713
804.63	27770
804.773	27648
804.915	27888
805.057	28078
805.199	27838
805.341	27968
805.483	27907
805.626	27892
805.768	27911
805.91	27865
806.052	27880
806.194	27934
806.336	28082
806.478	27835
806.62	27987
806.762	28112
806.904	28188
807.046	28481
807.188	28325
807.33	28462
807.472	28421
807.614	28287
807.756	28451
807.898	28295
808.04	28344
808.182	28211
808.324	28238
808.465	28432
808.607	28428
808.749	28653
808.891	28820
809.033	28672
809.174	28694
809.316	28577
809.458	28668
809.6	28596
809.741	28706
809.883	28858
810.025	28866
810.166	28835
810.308	28812
810.45	28854
810.591	28790
810.733	28660
810.875	28561
811.016	28462
811.158	28538
811.299	28630
811.441	28752
811.582	28774
811.724	28691
811.865	28740
812.007	28577
812.148	28596
812.29	28698
812.431	28683
812.573	28835
812.714	29102
812.855	29231
812.997	29052
813.138	29185
813.279	29292
813.421	29151
813.562	29071
813.703	28908
813.845	28733
813.986	28573
814.127	28516
814.268	28360
814.41	28253
814.551	28226
814.692	28306
814.833	28143
814.974	28310
815.115	28276
815.256	28086
815.397	28215
815.539	28166
815.68	28135
815.821	28086
815.962	28051
816.103	28219
816.244	27949
816.385	27842
816.526	27926
816.666	27728
816.807	27542
816.948	27538
817.089	27797
817.23	27599
817.371	27427
817.512	27572
817.653	27504
817.793	27462
817.934	27576
818.075	27526
818.216	27724
818.356	27667
818.497	27466
818.638	27214
818.778	27329
818.919	27291
819.06	27336
819.2	27591
819.341	27709
819.481	27580
819.622	27686
819.762	28055
819.903	27930
820.043	27873
820.184	27835
820.324	27709
820.465	27652
820.605	27816
820.746	27622
820.886	27686
821.026	27675
821.167	27545
821.307	27800
821.447	27648
821.588	27481
821.728	27435
821.868	27374
822.008	27211
822.149	27150
822.289	27024
822.429	26769
822.569	26872
822.709	26701
822.849	26629
822.99	26587
823.13	26560
823.27	26545
823.41	26415
823.55	26218
823.69	26431
823.83	26400
823.97	26317
824.11	26157
824.25	26103
824.389	26252
824.529	26438
824.669	26275
824.809	26298
824.949	26305
825.089	26256
825.228	26176
825.368	26081
825.508	26191
825.648	26153
825.787	26153
825.927	26142
826.067	26240
826.206	25963
826.346	26218
826.485	26225
826.625	25974
826.765	26244
826.904	25970
827.044	26035
827.183	25966
827.323	25780
827.462	25883
827.601	25890
827.741	25761
827.88	25719
828.02	25731
828.159	25791
828.298	25689
828.437	25978
828.577	25693
828.716	25879
828.855	25715
828.994	25491
829.134	25635
829.273	25647
829.412	25472
829.551	25411
829.69	25457
829.829	25590
829.968	25658
830.107	25651
830.246	25479
830.385	25445
830.524	25430
830.663	25308
830.802	25225
830.941	25061
831.08	24992
831.219	25232
831.357	25217
831.496	25293
831.635	25110
831.774	25031
831.913	25031
832.051	24909
832.19	24905
832.329	24905
832.467	24821
832.606	24787
832.744	24684
832.883	24833
833.022	24825
833.16	24779
833.299	24833
833.437	24734
833.576	24829
833.714	24772
833.852	24871
833.991	24878
834.129	24859
834.267	24863
834.406	24852
834.544	24814
834.682	24939
834.821	24871
834.959	24966
835.097	24787
835.235	24897
835.373	24760
835.511	24817
835.65	24642
835.788	24719
835.926	24661
836.064	24582
836.202	24456
836.34	24703
836.478	24730
836.615	24646
836.753	24673
836.891	24646
837.029	24734
837.167	24574
837.305	24612
837.443	24456
837.58	24509
837.718	24536
837.856	24642
837.993	24391
838.131	24361
838.269	24391
838.406	24391
838.544	24239
838.681	24201
838.819	23973
838.956	23942
839.094	23931
839.231	23942
839.369	24102
839.506	24361
839.643	24205
839.781	23897
839.918	23851
840.055	24045
840.193	23885
840.33	23912
840.467	23912
840.604	23961
840.742	24106
840.879	23684
841.016	23851
841.153	23714
841.29	23996
841.427	23897
841.564	24015
841.701	23870
841.838	23828
841.975	23847
842.112	23764
842.249	23733
842.385	23623
842.522	23920
842.659	23566
842.796	23638
842.933	23623
843.069	23695
843.206	23452
843.343	23710
843.479	23585
843.616	23665
843.752	23429
843.889	23383
844.025	23497
844.162	23406
844.298	23452
844.435	23436
844.571	23349
844.708	23592
844.844	23429
844.98	23573
845.117	23474
845.253	23322
845.389	23166
845.525	23315
845.661	23147
845.798	23102
845.934	23303
846.07	23048
846.206	23151
846.342	23280
846.478	23121
846.614	22885
846.75	22828
846.886	22763
847.022	22889
847.158	22919
847.294	22809
847.429	22824
847.565	22812
847.701	23109
847.837	22497
847.972	22554
848.108	22691
848.244	22660
848.379	22588
848.515	22474
848.65	22375
848.786	22470
848.921	22592
849.057	22516
849.192	22440
849.328	22424
849.463	22459
849.598	22481
849.734	22455
849.869	22413
850.004	22204
850.14	22268
850.275	22276
850.41	22207
850.545	22135
850.68	22188
850.815	22093
850.95	22253
851.085	22310
851.22	22333
851.355	22204
851.49	22223
851.625	22150
851.76	22204
851.895	22219
852.03	22192
852.165	22169
852.299	22265
852.434	22337
852.569	22249
852.703	22154
852.838	22299
852.973	22402
853.107	22299
853.242	22139
853.376	22116
853.511	21930
853.645	21945
853.78	22082
853.914	22032
854.048	21922
854.183	22017
854.317	22147
854.451	22257
854.585	22143
854.72	21975
854.854	21987
854.988	21945
855.122	22002
855.256	21785
855.39	22002
855.524	22051
855.658	21964
855.792	22025
855.926	22063
856.06	22112
856.194	22177
856.327	22086
856.461	22002
856.595	21998
856.729	21949
856.862	22051
856.996	22055
857.13	22044
857.263	22154
857.397	22200
857.53	21991
857.664	22169
857.797	22223
857.931	22067
858.064	22059
858.197	22090
858.331	22025
858.464	21926
858.597	21937
858.731	22036
858.864	21941
858.997	22021
859.13	22021
859.263	22086
859.396	22074
859.529	22059
859.662	22097
859.795	22021
859.928	21960
860.061	22116
860.194	22219
860.327	22093
860.46	22086
860.592	22093
860.725	22306
860.858	22280
860.99	22086
861.123	22006
861.256	22067
861.388	22078
861.521	22603
861.653	21956
861.786	21876
861.918	21827
862.05	21907
862.183	21842
862.315	21911
862.447	21983
862.58	21968
862.712	21774
862.844	21736
862.976	21778
863.108	21781
863.24	21979
863.372	21732
863.504	21831
863.636	21747
863.768	21762
863.9	21785
864.032	21637
864.164	21705
864.296	21701
864.428	22006
864.559	21778
864.691	21857
864.823	21751
864.954	21789
865.086	21675
865.217	21568
865.349	21618
865.48	21759
865.612	21675
865.743	21785
865.875	21690
866.006	21583
866.137	21705
866.269	21606
866.4	21572
866.531	21572
866.662	21610
866.793	21583
866.924	21572
867.055	21583
867.186	21477
867.317	21576
867.448	21420
867.579	21568
867.71	21416
867.841	21420
867.972	21519
868.103	21614
868.233	21576
868.364	21519
868.495	21781
868.625	21808
868.756	21960
868.886	21698
869.017	21698
869.147	21884
869.278	21823
869.408	21880
869.539	21732
869.669	21781
869.799	21804
869.929	21934
870.06	21956
870.19	22154
870.32	22070
870.45	22181
870.58	22253
870.71	22291
870.84	22352
870.97	22196
871.1	22166
871.23	22382
871.36	22413
871.489	22325
871.619	22261
871.749	22268
871.879	22318
872.008	22546
872.138	22489
872.267	22447
872.397	22333
872.526	22116
872.656	22223
872.785	22177
872.915	22325
873.044	22508
873.173	22580
873.303	22447
873.432	22379
873.561	22523
873.69	22474
873.819	22451
873.948	22527
874.077	22367
874.206	22500
874.335	22440
874.464	22550
874.593	22748
874.722	22687
874.851	22599
874.979	22596
875.108	22687
875.237	22557
875.365	22440
875.494	22527
875.623	22637
875.751	22622
875.88	22615
876.008	22767
876.136	22873
876.265	22919
876.393	23189
876.521	23124
876.65	23181
876.778	23014
876.906	22949
877.034	22934
877.162	22923
877.29	22805
877.418	23041
877.546	22957
877.674	23003
877.802	22957
877.93	23060
878.058	22904
878.185	22828
878.313	23083
878.441	22927
878.568	22774
878.696	22904
878.824	22949
878.951	23014
879.079	23124
879.206	23292
879.333	23128
879.461	23056
879.588	23216
879.715	23185
879.842	23292
879.97	23124
880.097	22866
880.224	22862
880.351	22930
880.478	22835
880.605	22885
880.732	22843
880.859	23109
880.986	22877
881.112	22828
881.239	22733
881.366	22367
881.493	22478
881.619	22284
881.746	22455
881.872	22443
881.999	22344
882.125	22295
882.252	22322
882.378	22424
882.505	22497
882.631	22177
882.757	22074
882.883	22074
883.01	22055
883.136	22021
883.262	21888
883.388	21895
883.514	22090
883.64	22044
883.766	21968
883.892	21842
884.018	21838
884.143	21983
884.269	22013
884.395	21800
884.52	21690
884.646	21743
884.772	21633
884.897	21538
885.023	21682
885.148	21903
885.274	21903
885.399	21671
885.524	21576
885.65	21660
885.775	21690
885.9	21606
886.025	21857
886.15	21709
886.275	21557
886.4	21511
886.525	21610
886.65	21618
886.775	21545
886.9	21793
887.025	21884
887.149	21690
887.274	21511
887.399	21466
887.523	21401
887.648	21428
887.773	21458
887.897	21496
888.021	21504
888.146	21538
888.27	21488
888.395	21564
888.519	21564
888.643	21553
888.767	21500
888.891	21389
889.015	21131
889.139	21256
889.263	21165
889.387	21313
889.511	21507
889.635	21389
889.759	21260
889.883	21192
890.006	21256
890.13	21275
890.254	21184
890.377	21256
890.501	20986
890.624	21096
890.748	21093
890.871	20979
890.995	20830
891.118	20674
891.241	20823
891.364	20792
891.488	20925
891.611	20868
891.734	20807
891.857	20830
891.98	20834
892.103	20815
892.226	20861
892.349	20762
892.471	20549
892.594	20777
892.717	20773
892.839	20777
892.962	20750
893.085	20686
893.207	20754
893.33	20609
893.452	20655
893.575	20895
893.697	20788
893.819	20925
893.941	20800
894.064	20872
894.186	20689
894.308	20568
894.43	20872
894.552	20811
894.674	20762
894.796	20545
894.918	20705
895.04	20587
895.161	20819
895.283	20686
895.405	20632
895.526	20632
895.648	20648
895.769	20750
895.891	20670
896.012	20819
896.134	20758
896.255	20686
896.376	20800
896.498	20575
896.619	20655
896.74	20571
896.861	20815
896.982	21123
897.103	21096
897.224	20941
897.345	20960
897.466	20788
897.587	20830
897.708	20921
897.828	20895
897.949	20834
898.07	20689
898.19	20800
898.311	20929
898.431	20864
898.552	20933
898.672	20868
898.792	20853
898.913	20857
899.033	20834
899.153	20724
899.273	20659
899.393	20632
899.513	20689
899.633	20674
899.753	20701
899.873	20613
899.993	20537
900.113	20606
900.232	20686
900.352	20530
900.472	20415
900.591	20358
900.711	20454
900.83	20419
900.95	20438
901.069	20560
901.189	20259
901.308	20084
901.427	19913
901.546	20050
901.665	19982
901.784	19925
901.904	19883
902.023	19852
902.141	19529
902.26	19613
902.379	19552
902.498	19537
902.617	19415
902.735	19567
902.854	19460
902.973	19388
903.091	19209
903.21	19183
903.328	19183
903.446	19126
903.565	18943
903.683	18958
903.801	18935
903.919	18985
904.038	18814
904.156	18810
904.274	18867
904.392	18703
904.51	18631
904.627	18661
904.745	18772
904.863	18719
904.981	18570
905.098	18338
905.216	18422
905.334	18342
905.451	18452
905.569	18350
905.686	18410
905.803	18414
905.921	18197
906.038	18277
906.155	18144
906.272	18148
906.389	17954
906.506	18019
906.623	17988
906.74	17863
906.857	17798
906.974	17802
907.091	17904
907.208	17912
907.324	17939
907.441	17882
907.557	17714
907.674	17566
907.79	17547
907.907	17482
908.023	17714
908.139	17566
908.256	17596
908.372	17524
908.488	17512
908.604	17341
908.72	17307
908.836	17421
908.952	17368
909.068	17372
909.184	17429
909.3	17345
909.415	17330
909.531	17398
909.647	17029
909.762	17033
909.878	16976
909.993	17022
910.108	17010
910.224	16938
910.339	16968
910.454	16873
910.57	16767
910.685	16820
910.8	17003
910.915	16991
911.03	16854
911.145	16653
911.259	16550
911.374	16736
911.489	16470
911.604	16447
911.718	16417
911.833	16375
911.947	16196
912.062	16242
912.176	16325
912.291	16341
912.405	16352
912.519	16558
912.633	16550
912.748	16398
912.862	16413
912.976	16272
913.09	16086
913.204	16188
913.318	16128
913.431	16249
913.545	16333
913.659	16249
913.772	16074
913.886	16093
914	15934
914.113	16086
914.226	15983
914.34	16082
914.453	15819
914.566	16002
914.68	15747
914.793	15797
914.906	15572
915.019	15542
915.132	15580
915.245	15572
915.358	15591
915.47	15629
915.583	15561
915.696	15599
915.809	15694
915.921	15622
916.034	15496
916.146	15443
916.259	15481
916.371	15591
916.483	15515
916.595	15515
916.708	15435
916.82	15515
916.932	15469
917.044	15332
917.156	15382
917.268	15249
917.38	15260
917.491	15127
917.603	15218
917.715	15302
917.826	15317
917.938	15119
918.049	15108
918.161	15214
918.272	15363
918.384	15237
918.495	15230
918.606	15051
918.717	14990
918.828	14944
918.939	15077
919.05	14952
919.161	14876
919.272	14762
919.383	14796
919.494	15093
919.604	15131
919.715	15001
919.826	14887
919.936	14906
920.047	14948
920.157	14910
920.267	15077
920.378	14956
920.488	14868
920.598	15131
920.708	15188
920.818	15062
920.928	15077
921.038	15230
921.148	15135
921.258	14864
921.368	14765
921.477	14750
921.587	14682
921.697	14434
921.806	14648
921.916	14579
922.025	14389
922.134	14336
922.244	14309
922.353	14442
922.462	14218
922.571	14046
922.68	13989
922.789	13955
922.898	13932
923.007	13894
923.116	13936
923.224	13894
923.333	13871
923.442	13849
923.55	13776
923.659	13772
923.767	13761
923.876	13753
923.984	13803
924.092	13662
924.201	13769
924.309	13666
924.417	13674
924.525	13651
924.633	13571
924.741	14320
924.849	13419
924.956	13514
925.064	13377
925.172	13396
925.279	13308
925.387	13354
925.494	13316
925.602	13434
925.709	13327
925.816	13232
925.924	13263
926.031	13396
926.138	13297
926.245	13282
926.352	13156
926.459	13324
926.566	13369
926.673	13236
926.779	13091
926.886	13069
926.993	12943
927.099	12913
927.206	12913
927.312	12848
927.419	12951
927.525	12837
927.631	12954
927.737	12734
927.843	12696
927.95	12707
928.056	12627
928.162	12665
928.267	12741
928.373	13388
928.479	12715
928.585	12547
928.69	12582
928.796	12635
928.901	12540
929.007	12475
929.112	12536
929.218	12502
929.323	12418
929.428	12460
929.533	12612
929.638	12330
929.743	12369
929.848	12479
929.953	12372
930.058	12235
930.163	12098
930.267	12140
930.372	12224
930.477	12072
930.581	12285
930.685	12152
930.79	11992
930.894	11973
930.998	12053
931.103	12095
931.207	11676
931.311	11665
931.415	11566
931.519	11414
931.623	11330
