Data from test_V78500241_971.txt Node
Date: Fri Mar 25 15:48:31 CST 2022
User: usil
Spectrometer: V785-0024
Trigger mode: 0
Integration Time (sec): 4.000000E-1
Scans to average: 1
Nonlinearity correction enabled: false
Boxcar width: 0
Storing dark spectrum: false
XAxis mode: Wavelengths
Number of Pixels in Spectrum: 1024
>>>>>Begin Spectral Data<<<<<
801.071	28371
801.214	28230
801.356	28124
801.499	28093
801.641	27842
801.783	27827
801.926	28112
802.068	27956
802.211	27914
802.353	27797
802.496	27637
802.638	27690
802.78	27652
802.923	27477
803.065	27561
803.208	27656
803.35	27736
803.492	27937
803.635	27838
803.777	27660
803.919	27781
804.061	28211
804.204	27930
804.346	27865
804.488	27831
804.63	27774
804.773	27660
804.915	27842
805.057	27945
805.199	27983
805.341	28078
805.483	28086
805.626	27994
805.768	27842
805.91	27998
806.052	28040
806.194	27998
806.336	28154
806.478	28040
806.62	28090
806.762	28363
806.904	28367
807.046	28573
807.188	28455
807.33	28401
807.472	28382
807.614	28398
807.756	28481
807.898	28367
808.04	28348
808.182	28303
808.324	28440
808.465	28261
808.607	28489
808.749	28755
808.891	28774
809.033	28877
809.174	28736
809.316	28596
809.458	28626
809.6	28687
809.741	28790
809.883	28968
810.025	28976
810.166	28984
810.308	28888
810.45	28938
810.591	28843
810.733	28801
810.875	28691
811.016	28679
811.158	28641
811.299	28892
811.441	28839
811.582	28911
811.724	28812
811.865	28759
812.007	28702
812.148	28694
812.29	28755
812.431	28904
812.573	29128
812.714	29117
812.855	29231
812.997	29364
813.138	29375
813.279	29585
813.421	29128
813.562	29280
813.703	29060
813.845	29037
813.986	28698
814.127	28481
814.268	28489
814.41	28470
814.551	28375
814.692	28649
814.833	28382
814.974	28367
815.115	28421
815.256	28337
815.397	28223
815.539	28306
815.68	28234
815.821	28249
815.962	28223
816.103	28310
816.244	28215
816.385	28090
816.526	28109
816.666	27819
816.807	27778
816.948	27705
817.089	27956
817.23	27914
817.371	27831
817.512	27720
817.653	27736
817.793	27709
817.934	27709
818.075	27831
818.216	27694
818.356	27633
818.497	27538
818.638	27416
818.778	27412
818.919	27580
819.06	27713
819.2	27751
819.341	27720
819.481	27755
819.622	27945
819.762	28105
819.903	28116
820.043	27937
820.184	27994
820.324	27686
820.465	27941
820.605	27778
820.746	27892
820.886	27694
821.026	27991
821.167	27835
821.307	27930
821.447	27717
821.588	27652
821.728	27450
821.868	27511
822.008	27294
822.149	27249
822.289	27260
822.429	26944
822.569	26914
822.709	26815
822.849	26777
822.99	26720
823.13	26735
823.27	26636
823.41	26602
823.55	26476
823.69	26492
823.83	26587
823.97	26537
824.11	26476
824.25	26358
824.389	26332
824.529	26556
824.669	26442
824.809	26518
824.949	26461
825.089	26625
825.228	26480
825.368	26263
825.508	26263
825.648	26282
825.787	26313
825.927	26396
826.067	26225
826.206	26172
826.346	26252
826.485	26370
826.625	26248
826.765	26370
826.904	26286
827.044	26126
827.183	25887
827.323	26088
827.462	26077
827.601	26035
827.741	26062
827.88	26024
828.02	25936
828.159	25871
828.298	25917
828.437	26065
828.577	25963
828.716	26024
828.855	25906
828.994	25632
829.134	25670
829.273	25856
829.412	25582
829.551	25601
829.69	25624
829.829	25628
829.968	25734
830.107	25822
830.246	25704
830.385	25662
830.524	25597
830.663	25514
830.802	25384
830.941	25251
831.08	25278
831.219	25472
831.357	25320
831.496	25384
831.635	25244
831.774	25126
831.913	25145
832.051	25053
832.19	25084
832.329	25012
832.467	25061
832.606	24924
832.744	24928
832.883	25046
833.022	24901
833.16	24989
833.299	25034
833.437	25076
833.576	25099
833.714	24966
833.852	24909
833.991	25050
834.129	25126
834.267	25069
834.406	25027
834.544	25004
834.682	24981
834.821	24928
834.959	25209
835.097	24920
835.235	25175
835.373	25015
835.511	24916
835.65	24806
835.788	24852
835.926	24639
836.064	24673
836.202	24631
836.34	24768
836.478	24848
836.615	24787
836.753	24802
836.891	24875
837.029	24760
837.167	24852
837.305	24654
837.443	24726
837.58	24677
837.718	24726
837.856	24795
837.993	24544
838.131	24719
838.269	24422
838.406	24483
838.544	24608
838.681	24289
838.819	24220
838.956	24087
839.094	24133
839.231	24216
839.369	24338
839.506	24536
839.643	24498
839.781	24068
839.918	24083
840.055	24060
840.193	24106
840.33	24136
840.467	23931
840.604	24144
840.742	24300
840.879	23984
841.016	23920
841.153	23977
841.29	23999
841.427	24022
841.564	24026
841.701	24117
841.838	23916
841.975	23916
842.112	24049
842.249	23790
842.385	23847
842.522	23992
842.659	23756
842.796	23634
842.933	23680
843.069	23775
843.206	23752
843.343	23980
843.479	23756
843.616	23817
843.752	23551
843.889	23577
844.025	23680
844.162	23554
844.298	23687
844.435	23486
844.571	23467
844.708	23509
844.844	23722
844.98	23790
845.117	23687
845.253	23604
845.389	23512
845.525	23455
845.661	23387
845.798	23307
845.934	23322
846.07	23273
846.206	23299
846.342	23376
846.478	23277
846.614	23060
846.75	23014
846.886	23048
847.022	23029
847.158	23086
847.294	23132
847.429	23147
847.565	22953
847.701	23269
847.837	22801
847.972	22664
848.108	22915
848.244	22957
848.379	22630
848.515	22542
848.65	22527
848.786	22653
848.921	22740
849.057	22748
849.192	22691
849.328	22561
849.463	22694
849.598	22478
849.734	22413
849.869	22443
850.004	22459
850.14	22291
850.275	22367
850.41	22268
850.545	22348
850.68	22474
850.815	22481
850.95	22367
851.085	22538
851.22	22508
851.355	22382
851.49	22436
851.625	22261
851.76	22360
851.895	22344
852.03	22303
852.165	22402
852.299	22375
852.434	22462
852.569	22360
852.703	22398
852.838	22493
852.973	22443
853.107	22550
853.242	22314
853.376	22188
853.511	22074
853.645	22147
853.78	22375
853.914	22207
854.048	22192
854.183	22215
854.317	22230
854.451	22371
854.585	22169
854.72	22112
854.854	22337
854.988	22173
855.122	22223
855.256	22048
855.39	22200
855.524	22360
855.658	22204
855.792	22219
855.926	22211
856.06	22299
856.194	22363
856.327	22325
856.461	22185
856.595	22238
856.729	22226
856.862	22348
856.996	22310
857.13	22284
857.263	22303
857.397	22226
857.53	22154
857.664	22150
857.797	22226
857.931	22238
858.064	22276
858.197	22310
858.331	22135
858.464	22135
858.597	22128
858.731	22131
858.864	22116
858.997	22143
859.13	22181
859.263	22131
859.396	22280
859.529	22177
859.662	22128
859.795	22238
859.928	22135
860.061	22371
860.194	22367
860.327	22249
860.46	22211
860.592	22322
860.725	22318
860.858	22268
860.99	22261
861.123	22101
861.256	22215
861.388	22291
861.521	22885
861.653	22029
861.786	22017
861.918	21964
862.05	22017
862.183	22082
862.315	22192
862.447	22101
862.58	22059
862.712	22017
862.844	21865
862.976	21949
863.108	21861
863.24	22154
863.372	21808
863.504	21892
863.636	21922
863.768	21937
863.9	21945
864.032	21800
864.164	21865
864.296	21903
864.428	21956
864.559	21911
864.691	21945
864.823	21854
864.954	21937
865.086	21778
865.217	21857
865.349	21694
865.48	21804
865.612	21747
865.743	21842
865.875	21899
866.006	21766
866.137	21789
866.269	21755
866.4	21827
866.531	21682
866.662	21793
866.793	21644
866.924	21728
867.055	21629
867.186	21804
867.317	21641
867.448	21629
867.579	21667
867.71	21576
867.841	21629
867.972	21789
868.103	21701
868.233	21789
868.364	21637
868.495	21873
868.625	21968
868.756	21953
868.886	21778
869.017	21930
869.147	22013
869.278	22173
869.408	21941
869.539	21926
869.669	22025
869.799	21956
869.929	22082
870.06	22112
870.19	22249
870.32	22242
870.45	22276
870.58	22253
870.71	22462
870.84	22481
870.97	22246
871.1	22379
871.23	22645
871.36	22550
871.489	22398
871.619	22516
871.749	22485
871.879	22489
872.008	22607
872.138	22694
872.267	22508
872.397	22474
872.526	22402
872.656	22413
872.785	22356
872.915	22478
873.044	22626
873.173	22451
873.303	22656
873.432	22687
873.561	22653
873.69	22717
873.819	22653
873.948	22694
874.077	22622
874.206	22664
874.335	22634
874.464	22702
874.593	22778
874.722	22801
874.851	22755
874.979	22828
875.108	22801
875.237	22706
875.365	22706
875.494	22733
875.623	22896
875.751	22710
875.88	22889
876.008	22957
876.136	22968
876.265	23231
876.393	23273
876.521	23208
876.65	23250
876.778	23204
876.906	23322
877.034	23037
877.162	23147
877.29	23166
877.418	23083
877.546	23261
877.674	23159
877.802	22987
877.93	23121
878.058	23018
878.185	22984
878.313	23166
878.441	23018
878.568	22984
878.696	22972
878.824	23083
878.951	23159
879.079	23208
879.206	23429
879.333	23398
879.461	23258
879.588	23193
879.715	23208
879.842	23406
879.97	23079
880.097	23044
880.224	22828
880.351	22991
880.478	22858
880.605	22801
880.732	23174
880.859	22995
880.986	22835
881.112	22961
881.239	22816
881.366	22603
881.493	22508
881.619	22516
881.746	22584
881.872	22535
881.999	22500
882.125	22519
882.252	22626
882.378	22481
882.505	22596
882.631	22405
882.757	22135
882.883	22219
883.01	22177
883.136	22257
883.262	22055
883.388	21937
883.514	22265
883.64	22192
883.766	22135
883.892	21895
884.018	22025
884.143	22128
884.269	22116
884.395	21838
884.52	21857
884.646	21770
884.772	21797
884.897	21812
885.023	21827
885.148	21895
885.274	21953
885.399	21987
885.524	21816
885.65	21892
885.775	21854
885.9	21778
886.025	21922
886.15	21907
886.275	21823
886.4	21736
886.525	21781
886.65	21644
886.775	21759
886.9	21869
887.025	21994
887.149	21797
887.274	21561
887.399	21515
887.523	21576
887.648	21572
887.773	21488
887.897	21587
888.021	21561
888.146	21500
888.27	21610
888.395	21755
888.519	21511
888.643	21656
888.767	21568
888.891	21538
889.015	21405
889.139	21534
889.263	21340
889.387	21542
889.511	21580
889.635	21447
889.759	21367
889.883	21359
890.006	21382
890.13	21538
890.254	21359
890.377	21408
890.501	21195
890.624	21009
890.748	21184
890.871	21013
890.995	21009
891.118	21013
891.241	20941
891.364	20971
891.488	20952
891.611	20963
891.734	21005
891.857	21005
891.98	20990
892.103	20925
892.226	20914
892.349	20868
892.471	20625
892.594	20929
892.717	20864
892.839	20857
892.962	20834
893.085	20914
893.207	20845
893.33	20708
893.452	20689
893.575	20883
893.697	20857
893.819	21077
893.941	21047
894.064	20948
894.186	20762
894.308	20746
894.43	20826
894.552	20941
894.674	20895
894.796	20663
894.918	20769
895.04	20853
895.161	20891
895.283	20887
895.405	20659
895.526	20800
895.648	20834
895.769	20769
895.891	20785
896.012	20876
896.134	20967
896.255	20861
896.376	20777
896.498	20777
896.619	20868
896.74	20834
896.861	20880
896.982	21188
897.103	21214
897.224	21066
897.345	21081
897.466	21009
897.587	20982
897.708	21081
897.828	21127
897.949	20948
898.07	20788
898.19	20910
898.311	21047
898.431	20994
898.552	21093
898.672	21043
898.792	21058
898.913	21055
899.033	20830
899.153	20788
899.273	20640
899.393	20724
899.513	20781
899.633	20746
899.753	20781
899.873	20674
899.993	20758
900.113	20731
900.232	20758
900.352	20636
900.472	20556
900.591	20419
900.711	20503
900.83	20465
900.95	20545
901.069	20594
901.189	20370
901.308	20111
901.427	20164
901.546	20282
901.665	20043
901.784	20062
901.904	19982
902.023	19833
902.141	19651
902.26	19601
902.379	19750
902.498	19578
902.617	19476
902.735	19620
902.854	19620
902.973	19480
903.091	19202
903.21	19213
903.328	19316
903.446	19168
903.565	19023
903.683	18973
903.801	18909
903.919	18977
904.038	19053
904.156	18852
904.274	18928
904.392	18814
904.51	18681
904.627	18810
904.745	18905
904.863	18894
904.981	18566
905.098	18452
905.216	18452
905.334	18498
905.451	18429
905.569	18502
905.686	18399
905.803	18429
905.921	18296
906.038	18399
906.155	18277
906.272	18273
906.389	18213
906.506	17973
906.623	18072
906.74	18026
906.857	17836
906.974	17969
907.091	18095
907.208	18190
907.324	18152
907.441	17992
907.557	17821
907.674	17764
907.79	17672
907.907	17733
908.023	17798
908.139	17714
908.256	17699
908.372	17798
908.488	17623
908.604	17600
908.72	17463
908.836	17387
908.952	17379
909.068	17471
909.184	17581
909.3	17482
909.415	17463
909.531	17471
909.647	17242
909.762	17185
909.878	17075
909.993	17223
910.108	17124
910.224	17060
910.339	17037
910.454	16927
910.57	16968
910.685	16858
910.8	17143
910.915	17052
911.03	16923
911.145	16759
911.259	16698
911.374	16691
911.489	16607
911.604	16508
911.718	16546
911.833	16481
911.947	16333
912.062	16363
912.176	16344
912.291	16428
912.405	16402
912.519	16535
912.633	16618
912.748	16519
912.862	16367
912.976	16253
913.09	16196
913.204	16261
913.318	16249
913.431	16363
913.545	16348
913.659	16306
913.772	16185
913.886	16101
914	16040
914.113	16109
914.226	16101
914.34	16139
914.453	15869
914.566	16143
914.68	15975
914.793	15892
914.906	15705
915.019	15663
915.132	15485
915.245	15633
915.358	15652
915.47	15720
915.583	15682
915.696	15713
915.809	15747
915.921	15846
916.034	15545
916.146	15561
916.259	15599
916.371	15595
916.483	15629
916.595	15523
916.708	15523
916.82	15386
916.932	15408
917.044	15374
917.156	15401
917.268	15272
917.38	15386
917.491	15203
917.603	15275
917.715	15428
917.826	15317
917.938	15199
918.049	15119
918.161	15272
918.272	15329
918.384	15306
918.495	15195
918.606	15036
918.717	14971
918.828	15085
918.939	15081
919.05	14880
919.161	15013
919.272	14849
919.383	14948
919.494	14967
919.604	15256
919.715	14845
919.826	14944
919.936	14986
920.047	15108
920.157	15017
920.267	15241
920.378	15036
920.488	14902
920.598	15207
920.708	15252
920.818	15233
920.928	15108
921.038	15275
921.148	15260
921.258	14967
921.368	14876
921.477	14705
921.587	14651
921.697	14583
921.806	14746
921.916	14640
922.025	14415
922.134	14317
922.244	14271
922.353	14332
922.462	14282
922.571	14111
922.68	14008
922.789	13978
922.898	14008
923.007	13944
923.116	13974
923.224	13928
923.333	14050
923.442	13830
923.55	13826
923.659	13913
923.767	13944
923.876	13746
923.984	13883
924.092	13689
924.201	13731
924.309	13670
924.417	13723
924.525	13696
924.633	13658
924.741	14530
924.849	13529
924.956	13548
925.064	13483
925.172	13362
925.279	13407
925.387	13468
925.494	13403
925.602	13521
925.709	13358
925.816	13255
925.924	13282
926.031	13304
926.138	13335
926.245	13308
926.352	13145
926.459	13362
926.566	13392
926.673	13221
926.779	13129
926.886	13149
926.993	13023
927.099	12935
927.206	12951
927.312	12897
927.419	12928
927.525	12913
927.631	12916
927.737	12833
927.843	12703
927.95	12642
928.056	12707
928.162	12681
928.267	12791
928.373	13339
928.479	12848
928.585	12696
928.69	12700
928.796	12684
928.901	12688
929.007	12597
929.112	12559
929.218	12547
929.323	12528
929.428	12479
929.533	12593
929.638	12342
929.743	12429
929.848	12506
929.953	12452
930.058	12350
930.163	12163
930.267	12106
930.372	12251
930.477	12106
930.581	12311
930.685	12178
930.79	12106
930.894	12095
930.998	12011
931.103	12175
931.207	11752
931.311	11691
931.415	11558
931.519	11372
931.623	11372
