Data from test_V78500241_460.txt Node
Date: Fri Mar 25 15:44:59 CST 2022
User: usil
Spectrometer: V785-0024
Trigger mode: 0
Integration Time (sec): 4.000000E-1
Scans to average: 1
Nonlinearity correction enabled: false
Boxcar width: 0
Storing dark spectrum: false
XAxis mode: Wavelengths
Number of Pixels in Spectrum: 1024
>>>>>Begin Spectral Data<<<<<
801.071	27542
801.214	27447
801.356	27192
801.499	27150
801.641	26986
801.783	26967
801.926	27085
802.068	27093
802.211	26948
802.353	26880
802.496	26743
802.638	26587
802.78	26773
802.923	26663
803.065	26583
803.208	26594
803.35	26720
803.492	26823
803.635	26868
803.777	26720
803.919	26906
804.061	26975
804.204	26849
804.346	26724
804.488	26785
804.63	26853
804.773	26716
804.915	26883
805.057	26868
805.199	26720
805.341	26830
805.483	26998
805.626	26876
805.768	26940
805.91	26990
806.052	26880
806.194	26769
806.336	27154
806.478	26971
806.62	26956
806.762	27005
806.904	27237
807.046	27427
807.188	27252
807.33	27214
807.472	27317
807.614	27298
807.756	27195
807.898	27272
808.04	27081
808.182	27203
808.324	27135
808.465	27135
808.607	27355
808.749	27389
808.891	27644
809.033	27800
809.174	27538
809.316	27599
809.458	27652
809.6	27545
809.741	27682
809.883	27778
810.025	27876
810.166	27717
810.308	27895
810.45	27766
810.591	27728
810.733	27743
810.875	27568
811.016	27416
811.158	27561
811.299	27652
811.441	27660
811.582	27648
811.724	27549
811.865	27431
812.007	27439
812.148	27542
812.29	27500
812.431	27618
812.573	27846
812.714	27960
812.855	27991
812.997	28070
813.138	28310
813.279	28196
813.421	28147
813.562	28147
813.703	27975
813.845	27873
813.986	27515
814.127	27272
814.268	27291
814.41	27249
814.551	27176
814.692	27268
814.833	27214
814.974	27142
815.115	27062
815.256	26952
815.397	27085
815.539	27093
815.68	26925
815.821	26792
815.962	26914
816.103	26994
816.244	26948
816.385	26800
816.526	26674
816.666	26602
816.807	26579
816.948	26651
817.089	26602
817.23	26549
817.371	26438
817.512	26537
817.653	26453
817.793	26419
817.934	26450
818.075	26358
818.216	26526
818.356	26438
818.497	26328
818.638	26183
818.778	26229
818.919	26294
819.06	26180
819.2	26381
819.341	26450
819.481	26507
819.622	26545
819.762	26708
819.903	26632
820.043	26705
820.184	26488
820.324	26545
820.465	26575
820.605	26488
820.746	26602
820.886	26396
821.026	26579
821.167	26415
821.307	26594
821.447	26473
821.588	26271
821.728	26195
821.868	26062
822.008	25966
822.149	25932
822.289	25849
822.429	25708
822.569	25620
822.709	25655
822.849	25422
822.99	25407
823.13	25308
823.27	25358
823.41	25209
823.55	25076
823.69	25129
823.83	25263
823.97	25091
824.11	24943
824.25	25027
824.389	25126
824.529	25107
824.669	25091
824.809	25114
824.949	25103
825.089	25289
825.228	25015
825.368	24924
825.508	24916
825.648	24886
825.787	24894
825.927	24897
826.067	24954
826.206	24760
826.346	24920
826.485	24973
826.625	24825
826.765	24973
826.904	24909
827.044	24700
827.183	24684
827.323	24540
827.462	24589
827.601	24563
827.741	24608
827.88	24669
828.02	24311
828.159	24490
828.298	24574
828.437	24654
828.577	24551
828.716	24654
828.855	24486
828.994	24327
829.134	24308
829.273	24441
829.412	24251
829.551	24213
829.69	24228
829.829	24262
829.968	24285
830.107	24281
830.246	24285
830.385	24148
830.524	24205
830.663	24133
830.802	24034
830.941	23942
831.08	23737
831.219	23931
831.357	23973
831.496	24034
831.635	23939
831.774	23870
831.913	23809
832.051	23703
832.19	23581
832.329	23767
832.467	23497
832.606	23520
832.744	23440
832.883	23547
833.022	23524
833.16	23425
833.299	23600
833.437	23512
833.576	23592
833.714	23627
833.852	23649
833.991	23741
834.129	23657
834.267	23718
834.406	23577
834.544	23687
834.682	23809
834.821	23585
834.959	23767
835.097	23478
835.235	23687
835.373	23608
835.511	23600
835.65	23353
835.788	23531
835.926	23391
836.064	23258
836.202	23159
836.34	23334
836.478	23520
836.615	23398
836.753	23440
836.891	23497
837.029	23436
837.167	23406
837.305	23258
837.443	23231
837.58	23326
837.718	23364
837.856	23330
837.993	23345
838.131	23277
838.269	23022
838.406	23200
838.544	23143
838.681	22839
838.819	22873
838.956	22691
839.094	22862
839.231	22972
839.369	22869
839.506	22972
839.643	22938
839.781	22752
839.918	22733
840.055	22736
840.193	22767
840.33	22675
840.467	22691
840.604	22790
840.742	22934
840.879	22588
841.016	22634
841.153	22561
841.29	22869
841.427	22733
841.564	22618
841.701	22622
841.838	22538
841.975	22656
842.112	22565
842.249	22405
842.385	22402
842.522	22634
842.659	22527
842.796	22421
842.933	22428
843.069	22470
843.206	22367
843.343	22451
843.479	22367
843.616	22352
843.752	22204
843.889	22177
844.025	22207
844.162	22131
844.298	22177
844.435	22074
844.571	22310
844.708	22314
844.844	22398
844.98	22344
845.117	22287
845.253	22082
845.389	21960
845.525	22086
845.661	22055
845.798	21934
845.934	22006
846.07	21918
846.206	21975
846.342	22147
846.478	21979
846.614	21743
846.75	21641
846.886	21625
847.022	21755
847.158	21720
847.294	21637
847.429	21682
847.565	21671
847.701	21816
847.837	21378
847.972	21355
848.108	21458
848.244	21393
848.379	21264
848.515	21173
848.65	21272
848.786	21272
848.921	21336
849.057	21428
849.192	21306
849.328	21230
849.463	21291
849.598	21176
849.734	21252
849.869	21135
850.004	21112
850.14	20902
850.275	21127
850.41	20876
850.545	21013
850.68	20937
850.815	20986
850.95	20948
851.085	21127
851.22	21104
851.355	21047
851.49	20902
851.625	20948
851.76	21047
851.895	20872
852.03	20994
852.165	21013
852.299	21013
852.434	21142
852.569	21024
852.703	20933
852.838	21009
852.973	21017
853.107	21157
853.242	21032
853.376	20823
853.511	20743
853.645	20807
853.78	20956
853.914	20834
854.048	20853
854.183	20750
854.317	20891
854.451	21146
854.585	20830
854.72	20796
854.854	20891
854.988	20792
855.122	20857
855.256	20777
855.39	20853
855.524	20857
855.658	20906
855.792	20686
855.926	20864
856.06	20914
856.194	20956
856.327	20777
856.461	20743
856.595	20720
856.729	20826
856.862	21013
856.996	20925
857.13	20963
857.263	20982
857.397	20883
857.53	20804
857.664	20857
857.797	20918
857.931	20986
858.064	20891
858.197	20941
858.331	20773
858.464	20720
858.597	20655
858.731	20880
858.864	20739
858.997	20880
859.13	20872
859.263	20876
859.396	20914
859.529	20777
859.662	20781
859.795	20868
859.928	20651
860.061	21051
860.194	21024
860.327	20876
860.46	20899
860.592	20979
860.725	20937
860.858	21116
860.99	20944
861.123	20857
861.256	20883
861.388	20819
861.521	21424
861.653	20613
861.786	20632
861.918	20674
862.05	20644
862.183	20705
862.315	20765
862.447	20807
862.58	20712
862.712	20545
862.844	20549
862.976	20609
863.108	20670
863.24	21017
863.372	20438
863.504	20511
863.636	20552
863.768	20568
863.9	20522
864.032	20427
864.164	20514
864.296	20518
864.428	20594
864.559	20507
864.691	20514
864.823	20518
864.954	20507
865.086	20507
865.217	20549
865.349	20355
865.48	20530
865.612	20461
865.743	20644
865.875	20427
866.006	20351
866.137	20492
866.269	20434
866.4	20465
866.531	20415
866.662	20343
866.793	20366
866.924	20370
867.055	20393
867.186	20339
867.317	20229
867.448	20328
867.579	20377
867.71	20180
867.841	20320
867.972	20381
868.103	20339
868.233	20393
868.364	20282
868.495	20537
868.625	20629
868.756	20693
868.886	20564
869.017	20686
869.147	20765
869.278	20648
869.408	20663
869.539	20530
869.669	20712
869.799	20670
869.929	20773
870.06	20727
870.19	20925
870.32	20880
870.45	20941
870.58	21066
870.71	21165
870.84	21241
870.97	21043
871.1	21036
871.23	21119
871.36	21351
871.489	21157
871.619	21233
871.749	21313
871.879	21363
872.008	21321
872.138	21165
872.267	21180
872.397	21188
872.526	21085
872.656	20986
872.785	20975
872.915	21165
873.044	21348
873.173	21272
873.303	21245
873.432	21199
873.561	21367
873.69	21230
873.819	21184
873.948	21310
874.077	21401
874.206	21161
874.335	21226
874.464	21344
874.593	21408
874.722	21485
874.851	21477
874.979	21492
875.108	21462
875.237	21492
875.365	21340
875.494	21466
875.623	21591
875.751	21412
875.88	21458
876.008	21633
876.136	21660
876.265	21892
876.393	22017
876.521	21911
876.65	21907
876.778	21960
876.906	21759
877.034	21778
877.162	21690
877.29	21713
877.418	21960
877.546	21915
877.674	21797
877.802	21865
877.93	21835
878.058	21869
878.185	21739
878.313	21842
878.441	21774
878.568	21701
878.696	21755
878.824	21895
878.951	21915
879.079	21915
879.206	22143
879.333	22051
879.461	21880
879.588	22021
879.715	21934
879.842	22192
879.97	21991
880.097	21618
880.224	21671
880.351	21690
880.478	21808
880.605	21679
880.732	21724
880.859	21884
880.986	21641
881.112	21553
881.239	21549
881.366	21355
881.493	21367
881.619	21283
881.746	21268
881.872	21241
881.999	21279
882.125	21104
882.252	21226
882.378	21207
882.505	21405
882.631	21161
882.757	20979
882.883	21039
883.01	21005
883.136	20963
883.262	20872
883.388	20883
883.514	20971
883.64	20929
883.766	20872
883.892	20727
884.018	20796
884.143	20895
884.269	20967
884.395	20746
884.52	20530
884.646	20632
884.772	20568
884.897	20385
885.023	20609
885.148	20686
885.274	20762
885.399	20663
885.524	20629
885.65	20636
885.775	20587
885.9	20533
886.025	20701
886.15	20686
886.275	20606
886.4	20507
886.525	20575
886.65	20537
886.775	20598
886.9	20644
887.025	20724
887.149	20617
887.274	20408
887.399	20408
887.523	20400
887.648	20339
887.773	20400
887.897	20457
888.021	20499
888.146	20282
888.27	20511
888.395	20476
888.519	20290
888.643	20396
888.767	20518
888.891	20317
889.015	20157
889.139	20229
889.263	20202
889.387	20240
889.511	20438
889.635	20286
889.759	20054
889.883	20225
890.006	20103
890.13	20115
890.254	20111
890.377	20005
890.501	19852
890.624	19940
890.748	20001
890.871	19822
890.995	19677
891.118	19693
891.241	19791
891.364	19689
891.488	19757
891.611	19685
891.734	19746
891.857	19822
891.98	19727
892.103	19788
892.226	19674
892.349	19662
892.471	19518
892.594	19708
892.717	19757
892.839	19693
892.962	19662
893.085	19811
893.207	19670
893.33	19696
893.452	19632
893.575	19841
893.697	19616
893.819	19799
893.941	19830
894.064	19750
894.186	19643
894.308	19533
894.43	19811
894.552	19909
894.674	19708
894.796	19586
894.918	19597
895.04	19639
895.161	19643
895.283	19712
895.405	19658
895.526	19605
895.648	19647
895.769	19799
895.891	19674
896.012	19727
896.134	19738
896.255	19753
896.376	19620
896.498	19609
896.619	19708
896.74	19772
896.861	19856
896.982	20043
897.103	20195
897.224	19955
897.345	19894
897.466	19845
897.587	19845
897.708	19993
897.828	20031
897.949	19909
898.07	19674
898.19	19822
898.311	19955
898.431	19746
898.552	19997
898.672	19906
898.792	19890
898.913	19974
899.033	19784
899.153	19662
899.273	19651
899.393	19635
899.513	19681
899.633	19670
899.753	19753
899.873	19586
899.993	19643
900.113	19514
900.232	19788
900.352	19552
900.472	19521
900.591	19441
900.711	19487
900.83	19426
900.95	19540
901.069	19594
901.189	19350
901.308	19050
901.427	18958
901.546	19023
901.665	19000
901.784	19069
901.904	18875
902.023	18802
902.141	18593
902.26	18528
902.379	18730
902.498	18574
902.617	18532
902.735	18559
902.854	18407
902.973	18528
903.091	18270
903.21	18167
903.328	18251
903.446	18228
903.565	17897
903.683	18114
903.801	17988
903.919	17954
904.038	17939
904.156	17813
904.274	17836
904.392	17794
904.51	17828
904.627	17756
904.745	17935
904.863	17961
904.981	17520
905.098	17501
905.216	17406
905.334	17505
905.451	17505
905.569	17436
905.686	17558
905.803	17490
905.921	17258
906.038	17421
906.155	17326
906.272	17178
906.389	17185
906.506	17006
906.623	17006
906.74	16942
906.857	16869
906.974	16923
907.091	17083
907.208	17037
907.324	17064
907.441	16961
907.557	16721
907.674	16744
907.79	16713
907.907	16713
908.023	16820
908.139	16752
908.256	16691
908.372	16672
908.488	16679
908.604	16512
908.72	16413
908.836	16459
908.952	16382
909.068	16455
909.184	16519
909.3	16421
909.415	16519
909.531	16356
909.647	16188
909.762	16249
909.878	16173
909.993	16185
910.108	16242
910.224	16162
910.339	16116
910.454	15987
910.57	15964
910.685	15888
910.8	16131
910.915	16169
911.03	15941
911.145	15766
911.259	15781
911.374	15747
911.489	15679
911.604	15652
911.718	15492
911.833	15633
911.947	15408
912.062	15420
912.176	15435
912.291	15549
912.405	15557
912.519	15656
912.633	15759
912.748	15572
912.862	15412
912.976	15450
913.09	15089
913.204	15416
913.318	15382
913.431	15374
913.545	15447
913.659	15511
913.772	15374
913.886	15203
914	15142
914.113	15184
914.226	15275
914.34	15226
914.453	14967
914.566	15211
914.68	14906
914.793	15009
914.906	14811
915.019	14807
915.132	14731
915.245	14819
915.358	14773
915.47	14792
915.583	14716
915.696	14682
915.809	14845
915.921	14838
916.034	14762
916.146	14632
916.259	14708
916.371	14758
916.483	14720
916.595	14644
916.708	14689
916.82	14613
916.932	14537
917.044	14415
917.156	14450
917.268	14358
917.38	14415
917.491	14476
917.603	14381
917.715	14560
917.826	14492
917.938	14374
918.049	14343
918.161	14423
918.272	14526
918.384	14545
918.495	14374
918.606	14202
918.717	14145
918.828	14248
918.939	14195
919.05	14054
919.161	14138
919.272	13963
919.383	14073
919.494	14206
919.604	14393
919.715	14100
919.826	14043
919.936	14183
920.047	14256
920.157	14126
920.267	14294
920.378	14187
920.488	14149
920.598	14385
920.708	14484
920.818	14355
920.928	14339
921.038	14431
921.148	14415
921.258	14050
921.368	13982
921.477	13970
921.587	13913
921.697	13814
921.806	13860
921.916	13734
922.025	13559
922.134	13594
922.244	13518
922.353	13636
922.462	13472
922.571	13483
922.68	13297
922.789	13194
922.898	13316
923.007	13198
923.116	13198
923.224	13145
923.333	13141
923.442	13065
923.55	13065
923.659	13061
923.767	13076
923.876	12996
923.984	13156
924.092	12890
924.201	12977
924.309	12966
924.417	13000
924.525	12882
924.633	12897
924.741	13620
924.849	12734
924.956	12814
925.064	12582
925.172	12738
925.279	12555
925.387	12593
925.494	12578
925.602	12726
925.709	12684
925.816	12517
925.924	12646
926.031	12662
926.138	12597
926.245	12593
926.352	12517
926.459	12654
926.566	12681
926.673	12536
926.779	12403
926.886	12437
926.993	12216
927.099	12178
927.206	12190
927.312	12144
927.419	12201
927.525	12197
927.631	12232
927.737	12247
927.843	12041
927.95	11931
928.056	11969
928.162	12053
928.267	12125
928.373	12684
928.479	12053
928.585	11901
928.69	12076
928.796	12030
928.901	11828
929.007	11802
929.112	11961
929.218	11923
929.323	11722
929.428	11840
929.533	11859
929.638	11775
929.743	11695
929.848	11802
929.953	11710
930.058	11668
930.163	11482
930.267	11482
930.372	11547
930.477	11360
930.581	11688
930.685	11566
930.79	11383
930.894	11387
930.998	11273
931.103	11482
931.207	11162
931.311	11109
931.415	10934
931.519	10835
931.623	10782
