Data from test_V78500241_3529.txt Node
Date: Fri Mar 25 16:06:14 CST 2022
User: usil
Spectrometer: V785-0024
Trigger mode: 0
Integration Time (sec): 4.000000E-1
Scans to average: 1
Nonlinearity correction enabled: false
Boxcar width: 0
Storing dark spectrum: false
XAxis mode: Wavelengths
Number of Pixels in Spectrum: 1024
>>>>>Begin Spectral Data<<<<<
801.071	29056
801.214	28957
801.356	28713
801.499	28634
801.641	28725
801.783	28649
801.926	28683
802.068	28656
802.211	28603
802.353	28615
802.496	28398
802.638	28341
802.78	28287
802.923	28158
803.065	28150
803.208	28200
803.35	28272
803.492	28599
803.635	28557
803.777	28702
803.919	28626
804.061	28869
804.204	28592
804.346	28557
804.488	28417
804.63	28493
804.773	28291
804.915	28580
805.057	28656
805.199	28641
805.341	28733
805.483	28801
805.626	28687
805.768	28778
805.91	28641
806.052	28824
806.194	28664
806.336	28919
806.478	28816
806.62	28672
806.762	28915
806.904	29136
807.046	29364
807.188	29143
807.33	29159
807.472	29159
807.614	29121
807.756	29200
807.898	29113
808.04	28927
808.182	29022
808.324	29102
808.465	29006
808.607	29284
808.749	29543
808.891	29566
809.033	29748
809.174	29547
809.316	29554
809.458	29463
809.6	29467
809.741	29497
809.883	29604
810.025	29862
810.166	29729
810.308	29855
810.45	29741
810.591	29562
810.733	29486
810.875	29433
811.016	29478
811.158	29429
811.299	29592
811.441	29566
811.582	29623
811.724	29486
811.865	29322
812.007	29444
812.148	29497
812.29	29611
812.431	29623
812.573	29893
812.714	30072
812.855	29901
812.997	30213
813.138	30251
813.279	30053
813.421	30007
813.562	29878
813.703	29733
813.845	29611
813.986	29512
814.127	29239
814.268	29189
814.41	29200
814.551	29334
814.692	29105
814.833	29269
814.974	29121
815.115	29151
815.256	29105
815.397	29132
815.539	29075
815.68	29003
815.821	28953
815.962	29010
816.103	29079
816.244	28854
816.385	28816
816.526	28767
816.666	28615
816.807	28618
816.948	28607
817.089	28634
817.23	28649
817.371	28508
817.512	28561
817.653	28489
817.793	28363
817.934	28440
818.075	28706
818.216	28527
818.356	28478
818.497	28409
818.638	28314
818.778	28253
818.919	28310
819.06	28219
819.2	28523
819.341	28535
819.481	28485
819.622	28611
819.762	28968
819.903	28877
820.043	28797
820.184	28843
820.324	28694
820.465	28782
820.605	28694
820.746	28694
820.886	28611
821.026	28603
821.167	28653
821.307	28618
821.447	28538
821.588	28519
821.728	28314
821.868	28223
822.008	28025
822.149	28105
822.289	28139
822.429	27888
822.569	27701
822.709	27717
822.849	27386
822.99	27637
823.13	27439
823.27	27599
823.41	27268
823.55	27374
823.69	27310
823.83	27416
823.97	27317
824.11	27157
824.25	27203
824.389	27291
824.529	27283
824.669	27207
824.809	27275
824.949	27218
825.089	27211
825.228	27279
825.368	26918
825.508	27051
825.648	27154
825.787	27104
825.927	27165
826.067	27150
826.206	27009
826.346	27207
826.485	27047
826.625	27070
826.765	27237
826.904	27096
827.044	26918
827.183	26994
827.323	26731
827.462	26883
827.601	26773
827.741	26815
827.88	26785
828.02	26743
828.159	26777
828.298	26773
828.437	26796
828.577	26705
828.716	26868
828.855	26777
828.994	26317
829.134	26511
829.273	26453
829.412	26389
829.551	26385
829.69	26419
829.829	26431
829.968	26408
830.107	26499
830.246	26530
830.385	26473
830.524	26385
830.663	26282
830.802	26142
830.941	26111
831.08	26259
831.219	26126
831.357	26092
831.496	26404
831.635	26100
831.774	26168
831.913	25909
832.051	25928
832.19	25841
832.329	25727
832.467	25757
832.606	25712
832.744	25746
832.883	25742
833.022	25704
833.16	25837
833.299	25807
833.437	25837
833.576	25830
833.714	25871
833.852	25868
833.991	25841
834.129	25951
834.267	25868
834.406	25871
834.544	25894
834.682	25784
834.821	25772
834.959	25932
835.097	25837
835.235	25841
835.373	25723
835.511	25765
835.65	25696
835.788	25582
835.926	25624
836.064	25426
836.202	25559
836.34	25658
836.478	25624
836.615	25567
836.753	25616
836.891	25715
837.029	25651
837.167	25537
837.305	25666
837.443	25521
837.58	25514
837.718	25578
837.856	25514
837.993	25479
838.131	25468
838.269	25331
838.406	25308
838.544	25145
838.681	25133
838.819	25152
838.956	24913
839.094	24954
839.231	24962
839.369	25061
839.506	25285
839.643	25266
839.781	24954
839.918	24798
840.055	24882
840.193	24867
840.33	24814
840.467	24814
840.604	24958
840.742	25152
840.879	24741
841.016	24741
841.153	24601
841.29	24920
841.427	24730
841.564	24829
841.701	24932
841.838	24715
841.975	24722
842.112	24779
842.249	24776
842.385	24540
842.522	24768
842.659	24639
842.796	24696
842.933	24544
843.069	24509
843.206	24639
843.343	24604
843.479	24639
843.616	24604
843.752	24330
843.889	24380
844.025	24483
844.162	24429
844.298	24361
844.435	24266
844.571	24422
844.708	24330
844.844	24521
844.98	24551
845.117	24563
845.253	24334
845.389	24186
845.525	24224
845.661	24251
845.798	24129
845.934	24186
846.07	24041
846.206	24087
846.342	24243
846.478	23988
846.614	23954
846.75	23775
846.886	23775
847.022	23897
847.158	23859
847.294	23767
847.429	23813
847.565	23794
847.701	24171
847.837	23421
847.972	23608
848.108	23619
848.244	23657
848.379	23486
848.515	23501
848.65	23509
848.786	23372
848.921	23391
849.057	23501
849.192	23562
849.328	23425
849.463	23322
849.598	23379
849.734	23204
849.869	23124
850.004	23086
850.14	23273
850.275	23189
850.41	23261
850.545	23090
850.68	23067
850.815	23162
850.95	23258
851.085	23383
851.22	23261
851.355	23193
851.49	23178
851.625	23079
851.76	23090
851.895	23006
852.03	23075
852.165	23315
852.299	23254
852.434	23151
852.569	23197
852.703	23140
852.838	23258
852.973	23258
853.107	23246
853.242	23128
853.376	23075
853.511	22885
853.645	22957
853.78	23212
853.914	22946
854.048	22999
854.183	22942
854.317	22953
854.451	23105
854.585	23025
854.72	23003
854.854	23022
854.988	22877
855.122	23075
855.256	22976
855.39	23006
855.524	23037
855.658	22995
855.792	22987
855.926	23014
856.06	22968
856.194	23143
856.327	22957
856.461	22923
856.595	22911
856.729	22949
856.862	23128
856.996	23075
857.13	23113
857.263	23185
857.397	23041
857.53	22889
857.664	22885
857.797	23075
857.931	23033
858.064	22976
858.197	23159
858.331	22972
858.464	23033
858.597	22915
858.731	23056
858.864	23041
858.997	22908
859.13	22923
859.263	22934
859.396	23071
859.529	22957
859.662	22968
859.795	22995
859.928	23083
860.061	23083
860.194	23235
860.327	22972
860.46	23117
860.592	23090
860.725	23048
860.858	22984
860.99	23022
861.123	22889
861.256	22763
861.388	22991
861.521	23638
861.653	22957
861.786	22782
861.918	22843
862.05	22805
862.183	22946
862.315	23086
862.447	23006
862.58	22816
862.712	22717
862.844	22611
862.976	22778
863.108	22839
863.24	23090
863.372	22634
863.504	22596
863.636	22603
863.768	22653
863.9	22656
864.032	22554
864.164	22637
864.296	22774
864.428	22809
864.559	22706
864.691	22816
864.823	22641
864.954	22672
865.086	22592
865.217	22542
865.349	22466
865.48	22538
865.612	22538
865.743	22668
865.875	22557
866.006	22622
866.137	22618
866.269	22592
866.4	22421
866.531	22337
866.662	22432
866.793	22489
866.924	22516
867.055	22500
867.186	22546
867.317	22436
867.448	22409
867.579	22428
867.71	22314
867.841	22341
867.972	22428
868.103	22413
868.233	22478
868.364	22535
868.495	22542
868.625	22618
868.756	22736
868.886	22752
869.017	22611
869.147	22820
869.278	22752
869.408	22812
869.539	22778
869.669	22858
869.799	22850
869.929	22877
870.06	22835
870.19	23006
870.32	22957
870.45	23071
870.58	23086
870.71	23067
870.84	23075
870.97	23174
871.1	23155
871.23	23204
871.36	23417
871.489	23174
871.619	23330
871.749	23216
871.879	23311
872.008	23486
872.138	23322
872.267	23345
872.397	23208
872.526	23269
872.656	23303
872.785	23200
872.915	23307
873.044	23459
873.173	23330
873.303	23387
873.432	23452
873.561	23436
873.69	23334
873.819	23433
873.948	23425
874.077	23288
874.206	23303
874.335	23246
874.464	23531
874.593	23687
874.722	23501
874.851	23611
874.979	23596
875.108	23528
875.237	23589
875.365	23406
875.494	23573
875.623	23668
875.751	23512
875.88	23554
876.008	23581
876.136	23809
876.265	24018
876.393	24045
876.521	24083
876.65	23988
876.778	23836
876.906	23999
877.034	23912
877.162	23958
877.29	23840
877.418	23939
877.546	23935
877.674	23786
877.802	23786
877.93	23859
878.058	23809
878.185	23764
878.313	23840
878.441	23817
878.568	23756
878.696	23783
878.824	23939
878.951	23961
879.079	24015
879.206	24121
879.333	24254
879.461	23901
879.588	23946
879.715	24087
879.842	24106
879.97	23980
880.097	23760
880.224	23687
880.351	23878
880.478	23863
880.605	23729
880.732	23741
880.859	23893
880.986	23726
881.112	23748
881.239	23642
881.366	23467
881.493	23322
881.619	23398
881.746	23208
881.872	23223
881.999	23181
882.125	23204
882.252	23376
882.378	23216
882.505	23250
882.631	22991
882.757	23003
882.883	23079
883.01	22942
883.136	22862
883.262	22691
883.388	22717
883.514	22881
883.64	22953
883.766	22694
883.892	22759
884.018	22675
884.143	22820
884.269	22892
884.395	22565
884.52	22599
884.646	22588
884.772	22531
884.897	22535
885.023	22504
885.148	22641
885.274	22710
885.399	22733
885.524	22546
885.65	22611
885.775	22554
885.9	22516
886.025	22592
886.15	22580
886.275	22417
886.4	22360
886.525	22584
886.65	22554
886.775	22565
886.9	22706
887.025	22774
887.149	22474
887.274	22394
887.399	22329
887.523	22398
887.648	22192
887.773	22226
887.897	22242
888.021	22310
888.146	22230
888.27	22303
888.395	22405
888.519	22322
888.643	22306
888.767	22363
888.891	22154
889.015	22128
889.139	22109
889.263	22112
889.387	22230
889.511	22310
889.635	22268
889.759	22013
889.883	22078
890.006	22055
890.13	22162
890.254	21945
890.377	22006
890.501	21816
890.624	21751
890.748	21854
890.871	21781
890.995	21720
891.118	21526
891.241	21606
891.364	21606
891.488	21789
891.611	21667
891.734	21705
891.857	21717
891.98	21587
892.103	21610
892.226	21561
892.349	21587
892.471	21473
892.594	21488
892.717	21545
892.839	21477
892.962	21519
893.085	21523
893.207	21450
893.33	21412
893.452	21416
893.575	21511
893.697	21408
893.819	21675
893.941	21637
894.064	21686
894.186	21454
894.308	21397
894.43	21564
894.552	21641
894.674	21538
894.796	21393
894.918	21466
895.04	21416
895.161	21500
895.283	21374
895.405	21466
895.526	21466
895.648	21439
895.769	21530
895.891	21614
896.012	21671
896.134	21469
896.255	21477
896.376	21473
896.498	21462
896.619	21500
896.74	21583
896.861	21469
896.982	21804
897.103	22006
897.224	21698
897.345	21641
897.466	21534
897.587	21690
897.708	21838
897.828	21709
897.949	21644
898.07	21599
898.19	21625
898.311	21686
898.431	21595
898.552	21667
898.672	21701
898.792	21682
898.913	21633
899.033	21561
899.153	21405
899.273	21332
899.393	21454
899.513	21454
899.633	21313
899.753	21466
899.873	21283
899.993	21450
900.113	21275
900.232	21344
900.352	21386
900.472	21275
900.591	21077
900.711	21180
900.83	21081
900.95	21237
901.069	21150
901.189	21017
901.308	20826
901.427	20804
901.546	20598
901.665	20689
901.784	20804
901.904	20514
902.023	20514
902.141	20252
902.26	20164
902.379	20240
902.498	20176
902.617	20210
902.735	20157
902.854	20180
902.973	20142
903.091	19940
903.21	19803
903.328	19940
903.446	19811
903.565	19693
903.683	19791
903.801	19518
903.919	19601
904.038	19616
904.156	19365
904.274	19529
904.392	19502
904.51	19403
904.627	19274
904.745	19480
904.863	19510
904.981	19346
905.098	19206
905.216	19156
905.334	19137
905.451	19095
905.569	19008
905.686	19076
905.803	19019
905.921	18829
906.038	18909
906.155	18916
906.272	18726
906.389	18757
906.506	18604
906.623	18646
906.74	18604
906.857	18433
906.974	18494
907.091	18715
907.208	18707
907.324	18589
907.441	18494
907.557	18357
907.674	18285
907.79	18262
907.907	18315
908.023	18308
908.139	18213
908.256	18308
908.372	18342
908.488	18194
908.604	18038
908.72	18068
908.836	18159
908.952	17946
909.068	18045
909.184	18060
909.3	18030
909.415	17977
909.531	18019
909.647	17767
909.762	17824
909.878	17809
909.993	17657
910.108	17733
910.224	17703
910.339	17665
910.454	17615
910.57	17535
910.685	17444
910.8	17733
910.915	17623
911.03	17501
911.145	17406
911.259	17315
911.374	17379
911.489	17235
911.604	17204
911.718	16991
911.833	17071
911.947	17003
912.062	16850
912.176	16968
912.291	17162
912.405	17045
912.519	17185
912.633	17197
912.748	17109
912.862	17075
912.976	16839
913.09	16706
913.204	16858
913.318	16866
913.431	16980
913.545	16904
913.659	16968
913.772	16843
913.886	16656
914	16653
914.113	16687
914.226	16778
914.34	16675
914.453	16462
914.566	16660
914.68	16489
914.793	16432
914.906	16169
915.019	16166
915.132	16109
915.245	16215
915.358	16215
915.47	16257
915.583	16162
915.696	16173
915.809	16352
915.921	16246
916.034	16063
916.146	16074
916.259	16040
916.371	16204
916.483	16093
916.595	15975
916.708	16013
916.82	15998
916.932	15884
917.044	15975
917.156	15857
917.268	15720
917.38	15937
917.491	15827
917.603	15797
917.715	15808
917.826	15842
917.938	15652
918.049	15660
918.161	15743
918.272	15816
918.384	15804
918.495	15747
918.606	15492
918.717	15511
918.828	15519
918.939	15606
919.05	15397
919.161	15443
919.272	15226
919.383	15386
919.494	15534
919.604	15679
919.715	15519
919.826	15389
919.936	15507
920.047	15595
920.157	15515
920.267	15595
920.378	15515
920.488	15378
920.598	15622
920.708	15785
920.818	15656
920.928	15610
921.038	15698
921.148	15625
921.258	15507
921.368	15466
921.477	15138
921.587	15199
921.697	15081
921.806	15222
921.916	14990
922.025	14826
922.134	14868
922.244	14807
922.353	14826
922.462	14693
922.571	14610
922.68	14461
922.789	14484
922.898	14606
923.007	14389
923.116	14564
923.224	14488
923.333	14446
923.442	14267
923.55	14191
923.659	14290
923.767	14328
923.876	14206
923.984	14336
924.092	14229
924.201	14168
924.309	14233
924.417	14138
924.525	14058
924.633	14115
924.741	15032
924.849	13978
924.956	14077
925.064	13822
925.172	13826
925.279	13811
925.387	13791
925.494	13803
925.602	13856
925.709	13856
925.816	13712
925.924	13750
926.031	13841
926.138	13704
926.245	13837
926.352	13609
926.459	13830
926.566	13822
926.673	13620
926.779	13559
926.886	13586
926.993	13449
927.099	13438
927.206	13339
927.312	13240
927.419	13426
927.525	13327
927.631	13343
927.737	13232
927.843	13133
927.95	13099
928.056	13209
928.162	13228
928.267	13206
928.373	13795
928.479	13194
928.585	13118
928.69	13129
928.796	13091
928.901	13027
929.007	12810
929.112	13004
929.218	12970
929.323	12844
929.428	12837
929.533	12970
929.638	12745
929.743	12810
929.848	12844
929.953	12688
930.058	12658
930.163	12517
930.267	12536
930.372	12654
930.477	12483
930.581	12669
930.685	12517
930.79	12388
930.894	12441
930.998	12399
931.103	12498
931.207	12239
931.311	12098
931.415	11984
931.519	11798
931.623	11817
