Data from test_V78500241_3703.txt Node
Date: Fri Mar 25 16:07:27 CST 2022
User: usil
Spectrometer: V785-0024
Trigger mode: 0
Integration Time (sec): 4.000000E-1
Scans to average: 1
Nonlinearity correction enabled: false
Boxcar width: 0
Storing dark spectrum: false
XAxis mode: Wavelengths
Number of Pixels in Spectrum: 1024
>>>>>Begin Spectral Data<<<<<
801.071	28249
801.214	28443
801.356	28032
801.499	28067
801.641	27994
801.783	28105
801.926	27934
802.068	28021
802.211	27953
802.353	28010
802.496	27572
802.638	27739
802.78	27553
802.923	27671
803.065	27519
803.208	27606
803.35	27686
803.492	27816
803.635	27934
803.777	27728
803.919	27793
804.061	28242
804.204	27835
804.346	27778
804.488	27797
804.63	27808
804.773	27660
804.915	27899
805.057	27922
805.199	28013
805.341	27926
805.483	28002
805.626	27960
805.768	27876
805.91	27964
806.052	28055
806.194	27888
806.336	28329
806.478	28044
806.62	28166
806.762	28219
806.904	28192
807.046	28527
807.188	28550
807.33	28478
807.472	28519
807.614	28443
807.756	28504
807.898	28367
808.04	28204
808.182	28158
808.324	28440
808.465	28386
808.607	28599
808.749	28752
808.891	28843
809.033	28694
809.174	28812
809.316	28596
809.458	28866
809.6	28599
809.741	28672
809.883	28759
810.025	29102
810.166	29033
810.308	28946
810.45	28881
810.591	28984
810.733	28782
810.875	28664
811.016	28554
811.158	28615
811.299	28729
811.441	28763
811.582	28915
811.724	28645
811.865	28554
812.007	28713
812.148	28805
812.29	28736
812.431	28801
812.573	29113
812.714	29128
812.855	29197
812.997	29349
813.138	29558
813.279	29414
813.421	29189
813.562	29250
813.703	28995
813.845	28877
813.986	28706
814.127	28481
814.268	28249
814.41	28421
814.551	28379
814.692	28474
814.833	28287
814.974	28382
815.115	28466
815.256	28424
815.397	28230
815.539	28348
815.68	28314
815.821	28097
815.962	28306
816.103	28211
816.244	28078
816.385	28124
816.526	27926
816.666	27705
816.807	27618
816.948	27819
817.089	27850
817.23	27724
817.371	27637
817.512	27690
817.653	27736
817.793	27732
817.934	27774
818.075	27663
818.216	27679
818.356	27618
818.497	27553
818.638	27386
818.778	27526
818.919	27454
819.06	27637
819.2	27652
819.341	27648
819.481	27907
819.622	27759
819.762	27987
819.903	28067
820.043	27926
820.184	28010
820.324	27945
820.465	28013
820.605	27842
820.746	27739
820.886	27842
821.026	27861
821.167	27926
821.307	27869
821.447	27778
821.588	27641
821.728	27542
821.868	27367
822.008	27214
822.149	27161
822.289	27169
822.429	26910
822.569	26872
822.709	26918
822.849	26815
822.99	26781
823.13	26712
823.27	26640
823.41	26495
823.55	26400
823.69	26332
823.83	26625
823.97	26374
824.11	26328
824.25	26233
824.389	26351
824.529	26396
824.669	26438
824.809	26480
824.949	26480
825.089	26427
825.228	26511
825.368	26202
825.508	26119
825.648	26275
825.787	26195
825.927	26324
826.067	26218
826.206	26240
826.346	26263
826.485	26358
826.625	26073
826.765	26366
826.904	26328
827.044	25925
827.183	26001
827.323	26020
827.462	26020
827.601	25963
827.741	25970
827.88	25890
828.02	25731
828.159	25917
828.298	25993
828.437	25947
828.577	25890
828.716	26027
828.855	25841
828.994	25723
829.134	25662
829.273	25765
829.412	25571
829.551	25727
829.69	25502
829.829	25662
829.968	25826
830.107	25647
830.246	25734
830.385	25533
830.524	25422
830.663	25441
830.802	25400
830.941	25240
831.08	25244
831.219	25381
831.357	25304
831.496	25419
831.635	25217
831.774	25118
831.913	25099
832.051	25038
832.19	25065
832.329	25095
832.467	24840
832.606	24817
832.744	24817
832.883	24897
833.022	24856
833.16	24859
833.299	24970
833.437	24894
833.576	25004
833.714	25050
833.852	25046
833.991	24996
834.129	25027
834.267	25053
834.406	24985
834.544	24966
834.682	24958
834.821	24951
834.959	25133
835.097	24882
835.235	24989
835.373	25061
835.511	24852
835.65	24859
835.788	24810
835.926	24772
836.064	24483
836.202	24635
836.34	24745
836.478	24890
836.615	24719
836.753	24738
836.891	24875
837.029	24935
837.167	24715
837.305	24642
837.443	24604
837.58	24665
837.718	24688
837.856	24627
837.993	24601
838.131	24563
838.269	24483
838.406	24536
838.544	24582
838.681	24262
838.819	24106
838.956	24186
839.094	24022
839.231	24133
839.369	24220
839.506	24395
839.643	24213
839.781	24098
839.918	24038
840.055	24064
840.193	23980
840.33	23996
840.467	24022
840.604	24076
840.742	24243
840.879	23863
841.016	23958
841.153	23859
841.29	24022
841.427	24030
841.564	23984
841.701	23958
841.838	23942
841.975	23866
842.112	23965
842.249	23840
842.385	23809
842.522	23954
842.659	23691
842.796	23528
842.933	23745
843.069	23718
843.206	23733
843.343	23790
843.479	23824
843.616	23752
843.752	23585
843.889	23741
844.025	23661
844.162	23463
844.298	23585
844.435	23433
844.571	23509
844.708	23661
844.844	23627
844.98	23779
845.117	23592
845.253	23547
845.389	23372
845.525	23414
845.661	23547
845.798	23178
845.934	23277
846.07	23223
846.206	23395
846.342	23398
846.478	23383
846.614	23102
846.75	23044
846.886	22991
847.022	23018
847.158	23102
847.294	22995
847.429	22968
847.565	22900
847.701	23136
847.837	22664
847.972	22584
848.108	22949
848.244	22816
848.379	22618
848.515	22516
848.65	22611
848.786	22569
848.921	22542
849.057	22721
849.192	22649
849.328	22577
849.463	22527
849.598	22546
849.734	22478
849.869	22459
850.004	22261
850.14	22371
850.275	22500
850.41	22310
850.545	22158
850.68	22390
850.815	22428
850.95	22272
851.085	22516
851.22	22519
851.355	22303
851.49	22272
851.625	22219
851.76	22371
851.895	22265
852.03	22424
852.165	22367
852.299	22405
852.434	22409
852.569	22291
852.703	22481
852.838	22428
852.973	22466
853.107	22516
853.242	22185
853.376	22097
853.511	22188
853.645	22139
853.78	22284
853.914	22215
854.048	22116
854.183	22090
854.317	22284
854.451	22481
854.585	22097
854.72	22200
854.854	22344
854.988	22109
855.122	22124
855.256	22086
855.39	22166
855.524	22234
855.658	22181
855.792	22238
855.926	22215
856.06	22200
856.194	22192
856.327	22025
856.461	22048
856.595	21964
856.729	22261
856.862	22223
856.996	22078
857.13	22379
857.263	22246
857.397	22226
857.53	22162
857.664	22291
857.797	22215
857.931	22268
858.064	22188
858.197	22379
858.331	22059
858.464	22082
858.597	21983
858.731	22181
858.864	22150
858.997	22078
859.13	22249
859.263	22257
859.396	22272
859.529	22025
859.662	22021
859.795	22185
859.928	22154
860.061	22375
860.194	22481
860.327	22291
860.46	22169
860.592	22257
860.725	22287
860.858	22299
860.99	22287
861.123	22139
861.256	22032
861.388	22101
861.521	22919
861.653	21991
861.786	22032
861.918	22105
862.05	22021
862.183	22177
862.315	22090
862.447	22226
862.58	22059
862.712	21907
862.844	21827
862.976	22055
863.108	21953
863.24	22356
863.372	21842
863.504	21732
863.636	21873
863.768	21907
863.9	21838
864.032	21759
864.164	21819
864.296	21918
864.428	22032
864.559	21983
864.691	21907
864.823	21888
864.954	21701
865.086	21846
865.217	21724
865.349	21747
865.48	21778
865.612	21732
865.743	21911
865.875	21789
866.006	21766
866.137	21766
866.269	21827
866.4	21618
866.531	21671
866.662	21656
866.793	21652
866.924	21759
867.055	21652
867.186	21797
867.317	21648
867.448	21648
867.579	21660
867.71	21637
867.841	21637
867.972	21720
868.103	21720
868.233	21698
868.364	21679
868.495	21751
868.625	21838
868.756	22032
868.886	21918
869.017	21838
869.147	22063
869.278	22044
869.408	21892
869.539	21918
869.669	22036
869.799	22006
869.929	22120
870.06	21918
870.19	22402
870.32	22200
870.45	22375
870.58	22284
870.71	22459
870.84	22531
870.97	22371
871.1	22291
871.23	22531
871.36	22500
871.489	22527
871.619	22417
871.749	22641
871.879	22451
872.008	22637
872.138	22550
872.267	22622
872.397	22379
872.526	22303
872.656	22363
872.785	22257
872.915	22592
873.044	22577
873.173	22535
873.303	22447
873.432	22615
873.561	22611
873.69	22592
873.819	22611
873.948	22637
874.077	22565
874.206	22390
874.335	22596
874.464	22634
874.593	22755
874.722	22733
874.851	22786
874.979	22854
875.108	22919
875.237	22706
875.365	22649
875.494	22725
875.623	22713
875.751	22706
875.88	22702
876.008	22999
876.136	22900
876.265	23132
876.393	23296
876.521	23368
876.65	23288
876.778	23299
876.906	23189
877.034	23086
877.162	23136
877.29	23200
877.418	23208
877.546	23056
877.674	23010
877.802	23079
877.93	23239
878.058	23200
878.185	22987
878.313	23094
878.441	23052
878.568	22942
878.696	22980
878.824	23056
878.951	23212
879.079	23231
879.206	23444
879.333	23356
879.461	23147
879.588	23261
879.715	23356
879.842	23353
879.97	23174
880.097	22889
880.224	22919
880.351	22953
880.478	22987
880.605	22873
880.732	22995
880.859	23162
880.986	22915
881.112	22934
881.239	22854
881.366	22596
881.493	22557
881.619	22542
881.746	22649
881.872	22485
881.999	22573
882.125	22508
882.252	22474
882.378	22516
882.505	22489
882.631	22432
882.757	22147
882.883	22242
883.01	22215
883.136	22017
883.262	21953
883.388	21983
883.514	22211
883.64	22234
883.766	21987
883.892	22010
884.018	21835
884.143	22101
884.269	22192
884.395	21915
884.52	21694
884.646	21953
884.772	21793
884.897	21724
885.023	21762
885.148	21873
885.274	22032
885.399	21922
885.524	21838
885.65	21793
885.775	21720
885.9	21759
886.025	21964
886.15	21854
886.275	21816
886.4	21720
886.525	21713
886.65	21705
886.775	21743
886.9	21884
887.025	22002
887.149	21732
887.274	21637
887.399	21614
887.523	21553
887.648	21625
887.773	21481
887.897	21762
888.021	21705
888.146	21526
888.27	21633
888.395	21759
888.519	21618
888.643	21519
888.767	21656
888.891	21530
889.015	21393
889.139	21462
889.263	21351
889.387	21481
889.511	21576
889.635	21492
889.759	21344
889.883	21348
890.006	21367
890.13	21488
890.254	21344
890.377	21260
890.501	21142
890.624	21150
890.748	21108
890.871	20914
890.995	20918
891.118	20826
891.241	21017
891.364	20929
891.488	21070
891.611	20956
891.734	20891
891.857	20975
891.98	21058
892.103	20956
892.226	20921
892.349	20876
892.471	20689
892.594	20712
892.717	20899
892.839	20792
892.962	20830
893.085	20785
893.207	20876
893.33	20674
893.452	20838
893.575	20838
893.697	20804
893.819	20914
893.941	20948
894.064	20819
894.186	20743
894.308	20682
894.43	20819
894.552	21074
894.674	21024
894.796	20621
894.918	20804
895.04	20686
895.161	20948
895.283	20861
895.405	20571
895.526	20891
895.648	20746
895.769	20815
895.891	20830
896.012	20842
896.134	20876
896.255	20800
896.376	20720
896.498	20826
896.619	20887
896.74	20845
896.861	20815
896.982	21108
897.103	21287
897.224	21058
897.345	21001
897.466	20872
897.587	21100
897.708	21154
897.828	21020
897.949	20876
898.07	20834
898.19	20948
898.311	21058
898.431	20986
898.552	21058
898.672	21020
898.792	20971
898.913	21066
899.033	20956
899.153	20815
899.273	20720
899.393	20629
899.513	20724
899.633	20796
899.753	20777
899.873	20686
899.993	20659
900.113	20693
900.232	20659
900.352	20674
900.472	20625
900.591	20480
900.711	20625
900.83	20484
900.95	20720
901.069	20560
901.189	20366
901.308	20157
901.427	20039
901.546	20046
901.665	20020
901.784	20058
901.904	19845
902.023	19875
902.141	19723
902.26	19635
902.379	19719
902.498	19597
902.617	19521
902.735	19651
902.854	19628
902.973	19460
903.091	19263
903.21	19202
903.328	19141
903.446	19194
903.565	19099
903.683	19118
903.801	19008
903.919	18985
904.038	18985
904.156	18810
904.274	18909
904.392	18844
904.51	18753
904.627	18814
904.745	18837
904.863	18802
904.981	18612
905.098	18536
905.216	18441
905.334	18601
905.451	18388
905.569	18509
905.686	18544
905.803	18323
905.921	18239
906.038	18327
906.155	18235
906.272	18201
906.389	18171
906.506	18053
906.623	18106
906.74	18057
906.857	17904
906.974	17992
907.091	18102
907.208	18194
907.324	18068
907.441	17916
907.557	17764
907.674	17726
907.79	17649
907.907	17672
908.023	17741
908.139	17642
908.256	17649
908.372	17581
908.488	17657
908.604	17516
908.72	17505
908.836	17467
908.952	17478
909.068	17436
909.184	17482
909.3	17318
909.415	17524
909.531	17322
909.647	17136
909.762	17189
909.878	17109
909.993	17090
910.108	17113
910.224	17113
910.339	17079
910.454	16904
910.57	16873
910.685	16843
910.8	17223
910.915	17090
911.03	16957
911.145	16889
911.259	16645
911.374	16767
911.489	16615
911.604	16565
911.718	16421
911.833	16474
911.947	16379
912.062	16284
912.176	16443
912.291	16451
912.405	16554
912.519	16645
912.633	16637
912.748	16493
912.862	16455
912.976	16295
913.09	16154
913.204	16207
913.318	16246
913.431	16253
913.545	16352
913.659	16398
913.772	16204
913.886	16166
914	15991
914.113	16135
914.226	16166
914.34	16169
914.453	15930
914.566	16097
914.68	15926
914.793	15945
914.906	15774
915.019	15660
915.132	15625
915.245	15606
915.358	15618
915.47	15682
915.583	15675
915.696	15667
915.809	15724
915.921	15865
916.034	15622
916.146	15584
916.259	15519
916.371	15561
916.483	15614
916.595	15408
916.708	15447
916.82	15485
916.932	15450
917.044	15420
917.156	15367
917.268	15355
917.38	15306
917.491	15249
917.603	15245
917.715	15386
917.826	15469
917.938	15116
918.049	15154
918.161	15264
918.272	15336
918.384	15329
918.495	15275
918.606	15062
918.717	15104
918.828	15028
918.939	15039
919.05	15028
919.161	15100
919.272	14826
919.383	14823
919.494	15127
919.604	15173
919.715	15070
919.826	14914
919.936	14956
920.047	15077
920.157	15074
920.267	15093
920.378	14944
920.488	14918
920.598	15112
920.708	15344
920.818	15093
920.928	15039
921.038	15275
921.148	15173
921.258	14921
921.368	14868
921.477	14727
921.587	14735
921.697	14621
921.806	14716
921.916	14610
922.025	14370
922.134	14351
922.244	14358
922.353	14309
922.462	14275
922.571	14088
922.68	14103
922.789	14092
922.898	13989
923.007	13791
923.116	13978
923.224	13932
923.333	13925
923.442	13849
923.55	13784
923.659	13909
923.767	13811
923.876	13772
923.984	13769
924.092	13662
924.201	13677
924.309	13750
924.417	13731
924.525	13567
924.633	13571
924.741	14495
924.849	13464
924.956	13506
925.064	13415
925.172	13346
925.279	13354
925.387	13460
925.494	13384
925.602	13537
925.709	13403
925.816	13282
925.924	13350
926.031	13331
926.138	13289
926.245	13388
926.352	13160
926.459	13388
926.566	13350
926.673	13278
926.779	13114
926.886	13122
926.993	12977
927.099	12943
927.206	12882
927.312	12810
927.419	12928
927.525	12878
927.631	12867
927.737	12814
927.843	12814
927.95	12681
928.056	12688
928.162	12829
928.267	12730
928.373	13324
928.479	12844
928.585	12513
928.69	12753
928.796	12730
928.901	12608
929.007	12403
929.112	12646
929.218	12608
929.323	12509
929.428	12361
929.533	12536
929.638	12334
929.743	12342
929.848	12479
929.953	12448
930.058	12300
930.163	12133
930.267	12136
930.372	12224
930.477	12041
930.581	12292
930.685	12178
930.79	12026
930.894	12079
930.998	11992
931.103	12171
931.207	11817
931.311	11737
931.415	11592
931.519	11410
931.623	11376
