Data from test_V78500241_2582.txt Node
Date: Fri Mar 25 15:59:41 CST 2022
User: usil
Spectrometer: V785-0024
Trigger mode: 0
Integration Time (sec): 4.000000E-1
Scans to average: 1
Nonlinearity correction enabled: false
Boxcar width: 0
Storing dark spectrum: false
XAxis mode: Wavelengths
Number of Pixels in Spectrum: 1024
>>>>>Begin Spectral Data<<<<<
801.071	28584
801.214	28485
801.356	28257
801.499	28207
801.641	28051
801.783	28082
801.926	27994
802.068	28017
802.211	28036
802.353	27907
802.496	27808
802.638	27785
802.78	27694
802.923	27709
803.065	27686
803.208	27762
803.35	27793
803.492	27945
803.635	28032
803.777	27956
803.919	28036
804.061	28291
804.204	28032
804.346	27800
804.488	27895
804.63	27972
804.773	27979
804.915	28101
805.057	27949
805.199	27880
805.341	28029
805.483	28162
805.626	28128
805.768	28032
805.91	28063
806.052	28090
806.194	28059
806.336	28287
806.478	28177
806.62	28128
806.762	28177
806.904	28596
807.046	28679
807.188	28474
807.33	28615
807.472	28523
807.614	28535
807.756	28592
807.898	28470
808.04	28356
808.182	28394
808.324	28527
808.465	28557
808.607	28615
808.749	28828
808.891	28831
809.033	29109
809.174	28896
809.316	28767
809.458	28858
809.6	28763
809.741	28930
809.883	28999
810.025	29124
810.166	29098
810.308	29014
810.45	28965
810.591	29025
810.733	28797
810.875	28786
811.016	28850
811.158	28790
811.299	28911
811.441	28862
811.582	28908
811.724	28744
811.865	28858
812.007	28866
812.148	28736
812.29	29014
812.431	29006
812.573	29174
812.714	29242
812.855	29227
812.997	29406
813.138	29623
813.279	29482
813.421	29425
813.562	29315
813.703	29151
813.845	29079
813.986	28820
814.127	28679
814.268	28565
814.41	28447
814.551	28466
814.692	28535
814.833	28474
814.974	28542
815.115	28470
815.256	28352
815.397	28436
815.539	28333
815.68	28242
815.821	28314
815.962	28223
816.103	28280
816.244	28116
816.385	28116
816.526	28044
816.666	28032
816.807	27622
816.948	27979
817.089	27835
817.23	27888
817.371	27781
817.512	27785
817.653	27835
817.793	27880
817.934	27816
818.075	27827
818.216	27648
818.356	27747
818.497	27755
818.638	27504
818.778	27523
818.919	27686
819.06	27580
819.2	27667
819.341	27850
819.481	27838
819.622	27873
819.762	28188
819.903	28036
820.043	28059
820.184	28029
820.324	28116
820.465	28017
820.605	27823
820.746	27972
820.886	27854
821.026	28044
821.167	28048
821.307	27991
821.447	27827
821.588	27713
821.728	27660
821.868	27599
822.008	27291
822.149	27408
822.289	27211
822.429	27051
822.569	26891
822.709	27017
822.849	26777
822.99	26952
823.13	26819
823.27	26853
823.41	26724
823.55	26556
823.69	26560
823.83	26583
823.97	26602
824.11	26305
824.25	26336
824.389	26473
824.529	26533
824.669	26431
824.809	26545
824.949	26469
825.089	26552
825.228	26427
825.368	26301
825.508	26362
825.648	26305
825.787	26252
825.927	26400
826.067	26328
826.206	26271
826.346	26442
826.485	26355
826.625	26381
826.765	26377
826.904	26278
827.044	26111
827.183	26035
827.323	26043
827.462	25986
827.601	26024
827.741	26073
827.88	25989
828.02	25966
828.159	25909
828.298	26050
828.437	26107
828.577	25989
828.716	26134
828.855	25959
828.994	25757
829.134	25670
829.273	25818
829.412	25708
829.551	25696
829.69	25780
829.829	25639
829.968	25887
830.107	25856
830.246	25837
830.385	25674
830.524	25605
830.663	25685
830.802	25605
830.941	25270
831.08	25202
831.219	25502
831.357	25460
831.496	25514
831.635	25320
831.774	25339
831.913	25320
832.051	25091
832.19	24943
832.329	25240
832.467	24939
832.606	25019
832.744	25038
832.883	25008
833.022	24852
833.16	24989
833.299	25126
833.437	25008
833.576	25129
833.714	25095
833.852	25118
833.991	25107
834.129	25236
834.267	25133
834.406	25141
834.544	25099
834.682	25164
834.821	25042
834.959	25297
835.097	25042
835.235	25278
835.373	25065
835.511	25015
835.65	25057
835.788	24897
835.926	24821
836.064	24848
836.202	24776
836.34	24863
836.478	25141
836.615	24772
836.753	24928
836.891	24962
837.029	24947
837.167	24867
837.305	24852
837.443	24753
837.58	24802
837.718	24738
837.856	24768
837.993	24779
838.131	24681
838.269	24608
838.406	24749
838.544	24433
838.681	24475
838.819	24346
838.956	24220
839.094	24262
839.231	24224
839.369	24441
839.506	24551
839.643	24403
839.781	24334
839.918	24129
840.055	24129
840.193	24304
840.33	24095
840.467	23946
840.604	24258
840.742	24327
840.879	24011
841.016	24098
841.153	24060
841.29	24235
841.427	24155
841.564	24102
841.701	24087
841.838	24136
841.975	24045
842.112	24076
842.249	23958
842.385	23847
842.522	24186
842.659	23878
842.796	23840
842.933	23939
843.069	23824
843.206	23752
843.343	24007
843.479	23931
843.616	23817
843.752	23817
843.889	23638
844.025	23855
844.162	23634
844.298	23687
844.435	23539
844.571	23604
844.708	23805
844.844	23756
844.98	23904
845.117	23657
845.253	23661
845.389	23649
845.525	23474
845.661	23493
845.798	23387
845.934	23577
846.07	23250
846.206	23417
846.342	23547
846.478	23349
846.614	23155
846.75	22946
846.886	23041
847.022	23136
847.158	23109
847.294	23113
847.429	23162
847.565	23052
847.701	23349
847.837	22923
847.972	22892
848.108	23003
848.244	22908
848.379	22706
848.515	22713
848.65	22615
848.786	22668
848.921	22710
849.057	22862
849.192	22736
849.328	22630
849.463	22710
849.598	22691
849.734	22622
849.869	22527
850.004	22588
850.14	22375
850.275	22413
850.41	22375
850.545	22451
850.68	22348
850.815	22554
850.95	22432
851.085	22698
851.22	22626
851.355	22462
851.49	22565
851.625	22360
851.76	22436
851.895	22493
852.03	22299
852.165	22402
852.299	22580
852.434	22672
852.569	22375
852.703	22291
852.838	22569
852.973	22622
853.107	22493
853.242	22409
853.376	22306
853.511	22219
853.645	22249
853.78	22291
853.914	22333
854.048	22223
854.183	22287
854.317	22291
854.451	22382
854.585	22181
854.72	22177
854.854	22398
854.988	22200
855.122	22265
855.256	22177
855.39	22295
855.524	22344
855.658	22310
855.792	22185
855.926	22150
856.06	22375
856.194	22386
856.327	22272
856.461	22185
856.595	22329
856.729	22295
856.862	22348
856.996	22253
857.13	22261
857.263	22333
857.397	22360
857.53	22291
857.664	22382
857.797	22344
857.931	22360
858.064	22310
858.197	22481
858.331	22348
858.464	22253
858.597	22306
858.731	22261
858.864	22299
858.997	22200
859.13	22230
859.263	22322
859.396	22405
859.529	22276
859.662	22196
859.795	22192
859.928	22215
860.061	22440
860.194	22470
860.327	22344
860.46	22413
860.592	22432
860.725	22470
860.858	22394
860.99	22249
861.123	22207
861.256	22314
861.388	22318
861.521	22915
861.653	22109
861.786	22147
861.918	22097
862.05	22101
862.183	22261
862.315	22223
862.447	22226
862.58	22154
862.712	22093
862.844	21941
862.976	21918
863.108	22029
863.24	22523
863.372	21949
863.504	21926
863.636	22116
863.768	22051
863.9	22067
864.032	21972
864.164	21964
864.296	22002
864.428	22040
864.559	22051
864.691	22006
864.823	21975
864.954	21880
865.086	21873
865.217	21945
865.349	21732
865.48	21915
865.612	21838
865.743	22074
865.875	21846
866.006	21812
866.137	21934
866.269	21785
866.4	21922
866.531	21888
866.662	21785
866.793	21831
866.924	21766
867.055	21808
867.186	21827
867.317	21842
867.448	21679
867.579	21781
867.71	21572
867.841	21800
867.972	21774
868.103	21888
868.233	21766
868.364	21778
868.495	21949
868.625	22067
868.756	22070
868.886	22074
869.017	21968
869.147	22135
869.278	22272
869.408	21941
869.539	22013
869.669	22261
869.799	22109
869.929	22196
870.06	22242
870.19	22272
870.32	22333
870.45	22390
870.58	22421
870.71	22500
870.84	22580
870.97	22519
871.1	22402
871.23	22580
871.36	22653
871.489	22474
871.619	22637
871.749	22599
871.879	22774
872.008	22801
872.138	22683
872.267	22618
872.397	22474
872.526	22333
872.656	22542
872.785	22462
872.915	22660
873.044	22748
873.173	22710
873.303	22706
873.432	22725
873.561	22774
873.69	22683
873.819	22752
873.948	22710
874.077	22710
874.206	22519
874.335	22710
874.464	22816
874.593	22889
874.722	22824
874.851	22850
874.979	22698
875.108	22980
875.237	22774
875.365	22733
875.494	22812
875.623	22858
875.751	22881
875.88	22801
876.008	22976
876.136	23117
876.265	23181
876.393	23292
876.521	23364
876.65	23277
876.778	23280
876.906	23242
877.034	23128
877.162	23193
877.29	23132
877.418	23273
877.546	23223
877.674	23174
877.802	23208
877.93	23155
878.058	23197
878.185	23128
878.313	23261
878.441	23159
878.568	23037
878.696	23102
878.824	23220
878.951	23341
879.079	23395
879.206	23459
879.333	23421
879.461	23200
879.588	23337
879.715	23322
879.842	23452
879.97	23353
880.097	23003
880.224	23029
880.351	23102
880.478	23056
880.605	22877
880.732	23079
880.859	23322
880.986	23086
881.112	23052
881.239	22919
881.366	22824
881.493	22748
881.619	22580
881.746	22622
881.872	22660
881.999	22561
882.125	22577
882.252	22733
882.378	22706
882.505	22607
882.631	22443
882.757	22348
882.883	22306
883.01	22249
883.136	22284
883.262	22093
883.388	22025
883.514	22379
883.64	22329
883.766	22211
883.892	22029
884.018	22067
884.143	22177
884.269	22352
884.395	22025
884.52	21861
884.646	22010
884.772	21819
884.897	21701
885.023	21915
885.148	22067
885.274	22029
885.399	21983
885.524	21793
885.65	21850
885.775	21918
885.9	21789
886.025	21979
886.15	21994
886.275	21827
886.4	21793
886.525	21850
886.65	21751
886.775	21789
886.9	21972
887.025	21998
887.149	21869
887.274	21751
887.399	21709
887.523	21701
887.648	21595
887.773	21641
887.897	21720
888.021	21682
888.146	21648
888.27	21728
888.395	21713
888.519	21739
888.643	21667
888.767	21622
888.891	21561
889.015	21591
889.139	21526
889.263	21443
889.387	21557
889.511	21694
889.635	21652
889.759	21462
889.883	21481
890.006	21473
890.13	21462
890.254	21443
890.377	21344
890.501	21207
890.624	21252
890.748	21199
890.871	21150
890.995	20937
891.118	20914
891.241	20990
891.364	21005
891.488	21272
891.611	21081
891.734	21055
891.857	20979
891.98	21051
892.103	20979
892.226	20963
892.349	20952
892.471	20823
892.594	20880
892.717	20944
892.839	20857
892.962	21001
893.085	20982
893.207	20937
893.33	20750
893.452	20769
893.575	20948
893.697	20811
893.819	21005
893.941	21176
894.064	20986
894.186	20887
894.308	20762
894.43	20979
894.552	21024
894.674	21017
894.796	20804
894.918	20918
895.04	20796
895.161	20986
895.283	20906
895.405	20887
895.526	20804
895.648	20880
895.769	21142
895.891	20975
896.012	20921
896.134	21009
896.255	20876
896.376	20876
896.498	20876
896.619	20971
896.74	20918
896.861	20933
896.982	21195
897.103	21435
897.224	21131
897.345	21112
897.466	20948
897.587	21039
897.708	21218
897.828	21157
897.949	21127
898.07	20914
898.19	21024
898.311	21116
898.431	21066
898.552	20990
898.672	21077
898.792	21218
898.913	21066
899.033	20921
899.153	20944
899.273	20727
899.393	20906
899.513	20830
899.633	20826
899.753	20857
899.873	20750
899.993	20777
900.113	20651
900.232	20804
900.352	20667
900.472	20670
900.591	20594
900.711	20621
900.83	20564
900.95	20674
901.069	20670
901.189	20480
901.308	20233
901.427	20191
901.546	20210
901.665	20221
901.784	20164
901.904	20081
902.023	19868
902.141	19780
902.26	19750
902.379	19746
902.498	19769
902.617	19624
902.735	19655
902.854	19601
902.973	19605
903.091	19362
903.21	19388
903.328	19365
903.446	19293
903.565	19156
903.683	19114
903.801	19000
903.919	19080
904.038	19118
904.156	18916
904.274	18981
904.392	18798
904.51	18848
904.627	18901
904.745	18856
904.863	19019
904.981	18623
905.098	18513
905.216	18589
905.334	18593
905.451	18547
905.569	18456
905.686	18574
905.803	18525
905.921	18365
906.038	18403
906.155	18429
906.272	18216
906.389	18254
906.506	18155
906.623	18163
906.74	18003
906.857	17946
906.974	18019
907.091	18182
907.208	18159
907.324	18106
907.441	17992
907.557	17851
907.674	17794
907.79	17783
907.907	17859
908.023	17718
908.139	17729
908.256	17722
908.372	17566
908.488	17653
908.604	17509
908.72	17512
908.836	17539
908.952	17429
909.068	17474
909.184	17558
909.3	17520
909.415	17615
909.531	17509
909.647	17200
909.762	17181
909.878	17204
909.993	17227
910.108	17185
910.224	17174
910.339	17045
910.454	17128
910.57	17041
910.685	16881
910.8	17231
910.915	17147
911.03	16991
911.145	16839
911.259	16812
911.374	16702
911.489	16706
911.604	16702
911.718	16504
911.833	16478
911.947	16474
912.062	16352
912.176	16516
912.291	16485
912.405	16641
912.519	16710
912.633	16694
912.748	16626
912.862	16558
912.976	16424
913.09	16287
913.204	16333
913.318	16329
913.431	16497
913.545	16409
913.659	16390
913.772	16257
913.886	16131
914	16192
914.113	16284
914.226	16223
914.34	16071
914.453	15994
914.566	16082
914.68	16036
914.793	15934
914.906	15762
915.019	15679
915.132	15637
915.245	15751
915.358	15766
915.47	15736
915.583	15663
915.696	15656
915.809	15876
915.921	15808
916.034	15800
916.146	15633
916.259	15694
916.371	15778
916.483	15625
916.595	15511
916.708	15538
916.82	15431
916.932	15511
917.044	15469
917.156	15412
917.268	15386
917.38	15389
917.491	15378
917.603	15291
917.715	15485
917.826	15401
917.938	15237
918.049	15211
918.161	15180
918.272	15492
918.384	15416
918.495	15211
918.606	15150
918.717	15017
918.828	15081
918.939	15138
919.05	15020
919.161	15123
919.272	14933
919.383	14941
919.494	15123
919.604	15214
919.715	14990
919.826	14902
919.936	15017
920.047	15093
920.157	15176
920.267	15272
920.378	15039
920.488	15017
920.598	15104
920.708	15256
920.818	15161
920.928	15108
921.038	15355
921.148	15363
921.258	14952
921.368	14853
921.477	14727
921.587	14811
921.697	14705
921.806	14746
921.916	14655
922.025	14404
922.134	14393
922.244	14370
922.353	14415
922.462	14336
922.571	14237
922.68	14100
922.789	14020
922.898	13989
923.007	13982
923.116	14142
923.224	13940
923.333	14031
923.442	14008
923.55	13883
923.659	13791
923.767	13955
923.876	13917
923.984	14039
924.092	13715
924.201	13772
924.309	13750
924.417	13727
924.525	13666
924.633	13704
924.741	14602
924.849	13495
924.956	13552
925.064	13392
925.172	13373
925.279	13510
925.387	13400
925.494	13480
925.602	13578
925.709	13468
925.816	13293
925.924	13377
926.031	13453
926.138	13362
926.245	13419
926.352	13301
926.459	13422
926.566	13362
926.673	13297
926.779	13038
926.886	13225
926.993	13069
927.099	13057
927.206	12924
927.312	12886
927.419	12928
927.525	13000
927.631	13050
927.737	12856
927.843	12753
927.95	12696
928.056	12821
928.162	12802
928.267	12791
928.373	13350
928.479	12871
928.585	12646
928.69	12810
928.796	12814
928.901	12589
929.007	12563
929.112	12555
929.218	12578
929.323	12509
929.428	12528
929.533	12623
929.638	12445
929.743	12441
929.848	12479
929.953	12456
930.058	12334
930.163	12254
930.267	12235
930.372	12273
930.477	12129
930.581	12342
930.685	12235
930.79	12022
930.894	12110
930.998	12053
931.103	12136
931.207	11752
931.311	11760
931.415	11653
931.519	11406
931.623	11410
