Data from test_V78500241_160.txt Node
Date: Fri Mar 25 15:42:54 CST 2022
User: usil
Spectrometer: V785-0024
Trigger mode: 0
Integration Time (sec): 4.000000E-1
Scans to average: 1
Nonlinearity correction enabled: false
Boxcar width: 0
Storing dark spectrum: false
XAxis mode: Wavelengths
Number of Pixels in Spectrum: 1024
>>>>>Begin Spectral Data<<<<<
801.071	29258
801.214	29128
801.356	28949
801.499	28919
801.641	28828
801.783	28782
801.926	28812
802.068	28687
802.211	28656
802.353	28615
802.496	28310
802.638	28447
802.78	28382
802.923	28390
803.065	28177
803.208	28367
803.35	28417
803.492	28447
803.635	28698
803.777	28573
803.919	28470
804.061	28854
804.204	28611
804.346	28421
804.488	28287
804.63	28512
804.773	28356
804.915	28432
805.057	28481
805.199	28527
805.341	28485
805.483	28550
805.626	28596
805.768	28371
805.91	28675
806.052	28725
806.194	28523
806.336	28691
806.478	28424
806.62	28569
806.762	28565
806.904	28896
807.046	29071
807.188	28828
807.33	28999
807.472	28862
807.614	28888
807.756	28843
807.898	28888
808.04	28653
808.182	28713
808.324	28752
808.465	28930
808.607	28930
808.749	29071
808.891	29178
809.033	29212
809.174	29041
809.316	29083
809.458	29113
809.6	29204
809.741	29185
809.883	29345
810.025	29299
810.166	29318
810.308	29440
810.45	29345
810.591	29326
810.733	29113
810.875	29052
811.016	28908
811.158	29136
811.299	29220
811.441	29227
811.582	29364
811.724	29143
811.865	28972
812.007	28999
812.148	29124
812.29	29117
812.431	29178
812.573	29372
812.714	29570
812.855	29497
812.997	29585
813.138	29859
813.279	29707
813.421	29695
813.562	29566
813.703	29303
813.845	29303
813.986	29025
814.127	28725
814.268	28729
814.41	28839
814.551	28774
814.692	28702
814.833	28607
814.974	28611
815.115	28634
815.256	28584
815.397	28363
815.539	28447
815.68	28375
815.821	28401
815.962	28561
816.103	28455
816.244	28306
816.385	28135
816.526	28112
816.666	27899
816.807	27949
816.948	27838
817.089	27998
817.23	27926
817.371	27888
817.512	27762
817.653	27797
817.793	27781
817.934	27838
818.075	27751
818.216	27846
818.356	27835
818.497	27572
818.638	27469
818.778	27622
818.919	27488
819.06	27561
819.2	27675
819.341	27785
819.481	27732
819.622	27922
819.762	27975
819.903	27857
820.043	27899
820.184	27914
820.324	27789
820.465	27911
820.605	27785
820.746	27709
820.886	27629
821.026	27675
821.167	27793
821.307	27804
821.447	27679
821.588	27606
821.728	27466
821.868	27283
822.008	27112
822.149	27169
822.289	27127
822.429	26963
822.569	26762
822.709	26811
822.849	26590
822.99	26689
823.13	26556
823.27	26617
823.41	26286
823.55	26336
823.69	26434
823.83	26419
823.97	26214
824.11	26180
824.25	26126
824.389	26343
824.529	26263
824.669	26157
824.809	26278
824.949	26309
825.089	26218
825.228	26271
825.368	26016
825.508	25974
825.648	26058
825.787	26130
825.927	26122
826.067	26027
826.206	25978
826.346	26126
826.485	26122
826.625	26103
826.765	26126
826.904	25913
827.044	25772
827.183	25852
827.323	25776
827.462	25723
827.601	25799
827.741	25712
827.88	25788
828.02	25533
828.159	25575
828.298	25704
828.437	25689
828.577	25533
828.716	25685
828.855	25662
828.994	25400
829.134	25434
829.273	25411
829.412	25430
829.551	25236
829.69	25282
829.829	25339
829.968	25350
830.107	25460
830.246	25453
830.385	25266
830.524	25289
830.663	25103
830.802	24947
830.941	24863
831.08	24871
831.219	24973
831.357	25004
831.496	25019
831.635	24875
831.774	24848
831.913	24764
832.051	24821
832.19	24604
832.329	24631
832.467	24601
832.606	24445
832.744	24513
832.883	24589
833.022	24559
833.16	24502
833.299	24604
833.437	24490
833.576	24612
833.714	24410
833.852	24700
833.991	24494
834.129	24681
834.267	24555
834.406	24540
834.544	24608
834.682	24585
834.821	24429
834.959	24795
835.097	24555
835.235	24582
835.373	24330
835.511	24452
835.65	24315
835.788	24346
835.926	24270
836.064	24159
836.202	24163
836.34	24315
836.478	24479
836.615	24220
836.753	24445
836.891	24376
837.029	24407
837.167	24251
837.305	24273
837.443	24205
837.58	24159
837.718	24258
837.856	24125
837.993	24026
838.131	24095
838.269	24038
838.406	24102
838.544	24041
838.681	23718
838.819	23691
838.956	23543
839.094	23687
839.231	23600
839.369	23798
839.506	23908
839.643	23764
839.781	23600
839.918	23421
840.055	23520
840.193	23520
840.33	23448
840.467	23452
840.604	23490
840.742	23779
840.879	23349
841.016	23299
841.153	23284
841.29	23509
841.427	23509
841.564	23512
841.701	23402
841.838	23315
841.975	23280
842.112	23417
842.249	23277
842.385	23185
842.522	23398
842.659	23284
842.796	23143
842.933	23090
843.069	23109
843.206	23044
843.343	23246
843.479	23216
843.616	23242
843.752	22778
843.889	22946
844.025	23067
844.162	22889
844.298	22987
844.435	22972
844.571	22755
844.708	22869
844.844	23010
844.98	22949
845.117	22976
845.253	22801
845.389	22721
845.525	22797
845.661	22668
845.798	22603
845.934	22603
846.07	22577
846.206	22584
846.342	22713
846.478	22546
846.614	22428
846.75	22333
846.886	22322
847.022	22440
847.158	22363
847.294	22204
847.429	22451
847.565	22223
847.701	22500
847.837	22055
847.972	22010
848.108	22154
848.244	22150
848.379	21956
848.515	21937
848.65	21842
848.786	21800
848.921	21937
849.057	21979
849.192	22055
849.328	21823
849.463	21888
849.598	21808
849.734	21857
849.869	21720
850.004	21542
850.14	21534
850.275	21622
850.41	21492
850.545	21401
850.68	21606
850.815	21648
850.95	21652
851.085	21739
851.22	21709
851.355	21633
851.49	21500
851.625	21603
851.76	21561
851.895	21477
852.03	21641
852.165	21557
852.299	21648
852.434	21671
852.569	21515
852.703	21652
852.838	21663
852.973	21724
853.107	21686
853.242	21530
853.376	21359
853.511	21275
853.645	21310
853.78	21572
853.914	21317
854.048	21386
854.183	21279
854.317	21454
854.451	21519
854.585	21351
854.72	21378
854.854	21454
854.988	21237
855.122	21355
855.256	21268
855.39	21378
855.524	21450
855.658	21408
855.792	21504
855.926	21435
856.06	21477
856.194	21435
856.327	21447
856.461	21317
856.595	21249
856.729	21336
856.862	21428
856.996	21370
857.13	21443
857.263	21431
857.397	21492
857.53	21317
857.664	21321
857.797	21378
857.931	21469
858.064	21256
858.197	21424
858.331	21298
858.464	21245
858.597	21192
858.731	21302
858.864	21294
858.997	21325
859.13	21359
859.263	21405
859.396	21359
859.529	21176
859.662	21192
859.795	21214
859.928	21325
860.061	21576
860.194	21538
860.327	21344
860.46	21500
860.592	21504
860.725	21515
860.858	21538
860.99	21332
861.123	21252
861.256	21233
861.388	21382
861.521	21861
861.653	21032
861.786	21142
861.918	21096
862.05	21351
862.183	21412
862.315	21359
862.447	21397
862.58	21462
862.712	21104
862.844	21093
862.976	21245
863.108	21142
863.24	21401
863.372	20891
863.504	21047
863.636	21036
863.768	21001
863.9	21077
864.032	20963
864.164	20982
864.296	21203
864.428	21093
864.559	21104
864.691	21154
864.823	21043
864.954	20880
865.086	21017
865.217	20902
865.349	20781
865.48	20815
865.612	20933
865.743	20975
865.875	20963
866.006	20838
866.137	20914
866.269	20853
866.4	20857
866.531	20796
866.662	20895
866.793	20845
866.924	20868
867.055	20845
867.186	20727
867.317	20807
867.448	20815
867.579	20872
867.71	20674
867.841	20800
867.972	20853
868.103	20781
868.233	20705
868.364	20815
868.495	20899
868.625	21077
868.756	21047
868.886	21119
869.017	20986
869.147	21085
869.278	21154
869.408	21043
869.539	21036
869.669	21104
869.799	21108
869.929	21131
870.06	21058
870.19	21405
870.32	21348
870.45	21389
870.58	21496
870.71	21549
870.84	21511
870.97	21435
871.1	21542
871.23	21557
871.36	21663
871.489	21561
871.619	21603
871.749	21618
871.879	21701
872.008	21797
872.138	21663
872.267	21717
872.397	21507
872.526	21496
872.656	21492
872.785	21576
872.915	21629
873.044	21717
873.173	21728
873.303	21526
873.432	21599
873.561	21694
873.69	21717
873.819	21808
873.948	21698
874.077	21545
874.206	21625
874.335	21720
874.464	21762
874.593	21918
874.722	21884
874.851	21873
874.979	22036
875.108	21968
875.237	21808
875.365	21842
875.494	21804
875.623	21987
875.751	21854
875.88	21979
876.008	21945
876.136	22211
876.265	22348
876.393	22405
876.521	22352
876.65	22379
876.778	22196
876.906	22223
877.034	22181
877.162	22329
877.29	22204
877.418	22257
877.546	22246
877.674	22363
877.802	22284
877.93	22128
878.058	22188
878.185	22188
878.313	22253
878.441	22211
878.568	22109
878.696	22303
878.824	22398
878.951	22382
879.079	22447
879.206	22447
879.333	22455
879.461	22314
879.588	22405
879.715	22531
879.842	22622
879.97	22390
880.097	22131
880.224	22044
880.351	22139
880.478	22246
880.605	22059
880.732	22090
880.859	22280
880.986	22188
881.112	22109
881.239	21975
881.366	21842
881.493	21759
881.619	21762
881.746	21751
881.872	21644
881.999	21591
882.125	21572
882.252	21808
882.378	21724
882.505	21717
882.631	21542
882.757	21462
882.883	21458
883.01	21431
883.136	21355
883.262	21252
883.388	21317
883.514	21450
883.64	21447
883.766	21389
883.892	21180
884.018	21192
884.143	21344
884.269	21504
884.395	21089
884.52	21036
884.646	21043
884.772	20998
884.897	20891
885.023	21058
885.148	21085
885.274	21150
885.399	21005
885.524	21017
885.65	20994
885.775	21112
885.9	20963
886.025	21085
886.15	21138
886.275	20990
886.4	20842
886.525	20906
886.65	21051
886.775	21017
886.9	21104
887.025	21195
887.149	20944
887.274	20845
887.399	20743
887.523	20678
887.648	20636
887.773	20632
887.897	20689
888.021	20777
888.146	20712
888.27	20785
888.395	20857
888.519	20819
888.643	20758
888.767	20785
888.891	20724
889.015	20632
889.139	20697
889.263	20609
889.387	20686
889.511	20807
889.635	20758
889.759	20571
889.883	20583
890.006	20495
890.13	20609
890.254	20431
890.377	20492
890.501	20256
890.624	20290
890.748	20358
890.871	20077
890.995	20172
891.118	20103
891.241	20081
891.364	20130
891.488	20206
891.611	20119
891.734	20111
891.857	20103
891.98	20103
892.103	20172
892.226	20111
892.349	20081
892.471	19921
892.594	20142
892.717	20058
892.839	20012
892.962	20054
893.085	20142
893.207	20058
893.33	19887
893.452	19982
893.575	20111
893.697	20027
893.819	20225
893.941	20164
894.064	20130
894.186	19986
894.308	19932
894.43	20164
894.552	20210
894.674	20187
894.796	19955
894.918	19970
895.04	19963
895.161	19993
895.283	20164
895.405	19974
895.526	20058
895.648	20092
895.769	20100
895.891	20111
896.012	20176
896.134	19970
896.255	20046
896.376	20081
896.498	20096
896.619	20149
896.74	20035
896.861	20172
896.982	20309
897.103	20511
897.224	20347
897.345	20317
897.466	20157
897.587	20320
897.708	20339
897.828	20298
897.949	20256
898.07	20134
898.19	20210
898.311	20286
898.431	20145
898.552	20191
898.672	20294
898.792	20339
898.913	20206
899.033	20088
899.153	20012
899.273	19917
899.393	20012
899.513	20024
899.633	19947
899.753	19997
899.873	19890
899.993	20005
900.113	19887
900.232	19928
900.352	19913
900.472	19799
900.591	19628
900.711	19795
900.83	19769
900.95	19845
901.069	19883
901.189	19712
901.308	19384
901.427	19285
901.546	19343
901.665	19316
901.784	19358
901.904	19194
902.023	19107
902.141	19038
902.26	18894
902.379	18977
902.498	18802
902.617	18909
902.735	18821
902.854	18730
902.973	18677
903.091	18475
903.21	18521
903.328	18547
903.446	18460
903.565	18315
903.683	18323
903.801	18190
903.919	18296
904.038	18270
904.156	18076
904.274	18133
904.392	18068
904.51	18117
904.627	18019
904.745	18114
904.863	18102
904.981	17832
905.098	17661
905.216	17600
905.334	17859
905.451	17687
905.569	17687
905.686	17779
905.803	17798
905.921	17592
906.038	17577
906.155	17448
906.272	17284
906.389	17364
906.506	17318
906.623	17277
906.74	17178
906.857	17155
906.974	17124
907.091	17212
907.208	17391
907.324	17181
907.441	17151
907.557	17022
907.674	17022
907.79	16858
907.907	16835
908.023	16946
908.139	16881
908.256	16919
908.372	16908
908.488	16805
908.604	16698
908.72	16565
908.836	16668
908.952	16603
909.068	16577
909.184	16634
909.3	16580
909.415	16679
909.531	16656
909.647	16318
909.762	16329
909.878	16333
909.993	16303
910.108	16226
910.224	16322
910.339	16363
910.454	16154
910.57	16112
910.685	16063
910.8	16303
910.915	16299
911.03	16128
911.145	15994
911.259	15911
911.374	15922
911.489	15934
911.604	15717
911.718	15660
911.833	15690
911.947	15572
912.062	15500
912.176	15614
912.291	15694
912.405	15644
912.519	15785
912.633	15816
912.748	15728
912.862	15637
912.976	15515
913.09	15249
913.204	15401
913.318	15469
913.431	15523
913.545	15504
913.659	15610
913.772	15416
913.886	15161
914	15218
914.113	15386
914.226	15363
914.34	15241
914.453	15157
914.566	15233
914.68	15192
914.793	15138
914.906	15001
915.019	14872
915.132	14830
915.245	14937
915.358	14979
915.47	14845
915.583	14963
915.696	14906
915.809	14986
915.921	15047
916.034	14857
916.146	14731
916.259	14826
916.371	14773
916.483	14777
916.595	14655
916.708	14762
916.82	14644
916.932	14678
917.044	14602
917.156	14621
917.268	14575
917.38	14469
917.491	14469
917.603	14579
917.715	14621
917.826	14541
917.938	14503
918.049	14396
918.161	14355
918.272	14617
918.384	14499
918.495	14412
918.606	14370
918.717	14180
918.828	14294
918.939	14313
919.05	14172
919.161	14210
919.272	14096
919.383	14088
919.494	14256
919.604	14480
919.715	14233
919.826	14119
919.936	14199
920.047	14286
920.157	14294
920.267	14427
920.378	14210
920.488	14145
920.598	14393
920.708	14514
920.818	14358
920.928	14408
921.038	14587
921.148	14377
921.258	14149
921.368	14115
921.477	14005
921.587	13936
921.697	13791
921.806	13909
921.916	13757
922.025	13636
922.134	13666
922.244	13540
922.353	13601
922.462	13400
922.571	13445
922.68	13259
922.789	13278
922.898	13232
923.007	13129
923.116	13278
923.224	13149
923.333	13289
923.442	13187
923.55	13050
923.659	13133
923.767	13072
923.876	12970
923.984	13145
924.092	12935
924.201	12996
924.309	12913
924.417	12966
924.525	12844
924.633	12894
924.741	13658
924.849	12764
924.956	12840
925.064	12730
925.172	12627
925.279	12665
925.387	12715
925.494	12764
925.602	12905
925.709	12715
925.816	12578
925.924	12608
926.031	12711
926.138	12688
926.245	12677
926.352	12566
926.459	12654
926.566	12779
926.673	12551
926.779	12502
926.886	12452
926.993	12266
927.099	12300
927.206	12266
927.312	12289
927.419	12273
927.525	12190
927.631	12334
927.737	12235
927.843	12091
927.95	12057
928.056	12129
928.162	12114
928.267	12197
928.373	12726
928.479	12213
928.585	12015
928.69	12087
928.796	12133
928.901	11897
929.007	11741
929.112	11977
929.218	11939
929.323	11783
929.428	11863
929.533	11977
929.638	11703
929.743	11737
929.848	11851
929.953	11786
930.058	11623
930.163	11497
930.267	11558
930.372	11608
930.477	11455
930.581	11851
930.685	11505
930.79	11429
930.894	11433
930.998	11345
931.103	11467
931.207	11113
931.311	11075
931.415	10938
931.519	10801
931.623	10767
