Data from test_V78500241_1016.txt Node
Date: Fri Mar 25 15:48:50 CST 2022
User: usil
Spectrometer: V785-0024
Trigger mode: 0
Integration Time (sec): 4.000000E-1
Scans to average: 1
Nonlinearity correction enabled: false
Boxcar width: 0
Storing dark spectrum: false
XAxis mode: Wavelengths
Number of Pixels in Spectrum: 1024
>>>>>Begin Spectral Data<<<<<
801.071	28253
801.214	28067
801.356	27846
801.499	27918
801.641	27679
801.783	27660
801.926	27717
802.068	27686
802.211	27561
802.353	27606
802.496	27416
802.638	27473
802.78	27306
802.923	27363
803.065	27291
803.208	27420
803.35	27378
803.492	27443
803.635	27526
803.777	27386
803.919	27530
804.061	27953
804.204	27572
804.346	27625
804.488	27462
804.63	27549
804.773	27542
804.915	27504
805.057	27682
805.199	27561
805.341	27732
805.483	27728
805.626	27679
805.768	27557
805.91	27663
806.052	27728
806.194	27797
806.336	27930
806.478	27736
806.62	27751
806.762	27831
806.904	27994
807.046	28226
807.188	28169
807.33	28204
807.472	28169
807.614	28017
807.756	28010
807.898	27994
808.04	28063
808.182	27964
808.324	27968
808.465	28051
808.607	28265
808.749	28325
808.891	28443
809.033	28725
809.174	28546
809.316	28291
809.458	28280
809.6	28394
809.741	28405
809.883	28557
810.025	28702
810.166	28793
810.308	28656
810.45	28615
810.591	28641
810.733	28592
810.875	28356
811.016	28188
811.158	28348
811.299	28550
811.441	28668
811.582	28481
811.724	28470
811.865	28466
812.007	28363
812.148	28459
812.29	28470
812.431	28767
812.573	28729
812.714	28767
812.855	28881
812.997	29052
813.138	29029
813.279	28953
813.421	28850
813.562	28847
813.703	28679
813.845	28672
813.986	28306
814.127	28249
814.268	28131
814.41	28143
814.551	28135
814.692	28181
814.833	28207
814.974	28112
815.115	28116
815.256	28029
815.397	27899
815.539	28002
815.68	27994
815.821	27812
815.962	27911
816.103	27918
816.244	27854
816.385	27717
816.526	27644
816.666	27545
816.807	27378
816.948	27477
817.089	27606
817.23	27530
817.371	27405
817.512	27477
817.653	27397
817.793	27382
817.934	27348
818.075	27351
818.216	27469
818.356	27485
818.497	27264
818.638	27108
818.778	27173
818.919	27062
819.06	27203
819.2	27222
819.341	27408
819.481	27447
819.622	27519
819.762	27759
819.903	27701
820.043	27568
820.184	27606
820.324	27458
820.465	27534
820.605	27595
820.746	27515
820.886	27412
821.026	27622
821.167	27435
821.307	27576
821.447	27477
821.588	27302
821.728	27214
821.868	27047
822.008	26998
822.149	26842
822.289	26918
822.429	26632
822.569	26587
822.709	26606
822.849	26541
822.99	26419
823.13	26278
823.27	26233
823.41	26252
823.55	26153
823.69	26237
823.83	26263
823.97	26119
824.11	25959
824.25	25925
824.389	26027
824.529	26054
824.669	26005
824.809	26221
824.949	26103
825.089	26111
825.228	26039
825.368	25898
825.508	25864
825.648	25845
825.787	25944
825.927	26031
826.067	25932
826.206	25906
826.346	26050
826.485	25944
826.625	25936
826.765	26027
826.904	25928
827.044	25799
827.183	25624
827.323	25677
827.462	25597
827.601	25620
827.741	25647
827.88	25556
828.02	25514
828.159	25582
828.298	25628
828.437	25734
828.577	25407
828.716	25647
828.855	25540
828.994	25419
829.134	25278
829.273	25320
829.412	25247
829.551	25110
829.69	25179
829.829	25430
829.968	25407
830.107	25422
830.246	25244
830.385	25316
830.524	25255
830.663	25209
830.802	25034
830.941	25034
831.08	24928
831.219	25015
831.357	25004
831.496	25156
831.635	24859
831.774	24852
831.913	24844
832.051	24745
832.19	24760
832.329	24688
832.467	24494
832.606	24589
832.744	24563
832.883	24505
833.022	24456
833.16	24665
833.299	24593
833.437	24612
833.576	24669
833.714	24749
833.852	24661
833.991	24757
834.129	24635
834.267	24692
834.406	24574
834.544	24608
834.682	24525
834.821	24620
834.959	24764
835.097	24547
835.235	24684
835.373	24547
835.511	24677
835.65	24433
835.788	24464
835.926	24289
836.064	24304
836.202	24239
836.34	24536
836.478	24536
836.615	24464
836.753	24403
836.891	24631
837.029	24456
837.167	24517
837.305	24365
837.443	24410
837.58	24251
837.718	24380
837.856	24429
837.993	24258
838.131	24235
838.269	24209
838.406	24197
838.544	24148
838.681	23942
838.819	23920
838.956	23733
839.094	23863
839.231	23885
839.369	23923
839.506	24110
839.643	23996
839.781	23828
839.918	23809
840.055	23855
840.193	23832
840.33	23733
840.467	23786
840.604	23771
840.742	24038
840.879	23646
841.016	23608
841.153	23554
841.29	23798
841.427	23794
841.564	23710
841.701	23661
841.838	23672
841.975	23562
842.112	23611
842.249	23505
842.385	23493
842.522	23687
842.659	23509
842.796	23398
842.933	23474
843.069	23345
843.206	23402
843.343	23429
843.479	23391
843.616	23383
843.752	23185
843.889	23280
844.025	23368
844.162	23273
844.298	23368
844.435	23220
844.571	23113
844.708	23197
844.844	23376
844.98	23307
845.117	23360
845.253	23121
845.389	23018
845.525	23155
845.661	23006
845.798	22938
845.934	22965
846.07	22957
846.206	22904
846.342	22984
846.478	22938
846.614	22733
846.75	22523
846.886	22733
847.022	22725
847.158	22733
847.294	22569
847.429	22615
847.565	22641
847.701	22824
847.837	22447
847.972	22306
848.108	22481
848.244	22584
848.379	22386
848.515	22219
848.65	22284
848.786	22223
848.921	22306
849.057	22402
849.192	22318
849.328	22356
849.463	22284
849.598	22234
849.734	22181
849.869	22105
850.004	22017
850.14	22139
850.275	21983
850.41	21937
850.545	21991
850.68	21922
850.815	22090
850.95	21983
851.085	22181
851.22	22185
851.355	21987
851.49	21968
851.625	22059
851.76	22101
851.895	21941
852.03	21964
852.165	22013
852.299	22036
852.434	22181
852.569	22032
852.703	21972
852.838	21991
852.973	22200
853.107	22036
853.242	22059
853.376	21861
853.511	21747
853.645	21831
853.78	22010
853.914	21937
854.048	21819
854.183	21876
854.317	21884
854.451	21956
854.585	21892
854.72	21797
854.854	21918
854.988	21732
855.122	21835
855.256	21580
855.39	21892
855.524	21884
855.658	21861
855.792	21766
855.926	21846
856.06	21762
856.194	21934
856.327	21785
856.461	21755
856.595	21793
856.729	21804
856.862	21823
856.996	21934
857.13	21945
857.263	21949
857.397	21922
857.53	21709
857.664	21975
857.797	21888
857.931	21937
858.064	21964
858.197	22021
858.331	21823
858.464	21785
858.597	21720
858.731	21850
858.864	21781
858.997	21781
859.13	21861
859.263	21785
859.396	21922
859.529	21816
859.662	21907
859.795	21865
859.928	21759
860.061	22116
860.194	22040
860.327	21972
860.46	21800
860.592	22048
860.725	22017
860.858	22010
860.99	21827
861.123	21850
861.256	21770
861.388	21869
861.521	22603
861.653	21591
861.786	21686
861.918	21762
862.05	21789
862.183	21854
862.315	21789
862.447	21964
862.58	21842
862.712	21652
862.844	21447
862.976	21660
863.108	21557
863.24	21956
863.372	21557
863.504	21515
863.636	21530
863.768	21587
863.9	21652
864.032	21420
864.164	21553
864.296	21656
864.428	21690
864.559	21572
864.691	21557
864.823	21644
864.954	21424
865.086	21545
865.217	21492
865.349	21389
865.48	21439
865.612	21340
865.743	21515
865.875	21439
866.006	21496
866.137	21408
866.269	21538
866.4	21603
866.531	21408
866.662	21477
866.793	21351
866.924	21313
867.055	21523
867.186	21386
867.317	21443
867.448	21211
867.579	21325
867.71	21207
867.841	21214
867.972	21397
868.103	21447
868.233	21412
868.364	21450
868.495	21363
868.625	21663
868.756	21625
868.886	21603
869.017	21530
869.147	21690
869.278	21690
869.408	21698
869.539	21583
869.669	21652
869.799	21793
869.929	21732
870.06	21709
870.19	21926
870.32	21892
870.45	21903
870.58	22070
870.71	22006
870.84	22063
870.97	21903
871.1	21983
871.23	22215
871.36	22280
871.489	22124
871.619	22192
871.749	22169
871.879	22169
872.008	22295
872.138	22166
872.267	22143
872.397	22181
872.526	22025
872.656	22074
872.785	21972
872.915	22158
873.044	22363
873.173	22280
873.303	22158
873.432	22325
873.561	22394
873.69	22310
873.819	22303
873.948	22337
874.077	22177
874.206	22207
874.335	22352
874.464	22310
874.593	22451
874.722	22398
874.851	22542
874.979	22398
875.108	22592
875.237	22538
875.365	22344
875.494	22485
875.623	22637
875.751	22489
875.88	22424
876.008	22607
876.136	22622
876.265	22877
876.393	23029
876.521	22938
876.65	23022
876.778	22881
876.906	22740
877.034	22847
877.162	22706
877.29	22748
877.418	22858
877.546	22752
877.674	22763
877.802	22782
877.93	22797
878.058	22831
878.185	22588
878.313	22763
878.441	22748
878.568	22565
878.696	22725
878.824	22812
878.951	22847
879.079	22976
879.206	23090
879.333	22866
879.461	22790
879.588	22828
879.715	22953
879.842	23075
879.97	22923
880.097	22535
880.224	22611
880.351	22713
880.478	22653
880.605	22615
880.732	22542
880.859	22885
880.986	22565
881.112	22645
881.239	22615
881.366	22379
881.493	22398
881.619	22379
881.746	22196
881.872	22223
881.999	22097
882.125	22006
882.252	22185
882.378	22215
882.505	22280
882.631	21979
882.757	22006
882.883	21937
883.01	21922
883.136	21880
883.262	21793
883.388	21663
883.514	21888
883.64	21972
883.766	21736
883.892	21610
884.018	21644
884.143	21800
884.269	21785
884.395	21511
884.52	21515
884.646	21485
884.772	21389
884.897	21447
885.023	21431
885.148	21739
885.274	21728
885.399	21580
885.524	21481
885.65	21572
885.775	21488
885.9	21618
886.025	21504
886.15	21572
886.275	21507
886.4	21370
886.525	21492
886.65	21386
886.775	21431
886.9	21694
887.025	21797
887.149	21553
887.274	21408
887.399	21374
887.523	21199
887.648	21272
887.773	21112
887.897	21336
888.021	21317
888.146	21169
888.27	21336
888.395	21382
888.519	21218
888.643	21325
888.767	21264
888.891	21184
889.015	20998
889.139	21180
889.263	21116
889.387	21165
889.511	21211
889.635	21081
889.759	21051
889.883	20990
890.006	21089
890.13	21203
890.254	20887
890.377	21009
890.501	20979
890.624	20746
890.748	20792
890.871	20739
890.995	20648
891.118	20545
891.241	20609
891.364	20693
891.488	20785
891.611	20511
891.734	20526
891.857	20697
891.98	20617
892.103	20629
892.226	20621
892.349	20651
892.471	20355
892.594	20590
892.717	20625
892.839	20556
892.962	20606
893.085	20564
893.207	20571
893.33	20476
893.452	20408
893.575	20499
893.697	20511
893.819	20636
893.941	20689
894.064	20739
894.186	20343
894.308	20473
894.43	20484
894.552	20609
894.674	20617
894.796	20560
894.918	20476
895.04	20613
895.161	20636
895.283	20621
895.405	20419
895.526	20423
895.648	20473
895.769	20530
895.891	20522
896.012	20629
896.134	20617
896.255	20438
896.376	20419
896.498	20457
896.619	20530
896.74	20526
896.861	20621
896.982	20845
897.103	20956
897.224	20804
897.345	20735
897.466	20640
897.587	20697
897.708	20823
897.828	20781
897.949	20655
898.07	20503
898.19	20579
898.311	20902
898.431	20693
898.552	20670
898.672	20785
898.792	20895
898.913	20697
899.033	20640
899.153	20511
899.273	20374
899.393	20389
899.513	20476
899.633	20415
899.753	20507
899.873	20454
899.993	20503
900.113	20415
900.232	20530
900.352	20355
900.472	20355
900.591	20202
900.711	20343
900.83	20195
900.95	20263
901.069	20336
901.189	20214
901.308	19875
901.427	19818
901.546	19727
901.665	19871
901.784	19765
901.904	19696
902.023	19674
902.141	19453
902.26	19426
902.379	19411
902.498	19293
902.617	19251
902.735	19327
902.854	19312
902.973	19240
903.091	19107
903.21	18916
903.328	19023
903.446	18810
903.565	18825
903.683	18798
903.801	18703
903.919	18722
904.038	18684
904.156	18585
904.274	18692
904.392	18589
904.51	18483
904.627	18574
904.745	18498
904.863	18574
904.981	18513
905.098	18209
905.216	18220
905.334	18273
905.451	18220
905.569	18258
905.686	18300
905.803	18251
905.921	18106
906.038	18129
906.155	18125
906.272	17984
906.389	18015
906.506	17684
906.623	17714
906.74	17760
906.857	17570
906.974	17657
907.091	17851
907.208	17805
907.324	17760
907.441	17707
907.557	17471
907.674	17455
907.79	17478
907.907	17440
908.023	17585
908.139	17478
908.256	17387
908.372	17368
908.488	17330
908.604	17254
908.72	17140
908.836	17258
908.952	17151
909.068	17193
909.184	17288
909.3	17174
909.415	17288
909.531	17296
909.647	16915
909.762	16942
909.878	16885
909.993	16980
910.108	16919
910.224	16900
910.339	16873
910.454	16713
910.57	16778
910.685	16691
910.8	16968
910.915	16904
911.03	16588
911.145	16542
911.259	16493
911.374	16512
911.489	16516
911.604	16360
911.718	16257
911.833	16246
911.947	16025
912.062	16055
912.176	16265
912.291	16253
912.405	16204
912.519	16424
912.633	16398
912.748	16265
912.862	16154
912.976	16131
913.09	15838
913.204	16021
913.318	15979
913.431	16196
913.545	16147
913.659	16044
913.772	15918
913.886	15812
914	15861
914.113	15884
914.226	15953
914.34	15915
914.453	15728
914.566	15800
914.68	15743
914.793	15629
914.906	15530
915.019	15473
915.132	15332
915.245	15405
915.358	15397
915.47	15340
915.583	15359
915.696	15359
915.809	15542
915.921	15576
916.034	15439
916.146	15283
916.259	15363
916.371	15424
916.483	15469
916.595	15218
916.708	15237
916.82	15283
916.932	15214
917.044	15135
917.156	15218
917.268	15123
917.38	15028
917.491	15055
917.603	15058
917.715	15138
917.826	15116
917.938	15001
918.049	14910
918.161	15043
918.272	15165
918.384	15184
918.495	15020
918.606	14887
918.717	14895
918.828	14963
918.939	14876
919.05	14823
919.161	14781
919.272	14533
919.383	14785
919.494	14921
919.604	15032
919.715	14743
919.826	14590
919.936	14826
920.047	14933
920.157	14796
920.267	14933
920.378	14826
920.488	14762
920.598	14891
920.708	15062
920.818	15001
920.928	14933
921.038	15100
921.148	14982
921.258	14708
921.368	14663
921.477	14579
921.587	14575
921.697	14419
921.806	14579
921.916	14332
922.025	14206
922.134	14183
922.244	14164
922.353	14111
922.462	14012
922.571	13951
922.68	13860
922.789	13746
922.898	13856
923.007	13746
923.116	13841
923.224	13757
923.333	13761
923.442	13662
923.55	13540
923.659	13601
923.767	13780
923.876	13556
923.984	13590
924.092	13537
924.201	13548
924.309	13438
924.417	13601
924.525	13415
924.633	13480
924.741	14240
924.849	13377
924.956	13324
925.064	13171
925.172	13179
925.279	13164
925.387	13293
925.494	13190
925.602	13354
925.709	13247
925.816	13061
925.924	13152
926.031	13244
926.138	13171
926.245	13091
926.352	13034
926.459	13187
926.566	13247
926.673	13103
926.779	12947
926.886	12989
926.993	12817
927.099	12814
927.206	12810
927.312	12673
927.419	12791
927.525	12753
927.631	12768
927.737	12707
927.843	12574
927.95	12532
928.056	12635
928.162	12555
928.267	12620
928.373	13145
928.479	12662
928.585	12353
928.69	12555
928.796	12574
928.901	12372
929.007	12228
929.112	12464
929.218	12441
929.323	12361
929.428	12304
929.533	12494
929.638	12159
929.743	12197
929.848	12220
929.953	12304
930.058	12091
930.163	11961
930.267	12034
930.372	12182
930.477	11893
930.581	12121
930.685	12015
930.79	11847
930.894	11783
930.998	11832
931.103	11969
931.207	11562
931.311	11581
931.415	11395
931.519	11277
931.623	11201
