Data from test_V78500241_3262.txt Node
Date: Fri Mar 25 16:04:23 CST 2022
User: usil
Spectrometer: V785-0024
Trigger mode: 0
Integration Time (sec): 4.000000E-1
Scans to average: 1
Nonlinearity correction enabled: false
Boxcar width: 0
Storing dark spectrum: false
XAxis mode: Wavelengths
Number of Pixels in Spectrum: 1024
>>>>>Begin Spectral Data<<<<<
801.071	28915
801.214	28824
801.356	28580
801.499	28527
801.641	28314
801.783	28436
801.926	28489
802.068	28363
802.211	28344
802.353	28135
802.496	28276
802.638	28188
802.78	28143
802.923	28074
803.065	27854
803.208	28143
803.35	28116
803.492	28181
803.635	28325
803.777	28139
803.919	28394
804.061	28691
804.204	28371
804.346	28276
804.488	28188
804.63	28375
804.773	28230
804.915	28440
805.057	28325
805.199	28329
805.341	28401
805.483	28516
805.626	28485
805.768	28394
805.91	28538
806.052	28451
806.194	28424
806.336	28508
806.478	28497
806.62	28668
806.762	28736
806.904	28862
807.046	29094
807.188	28942
807.33	28843
807.472	28999
807.614	28911
807.756	28938
807.898	28763
808.04	28664
808.182	28717
808.324	28805
808.465	28957
808.607	29155
808.749	29315
808.891	29277
809.033	29246
809.174	29227
809.316	29223
809.458	29414
809.6	29132
809.741	29277
809.883	29383
810.025	29490
810.166	29531
810.308	29349
810.45	29436
810.591	29345
810.733	29181
810.875	29235
811.016	29155
811.158	29143
811.299	29239
811.441	29387
811.582	29227
811.724	29258
811.865	29079
812.007	29216
812.148	29132
812.29	29143
812.431	29410
812.573	29509
812.714	29570
812.855	29741
812.997	29904
813.138	29939
813.279	29828
813.421	29615
813.562	29619
813.703	29509
813.845	29463
813.986	29166
814.127	28946
814.268	29064
814.41	28908
814.551	28850
814.692	28957
814.833	28850
814.974	28869
815.115	28949
815.256	28854
815.397	28759
815.539	28820
815.68	28698
815.821	28759
815.962	28839
816.103	28755
816.244	28626
816.385	28561
816.526	28451
816.666	28344
816.807	28074
816.948	28348
817.089	28246
817.23	28291
817.371	28204
817.512	28169
817.653	28188
817.793	28109
817.934	28295
818.075	28291
818.216	28128
818.356	28029
818.497	28055
818.638	28040
818.778	27975
818.919	28017
819.06	27960
819.2	28135
819.341	28287
819.481	28181
819.622	28466
819.762	28462
819.903	28436
820.043	28443
820.184	28314
820.324	28459
820.465	28440
820.605	28341
820.746	28398
820.886	28280
821.026	28443
821.167	28306
821.307	28310
821.447	28295
821.588	28219
821.728	28093
821.868	27922
822.008	27705
822.149	27705
822.289	27751
822.429	27580
822.569	27439
822.709	27378
822.849	27313
822.99	27272
823.13	27169
823.27	27123
823.41	26940
823.55	27032
823.69	27123
823.83	27146
823.97	26960
824.11	26971
824.25	26785
824.389	26933
824.529	26914
824.669	26902
824.809	26937
824.949	26864
825.089	26948
825.228	26982
825.368	26765
825.508	26819
825.648	26777
825.787	26788
825.927	27066
826.067	26693
826.206	26693
826.346	26777
826.485	26781
826.625	26727
826.765	26956
826.904	26743
827.044	26583
827.183	26594
827.323	26476
827.462	26514
827.601	26606
827.741	26495
827.88	26514
828.02	26324
828.159	26514
828.298	26541
828.437	26571
828.577	26446
828.716	26526
828.855	26374
828.994	26020
829.134	26180
829.273	26218
829.412	26065
829.551	26244
829.69	26240
829.829	26202
829.968	26187
830.107	26244
830.246	26126
830.385	26126
830.524	26062
830.663	25917
830.802	25845
830.941	25845
831.08	25753
831.219	26020
831.357	25894
831.496	25898
831.635	25772
831.774	25677
831.913	25563
832.051	25506
832.19	25479
832.329	25544
832.467	25457
832.606	25445
832.744	25434
832.883	25434
833.022	25434
833.16	25373
833.299	25441
833.437	25434
833.576	25518
833.714	25506
833.852	25537
833.991	25544
834.129	25590
834.267	25586
834.406	25533
834.544	25616
834.682	25449
834.821	25613
834.959	25556
835.097	25582
835.235	25571
835.373	25548
835.511	25537
835.65	25384
835.788	25316
835.926	25183
836.064	25217
836.202	25179
836.34	25365
836.478	25460
836.615	25270
836.753	25331
836.891	25381
837.029	25350
837.167	25213
837.305	25255
837.443	25133
837.58	25209
837.718	25312
837.856	25255
837.993	25103
838.131	25179
838.269	24973
838.406	24992
838.544	25031
838.681	24779
838.819	24829
838.956	24715
839.094	24540
839.231	24642
839.369	24863
839.506	25065
839.643	24875
839.781	24654
839.918	24616
840.055	24642
840.193	24544
840.33	24464
840.467	24566
840.604	24639
840.742	24852
840.879	24376
841.016	24426
841.153	24479
841.29	24612
841.427	24494
841.564	24528
841.701	24547
841.838	24460
841.975	24486
842.112	24486
842.249	24296
842.385	24228
842.522	24513
842.659	24311
842.796	24304
842.933	24262
843.069	24232
843.206	24174
843.343	24330
843.479	24174
843.616	24247
843.752	24098
843.889	24213
844.025	24304
844.162	24041
844.298	24072
844.435	24049
844.571	24034
844.708	23961
844.844	24224
844.98	24129
845.117	24026
845.253	23939
845.389	23927
845.525	23855
845.661	23855
845.798	23790
845.934	23942
846.07	23817
846.206	23783
846.342	23973
846.478	23783
846.614	23741
846.75	23463
846.886	23490
847.022	23691
847.158	23680
847.294	23627
847.429	23554
847.565	23421
847.701	23691
847.837	23311
847.972	23261
848.108	23311
848.244	23288
848.379	23064
848.515	22919
848.65	23117
848.786	23060
848.921	23094
849.057	23265
849.192	23140
849.328	23185
849.463	23033
849.598	23048
849.734	23018
849.869	22885
850.004	22854
850.14	22873
850.275	22938
850.41	22889
850.545	22767
850.68	22717
850.815	22919
850.95	22885
851.085	22938
851.22	23079
851.355	22911
851.49	22919
851.625	22869
851.76	22869
851.895	22694
852.03	22740
852.165	22812
852.299	22763
852.434	22892
852.569	22820
852.703	22767
852.838	22987
852.973	22930
853.107	22968
853.242	22801
853.376	22740
853.511	22599
853.645	22679
853.78	22790
853.914	22729
854.048	22710
854.183	22611
854.317	22626
854.451	22961
854.585	22736
854.72	22611
854.854	22873
854.988	22672
855.122	22828
855.256	22573
855.39	22653
855.524	22740
855.658	22759
855.792	22752
855.926	22698
856.06	22740
856.194	22771
856.327	22592
856.461	22554
856.595	22607
856.729	22645
856.862	22869
856.996	22733
857.13	22713
857.263	22767
857.397	22767
857.53	22664
857.664	22615
857.797	22694
857.931	22763
858.064	22561
858.197	22752
858.331	22637
858.464	22577
858.597	22584
858.731	22694
858.864	22645
858.997	22573
859.13	22698
859.263	22717
859.396	22637
859.529	22687
859.662	22584
859.795	22584
859.928	22626
860.061	22820
860.194	22919
860.327	22759
860.46	22702
860.592	22793
860.725	22820
860.858	22831
860.99	22752
861.123	22694
861.256	22618
861.388	22592
861.521	23391
861.653	22622
861.786	22459
861.918	22413
862.05	22535
862.183	22599
862.315	22580
862.447	22706
862.58	22637
862.712	22428
862.844	22371
862.976	22489
863.108	22569
863.24	22790
863.372	22246
863.504	22367
863.636	22443
863.768	22424
863.9	22230
864.032	22337
864.164	22265
864.296	22284
864.428	22489
864.559	22466
864.691	22459
864.823	22390
864.954	22371
865.086	22314
865.217	22344
865.349	22147
865.48	22200
865.612	22265
865.743	22299
865.875	22318
866.006	22325
866.137	22215
866.269	22188
866.4	22188
866.531	22086
866.662	22166
866.793	22173
866.924	22265
867.055	22082
867.186	22219
867.317	22219
867.448	22162
867.579	22215
867.71	22093
867.841	22036
867.972	22257
868.103	22147
868.233	22230
868.364	22219
868.495	22310
868.625	22447
868.756	22478
868.886	22318
869.017	22329
869.147	22470
869.278	22523
869.408	22367
869.539	22421
869.669	22512
869.799	22440
869.929	22466
870.06	22527
870.19	22774
870.32	22740
870.45	22744
870.58	22786
870.71	22976
870.84	22854
870.97	22850
871.1	22831
871.23	22923
871.36	22968
871.489	22896
871.619	23086
871.749	23075
871.879	23067
872.008	23124
872.138	23003
872.267	23022
872.397	22942
872.526	22908
872.656	22767
872.785	22953
872.915	23098
873.044	23098
873.173	23037
873.303	23060
873.432	23113
873.561	23181
873.69	22957
873.819	22965
873.948	23048
874.077	22976
874.206	22938
874.335	23041
874.464	23140
874.593	23273
874.722	23292
874.851	23277
874.979	23181
875.108	23246
875.237	23197
875.365	23044
875.494	23109
875.623	23318
875.751	23277
875.88	23459
876.008	23311
876.136	23421
876.265	23634
876.393	23885
876.521	23756
876.65	23756
876.778	23585
876.906	23619
877.034	23478
877.162	23657
877.29	23573
877.418	23570
877.546	23611
877.674	23608
877.802	23440
877.93	23611
878.058	23459
878.185	23531
878.313	23566
878.441	23455
878.568	23471
878.696	23630
878.824	23638
878.951	23737
879.079	23737
879.206	23874
879.333	23733
879.461	23653
879.588	23783
879.715	23775
879.842	23843
879.97	23615
880.097	23406
880.224	23425
880.351	23410
880.478	23455
880.605	23471
880.732	23398
880.859	23558
880.986	23471
881.112	23497
881.239	23242
881.366	23155
881.493	23022
881.619	23044
881.746	22957
881.872	22949
881.999	22904
882.125	22858
882.252	22972
882.378	22968
882.505	23037
882.631	22691
882.757	22668
882.883	22637
883.01	22603
883.136	22713
883.262	22500
883.388	22523
883.514	22759
883.64	22603
883.766	22634
883.892	22390
884.018	22443
884.143	22500
884.269	22672
884.395	22382
884.52	22341
884.646	22166
884.772	22226
884.897	22211
885.023	22344
885.148	22462
885.274	22451
885.399	22394
885.524	22234
885.65	22226
885.775	22299
885.9	22284
886.025	22447
886.15	22344
886.275	22246
886.4	22253
886.525	22078
886.65	22128
886.775	22158
886.9	22352
887.025	22413
887.149	22169
887.274	22002
887.399	22002
887.523	21960
887.648	22078
887.773	21903
887.897	22135
888.021	22090
888.146	22112
888.27	22105
888.395	22139
888.519	22048
888.643	22116
888.767	22032
888.891	21953
889.015	21903
889.139	21918
889.263	21751
889.387	21987
889.511	22017
889.635	21964
889.759	21838
889.883	21804
890.006	21800
890.13	21915
890.254	21660
890.377	21778
890.501	21545
890.624	21606
890.748	21450
890.871	21405
890.995	21348
891.118	21412
891.241	21397
891.364	21408
891.488	21576
891.611	21408
891.734	21336
891.857	21488
891.98	21351
892.103	21367
892.226	21291
892.349	21298
892.471	21150
892.594	21302
892.717	21325
892.839	21260
892.962	21207
893.085	21245
893.207	21241
893.33	21131
893.452	21211
893.575	21256
893.697	21096
893.819	21386
893.941	21466
894.064	21481
894.186	21222
894.308	21184
894.43	21405
894.552	21420
894.674	21393
894.796	21135
894.918	21355
895.04	21150
895.161	21329
895.283	21207
895.405	21150
895.526	21306
895.648	21135
895.769	21306
895.891	21218
896.012	21321
896.134	21329
896.255	21203
896.376	21226
896.498	21226
896.619	21283
896.74	21169
896.861	21199
896.982	21519
897.103	21618
897.224	21428
897.345	21435
897.466	21439
897.587	21416
897.708	21618
897.828	21351
897.949	21393
898.07	21218
898.19	21389
898.311	21549
898.431	21351
898.552	21363
898.672	21389
898.792	21469
898.913	21374
899.033	21211
899.153	21279
899.273	21138
899.393	21074
899.513	21287
899.633	21074
899.753	21165
899.873	21142
899.993	21154
900.113	21081
900.232	21104
900.352	21020
900.472	21146
900.591	20975
900.711	20906
900.83	20807
900.95	20887
901.069	21077
901.189	20895
901.308	20617
901.427	20571
901.546	20511
901.665	20434
901.784	20537
901.904	20370
902.023	20282
902.141	20161
902.26	20111
902.379	20065
902.498	20012
902.617	19898
902.735	20069
902.854	20031
902.973	19909
903.091	19677
903.21	19578
903.328	19693
903.446	19533
903.565	19521
903.683	19411
903.801	19289
903.919	19460
904.038	19270
904.156	19126
904.274	19365
904.392	19168
904.51	19133
904.627	19061
904.745	19175
904.863	19232
904.981	18973
905.098	18886
905.216	18844
905.334	18905
905.451	18894
905.569	18814
905.686	18867
905.803	18779
905.921	18642
906.038	18711
906.155	18658
906.272	18521
906.389	18593
906.506	18372
906.623	18388
906.74	18304
906.857	18388
906.974	18247
907.091	18490
907.208	18517
907.324	18410
907.441	18285
907.557	18087
907.674	17977
907.79	18034
907.907	18072
908.023	18129
908.139	18102
908.256	18079
908.372	17954
908.488	17961
908.604	17870
908.72	17767
908.836	17714
908.952	17779
909.068	17843
909.184	17927
909.3	17851
909.415	17824
909.531	17726
909.647	17478
909.762	17433
909.878	17539
909.993	17554
910.108	17474
910.224	17509
910.339	17463
910.454	17303
910.57	17254
910.685	17250
910.8	17455
910.915	17383
911.03	17315
911.145	17045
911.259	17075
911.374	17117
911.489	17090
911.604	16915
911.718	16847
911.833	16797
911.947	16763
912.062	16687
912.176	16771
912.291	16778
912.405	16869
912.519	17033
912.633	17022
912.748	16820
912.862	16733
912.976	16641
913.09	16485
913.204	16580
913.318	16679
913.431	16649
913.545	16630
913.659	16599
913.772	16531
913.886	16436
914	16459
914.113	16485
914.226	16573
914.34	16432
914.453	16291
914.566	16459
914.68	16303
914.793	16226
914.906	16021
915.019	16078
915.132	15934
915.245	15968
915.358	15979
915.47	15918
915.583	16021
915.696	15941
915.809	16139
915.921	16093
916.034	15968
916.146	15850
916.259	15861
916.371	16010
916.483	15930
916.595	15781
916.708	15903
916.82	15762
916.932	15667
917.044	15732
917.156	15739
917.268	15652
917.38	15618
917.491	15591
917.603	15534
917.715	15660
917.826	15698
917.938	15561
918.049	15477
918.161	15534
918.272	15705
918.384	15789
918.495	15564
918.606	15363
918.717	15351
918.828	15279
918.939	15412
919.05	15302
919.161	15302
919.272	15157
919.383	15077
919.494	15340
919.604	15504
919.715	15397
919.826	15184
919.936	15294
920.047	15401
920.157	15336
920.267	15469
920.378	15336
920.488	15363
920.598	15507
920.708	15564
920.818	15340
920.928	15412
921.038	15568
921.148	15519
921.258	15211
921.368	15138
921.477	15024
921.587	14941
921.697	14960
921.806	14937
921.916	14891
922.025	14625
922.134	14670
922.244	14663
922.353	14579
922.462	14579
922.571	14454
922.68	14221
922.789	14202
922.898	14377
923.007	14225
923.116	14370
923.224	14168
923.333	14275
923.442	14043
923.55	14153
923.659	14130
923.767	14161
923.876	14043
923.984	14065
924.092	14020
924.201	14031
924.309	14001
924.417	14062
924.525	13967
924.633	13959
924.741	14651
924.849	13738
924.956	13898
925.064	13715
925.172	13647
925.279	13582
925.387	13677
925.494	13643
925.602	13738
925.709	13658
925.816	13605
925.924	13548
926.031	13636
926.138	13609
926.245	13636
926.352	13521
926.459	13590
926.566	13639
926.673	13487
926.779	13449
926.886	13407
926.993	13206
927.099	13190
927.206	13274
927.312	13084
927.419	13251
927.525	13194
927.631	13213
927.737	13080
927.843	13012
927.95	12875
928.056	13019
928.162	12993
928.267	13031
928.373	13521
928.479	13053
928.585	12829
928.69	12970
928.796	13050
928.901	12806
929.007	12772
929.112	12798
929.218	12791
929.323	12662
929.428	12677
929.533	12798
929.638	12612
929.743	12604
929.848	12654
929.953	12620
930.058	12555
930.163	12410
930.267	12357
930.372	12574
930.477	12334
930.581	12555
930.685	12441
930.79	12338
930.894	12224
930.998	12311
931.103	12281
931.207	12019
931.311	11908
931.415	11802
931.519	11630
931.623	11554
