Data from test_V78500241_2322.txt Node
Date: Fri Mar 25 15:57:53 CST 2022
User: usil
Spectrometer: V785-0024
Trigger mode: 0
Integration Time (sec): 4.000000E-1
Scans to average: 1
Nonlinearity correction enabled: false
Boxcar width: 0
Storing dark spectrum: false
XAxis mode: Wavelengths
Number of Pixels in Spectrum: 1024
>>>>>Begin Spectral Data<<<<<
801.071	28790
801.214	28774
801.356	28736
801.499	28645
801.641	28394
801.783	28466
801.926	28615
802.068	28466
802.211	28401
802.353	28512
802.496	28246
802.638	28109
802.78	28070
802.923	28055
803.065	27960
803.208	28154
803.35	28101
803.492	28306
803.635	28523
803.777	28204
803.919	28211
804.061	28664
804.204	28424
804.346	28329
804.488	28318
804.63	28329
804.773	28344
804.915	28401
805.057	28512
805.199	28371
805.341	28519
805.483	28577
805.626	28428
805.768	28527
805.91	28497
806.052	28504
806.194	28401
806.336	28702
806.478	28596
806.62	28656
806.762	28573
806.904	28934
807.046	29098
807.188	29067
807.33	29048
807.472	29185
807.614	28965
807.756	28892
807.898	28786
808.04	28923
808.182	28854
808.324	28930
808.465	28843
808.607	29128
808.749	29258
808.891	29292
809.033	29436
809.174	29189
809.316	29273
809.458	29151
809.6	29155
809.741	29341
809.883	29417
810.025	29531
810.166	29497
810.308	29577
810.45	29619
810.591	29372
810.733	29254
810.875	29284
811.016	29185
811.158	29113
811.299	29379
811.441	29543
811.582	29516
811.724	29311
811.865	29181
812.007	29227
812.148	29235
812.29	29322
812.431	29505
812.573	29520
812.714	29733
812.855	29794
812.997	29946
813.138	30102
813.279	29954
813.421	29687
813.562	29767
813.703	29653
813.845	29486
813.986	29242
814.127	29155
814.268	29025
814.41	28961
814.551	28961
814.692	29147
814.833	29037
814.974	28980
815.115	28942
815.256	28858
815.397	28824
815.539	28812
815.68	28877
815.821	28725
815.962	28839
816.103	28752
816.244	28626
816.385	28626
816.526	28455
816.666	28352
816.807	28337
816.948	28303
817.089	28287
817.23	28443
817.371	28405
817.512	28356
817.653	28242
817.793	28173
817.934	28272
818.075	28386
818.216	28234
818.356	28272
818.497	28310
818.638	27991
818.778	28120
818.919	28154
819.06	28048
819.2	28291
819.341	28360
819.481	28207
819.622	28428
819.762	28649
819.903	28630
820.043	28599
820.184	28455
820.324	28367
820.465	28390
820.605	28432
820.746	28333
820.886	28223
821.026	28287
821.167	28443
821.307	28451
821.447	28386
821.588	28226
821.728	28150
821.868	28055
822.008	27766
822.149	27953
822.289	27926
822.429	27682
822.569	27530
822.709	27427
822.849	27450
822.99	27306
823.13	27329
823.27	27260
823.41	27036
823.55	26986
823.69	27165
823.83	27203
823.97	27074
824.11	26902
824.25	26902
824.389	26914
824.529	27173
824.669	26853
824.809	26971
824.949	27013
825.089	27055
825.228	27036
825.368	26872
825.508	26952
825.648	26815
825.787	26773
825.927	26902
826.067	26815
826.206	26826
826.346	26883
826.485	26777
826.625	26708
826.765	26944
826.904	26960
827.044	26670
827.183	26499
827.323	26636
827.462	26571
827.601	26381
827.741	26564
827.88	26621
828.02	26488
828.159	26488
828.298	26629
828.437	26670
828.577	26465
828.716	26712
828.855	26438
828.994	26336
829.134	26180
829.273	26290
829.412	26225
829.551	26050
829.69	26126
829.829	26233
829.968	26332
830.107	26324
830.246	26267
830.385	26214
830.524	26100
830.663	25993
830.802	26050
830.941	25837
831.08	25871
831.219	26020
831.357	25940
831.496	25997
831.635	25791
831.774	25727
831.913	25655
832.051	25693
832.19	25590
832.329	25696
832.467	25575
832.606	25495
832.744	25514
832.883	25537
833.022	25518
833.16	25430
833.299	25662
833.437	25525
833.576	25582
833.714	25529
833.852	25651
833.991	25537
834.129	25689
834.267	25712
834.406	25613
834.544	25605
834.682	25537
834.821	25499
834.959	25830
835.097	25430
835.235	25537
835.373	25597
835.511	25552
835.65	25468
835.788	25411
835.926	25251
836.064	25228
836.202	25308
836.34	25377
836.478	25537
836.615	25312
836.753	25479
836.891	25354
837.029	25377
837.167	25247
837.305	25160
837.443	25266
837.58	25255
837.718	25339
837.856	25274
837.993	25129
838.131	25278
838.269	25065
838.406	25198
838.544	24996
838.681	24783
838.819	24878
838.956	24650
839.094	24673
839.231	24715
839.369	24886
839.506	24981
839.643	24977
839.781	24730
839.918	24635
840.055	24696
840.193	24688
840.33	24547
840.467	24528
840.604	24665
840.742	24928
840.879	24342
841.016	24574
841.153	24486
841.29	24688
841.427	24616
841.564	24738
841.701	24658
841.838	24509
841.975	24547
842.112	24464
842.249	24380
842.385	24296
842.522	24551
842.659	24361
842.796	24190
842.933	24372
843.069	24414
843.206	24315
843.343	24414
843.479	24190
843.616	24361
843.752	24155
843.889	24129
844.025	24091
844.162	24102
844.298	24129
844.435	24095
844.571	23992
844.708	24129
844.844	24289
844.98	24220
845.117	24216
845.253	24117
845.389	23977
845.525	24049
845.661	23999
845.798	23855
845.934	23916
846.07	23737
846.206	23779
846.342	23908
846.478	23874
846.614	23604
846.75	23459
846.886	23452
847.022	23649
847.158	23535
847.294	23524
847.429	23474
847.565	23543
847.701	23748
847.837	23387
847.972	23113
848.108	23501
848.244	23246
848.379	23318
848.515	23098
848.65	23060
848.786	22991
848.921	23136
849.057	23284
849.192	23170
849.328	23277
849.463	23216
849.598	23143
849.734	23098
849.869	23105
850.004	22942
850.14	22987
850.275	22923
850.41	22812
850.545	22824
850.68	22755
850.815	22980
850.95	22904
851.085	23083
851.22	23136
851.355	22984
851.49	22968
851.625	22915
851.76	22820
851.895	22698
852.03	22854
852.165	22892
852.299	22953
852.434	22949
852.569	22999
852.703	22961
852.838	22968
852.973	22976
853.107	23025
853.242	22873
853.376	22740
853.511	22561
853.645	22672
853.78	22900
853.914	22607
854.048	22557
854.183	22702
854.317	22607
854.451	22862
854.585	22660
854.72	22641
854.854	22896
854.988	22550
855.122	22725
855.256	22649
855.39	22618
855.524	22919
855.658	22748
855.792	22782
855.926	22656
856.06	22721
856.194	22752
856.327	22748
856.461	22725
856.595	22653
856.729	22664
856.862	22759
856.996	22721
857.13	22782
857.263	22828
857.397	22816
857.53	22713
857.664	22740
857.797	22702
857.931	22755
858.064	22725
858.197	22873
858.331	22744
858.464	22721
858.597	22508
858.731	22736
858.864	22797
858.997	22691
859.13	22771
859.263	22790
859.396	22835
859.529	22744
859.662	22691
859.795	22710
859.928	22793
860.061	22930
860.194	23044
860.327	22698
860.46	22710
860.592	22980
860.725	22873
860.858	22820
860.99	22835
861.123	22687
861.256	22771
861.388	22755
861.521	23547
861.653	22630
861.786	22497
861.918	22622
862.05	22584
862.183	22675
862.315	22729
862.447	22660
862.58	22683
862.712	22402
862.844	22519
862.976	22527
863.108	22535
863.24	22896
863.372	22424
863.504	22459
863.636	22481
863.768	22466
863.9	22462
864.032	22409
864.164	22459
864.296	22516
864.428	22615
864.559	22611
864.691	22527
864.823	22424
864.954	22535
865.086	22390
865.217	22371
865.349	22344
865.48	22314
865.612	22344
865.743	22417
865.875	22299
866.006	22341
866.137	22409
866.269	22379
866.4	22303
866.531	22257
866.662	22318
866.793	22242
866.924	22150
867.055	22215
867.186	22249
867.317	22200
867.448	22173
867.579	22284
867.71	22131
867.841	22112
867.972	22310
868.103	22185
868.233	22284
868.364	22356
868.495	22398
868.625	22569
868.756	22508
868.886	22398
869.017	22402
869.147	22497
869.278	22630
869.408	22432
869.539	22542
869.669	22611
869.799	22626
869.929	22675
870.06	22561
870.19	22809
870.32	22843
870.45	22904
870.58	22850
870.71	22946
870.84	23025
870.97	22869
871.1	22904
871.23	23132
871.36	23178
871.489	23041
871.619	23136
871.749	23044
871.879	23162
872.008	23235
872.138	23052
872.267	23189
872.397	22930
872.526	22854
872.656	22900
872.785	23018
872.915	22991
873.044	23170
873.173	23090
873.303	23132
873.432	23155
873.561	23166
873.69	23284
873.819	23090
873.948	23181
874.077	23067
874.206	23006
874.335	23174
874.464	23174
874.593	23292
874.722	23292
874.851	23299
874.979	23349
875.108	23334
875.237	23296
875.365	23208
875.494	23307
875.623	23322
875.751	23193
875.88	23197
876.008	23368
876.136	23547
876.265	23813
876.393	23859
876.521	23843
876.65	23745
876.778	23714
876.906	23627
877.034	23661
877.162	23638
877.29	23627
877.418	23733
877.546	23699
877.674	23558
877.802	23630
877.93	23581
878.058	23600
878.185	23615
878.313	23707
878.441	23653
878.568	23634
878.696	23551
878.824	23520
878.951	23707
879.079	23897
879.206	24022
879.333	23710
879.461	23676
879.588	23783
879.715	23790
879.842	23954
879.97	23756
880.097	23455
880.224	23452
880.351	23425
880.478	23539
880.605	23551
880.732	23417
880.859	23581
880.986	23436
881.112	23452
881.239	23341
881.366	23254
881.493	23109
881.619	22995
881.746	23075
881.872	23121
881.999	22976
882.125	22885
882.252	23025
882.378	22923
882.505	23132
882.631	22675
882.757	22763
882.883	22759
883.01	22793
883.136	22550
883.262	22569
883.388	22542
883.514	22702
883.64	22672
883.766	22538
883.892	22440
884.018	22546
884.143	22664
884.269	22683
884.395	22276
884.52	22299
884.646	22333
884.772	22322
884.897	22375
885.023	22295
885.148	22455
885.274	22516
885.399	22379
885.524	22409
885.65	22436
885.775	22436
885.9	22265
886.025	22443
886.15	22382
886.275	22207
886.4	22226
886.525	22367
886.65	22147
886.775	22257
886.9	22417
887.025	22584
887.149	22337
887.274	22158
887.399	22120
887.523	22234
887.648	22105
887.773	21937
887.897	22120
888.021	22082
888.146	22044
888.27	22246
888.395	22204
888.519	22086
888.643	22109
888.767	22029
888.891	22093
889.015	21797
889.139	21884
889.263	21949
889.387	22055
889.511	22188
889.635	21892
889.759	21915
889.883	21804
890.006	21816
890.13	21937
890.254	21690
890.377	21812
890.501	21481
890.624	21572
890.748	21618
890.871	21637
890.995	21424
891.118	21473
891.241	21401
891.364	21405
891.488	21587
891.611	21393
891.734	21393
891.857	21393
891.98	21412
892.103	21424
892.226	21378
892.349	21389
892.471	21184
892.594	21401
892.717	21386
892.839	21298
892.962	21336
893.085	21321
893.207	21306
893.33	21188
893.452	21165
893.575	21481
893.697	21291
893.819	21374
893.941	21530
894.064	21435
894.186	21287
894.308	21211
894.43	21363
894.552	21519
894.674	21329
894.796	21104
894.918	21256
895.04	21142
895.161	21241
895.283	21291
895.405	21180
895.526	21237
895.648	21287
895.769	21291
895.891	21252
896.012	21260
896.134	21260
896.255	21256
896.376	21195
896.498	21321
896.619	21447
896.74	21298
896.861	21260
896.982	21443
897.103	21580
897.224	21614
897.345	21393
897.466	21302
897.587	21439
897.708	21698
897.828	21534
897.949	21355
898.07	21370
898.19	21435
898.311	21462
898.431	21473
898.552	21481
898.672	21603
898.792	21606
898.913	21549
899.033	21317
899.153	21135
899.273	21104
899.393	21256
899.513	21237
899.633	21100
899.753	21302
899.873	21188
899.993	21279
900.113	21154
900.232	21112
900.352	21138
900.472	21047
900.591	21043
900.711	20956
900.83	20986
900.95	21020
901.069	21108
901.189	20864
901.308	20587
901.427	20438
901.546	20556
901.665	20632
901.784	20427
901.904	20499
902.023	20396
902.141	20191
902.26	20065
902.379	20153
902.498	20062
902.617	20054
902.735	20043
902.854	19982
902.973	19887
903.091	19689
903.21	19674
903.328	19556
903.446	19582
903.565	19453
903.683	19556
903.801	19384
903.919	19445
904.038	19377
904.156	19320
904.274	19266
904.392	19278
904.51	19244
904.627	19263
904.745	19350
904.863	19202
904.981	18970
905.098	18916
905.216	18878
905.334	18966
905.451	18897
905.569	18954
905.686	18947
905.803	18916
905.921	18719
906.038	18696
906.155	18798
906.272	18635
906.389	18719
906.506	18384
906.623	18452
906.74	18334
906.857	18334
906.974	18300
907.091	18471
907.208	18582
907.324	18456
907.441	18300
907.557	18034
907.674	18190
907.79	18194
907.907	18041
908.023	18110
908.139	18079
908.256	18087
908.372	17992
908.488	17996
908.604	17897
908.72	17809
908.836	17771
908.952	17760
909.068	17946
909.184	17984
909.3	17767
909.415	17855
909.531	17805
909.647	17630
909.762	17566
909.878	17589
909.993	17520
910.108	17501
910.224	17406
910.339	17444
910.454	17436
910.57	17376
910.685	17193
910.8	17566
910.915	17600
911.03	17318
911.145	17181
911.259	17086
911.374	17197
911.489	17067
911.604	16995
911.718	16839
911.833	16904
911.947	16778
912.062	16725
912.176	16850
912.291	16869
912.405	16793
912.519	17041
912.633	17022
912.748	16953
912.862	16736
912.976	16736
913.09	16569
913.204	16645
913.318	16675
913.431	16831
913.545	16691
913.659	16786
913.772	16649
913.886	16451
914	16554
914.113	16561
914.226	16565
914.34	16504
914.453	16284
914.566	16398
914.68	16329
914.793	16382
914.906	16093
915.019	16067
915.132	15941
915.245	16063
915.358	16071
915.47	16021
915.583	15956
915.696	16082
915.809	16006
915.921	16139
916.034	15888
916.146	15831
916.259	15804
916.371	15926
916.483	15968
916.595	15831
916.708	15778
916.82	15930
916.932	15876
917.044	15743
917.156	15732
917.268	15618
917.38	15667
917.491	15549
917.603	15610
917.715	15682
917.826	15774
917.938	15519
918.049	15504
918.161	15568
918.272	15751
918.384	15713
918.495	15477
918.606	15458
918.717	15325
918.828	15481
918.939	15317
919.05	15237
919.161	15370
919.272	15165
919.383	15249
919.494	15477
919.604	15466
919.715	15310
919.826	15329
919.936	15310
920.047	15420
920.157	15367
920.267	15599
920.378	15287
920.488	15249
920.598	15469
920.708	15587
920.818	15473
920.928	15492
921.038	15526
921.148	15504
921.258	15325
921.368	15074
921.477	14929
921.587	15142
921.697	14891
921.806	15039
921.916	14819
922.025	14663
922.134	14830
922.244	14606
922.353	14762
922.462	14549
922.571	14434
922.68	14309
922.789	14275
922.898	14370
923.007	14214
923.116	14332
923.224	14210
923.333	14233
923.442	14111
923.55	14119
923.659	14229
923.767	14199
923.876	14168
923.984	14168
924.092	14008
924.201	14031
924.309	14012
924.417	14005
924.525	13909
924.633	13913
924.741	14834
924.849	13727
924.956	13811
925.064	13723
925.172	13597
925.279	13651
925.387	13776
925.494	13746
925.602	13852
925.709	13719
925.816	13563
925.924	13597
926.031	13761
926.138	13715
926.245	13647
926.352	13552
926.459	13636
926.566	13628
926.673	13510
926.779	13434
926.886	13453
926.993	13304
927.099	13232
927.206	13183
927.312	13190
927.419	13293
927.525	13236
927.631	13244
927.737	13160
927.843	13103
927.95	12970
928.056	13057
928.162	13190
928.267	13187
928.373	13765
928.479	13091
928.585	12924
928.69	13000
928.796	13076
928.901	12954
929.007	12783
929.112	12894
929.218	12859
929.323	12848
929.428	12719
929.533	12890
929.638	12662
929.743	12715
929.848	12806
929.953	12730
930.058	12612
930.163	12384
930.267	12460
930.372	12467
930.477	12433
930.581	12681
930.685	12570
930.79	12353
930.894	12342
930.998	12277
931.103	12407
931.207	11996
931.311	11977
931.415	11885
931.519	11661
931.623	11638
