Data from test_V78500241_2993.txt Node
Date: Fri Mar 25 16:02:32 CST 2022
User: usil
Spectrometer: V785-0024
Trigger mode: 0
Integration Time (sec): 4.000000E-1
Scans to average: 1
Nonlinearity correction enabled: false
Boxcar width: 0
Storing dark spectrum: false
XAxis mode: Wavelengths
Number of Pixels in Spectrum: 1024
>>>>>Begin Spectral Data<<<<<
801.071	28748
801.214	28866
801.356	28462
801.499	28401
801.641	28398
801.783	28401
801.926	28409
802.068	28310
802.211	28215
802.353	28325
802.496	28090
802.638	28006
802.78	27873
802.923	28059
803.065	27960
803.208	27983
803.35	28040
803.492	28219
803.635	28386
803.777	28177
803.919	28291
804.061	28569
804.204	28363
804.346	28265
804.488	28150
804.63	28272
804.773	28272
804.915	28443
805.057	28405
805.199	28211
805.341	28306
805.483	28592
805.626	28405
805.768	28265
805.91	28390
806.052	28557
806.194	28211
806.336	28809
806.478	28390
806.62	28447
806.762	28702
806.904	28771
807.046	28873
807.188	28900
807.33	28866
807.472	29029
807.614	28850
807.756	28801
807.898	28824
808.04	28763
808.182	28710
808.324	28824
808.465	28900
808.607	29022
808.749	29212
808.891	29372
809.033	29242
809.174	29121
809.316	29128
809.458	29128
809.6	29105
809.741	29368
809.883	29356
810.025	29501
810.166	29501
810.308	29547
810.45	29436
810.591	29444
810.733	29132
810.875	29223
811.016	28995
811.158	29208
811.299	29315
811.441	29318
811.582	29349
811.724	29254
811.865	29166
812.007	29166
812.148	29166
812.29	29292
812.431	29341
812.573	29516
812.714	29608
812.855	29714
812.997	29870
813.138	29866
813.279	29817
813.421	29672
813.562	29676
813.703	29493
813.845	29326
813.986	29212
814.127	29010
814.268	28942
814.41	28885
814.551	28778
814.692	29075
814.833	28782
814.974	28824
815.115	28934
815.256	28866
815.397	28820
815.539	28790
815.68	28786
815.821	28679
815.962	28778
816.103	28755
816.244	28542
816.385	28493
816.526	28569
816.666	28215
816.807	28086
816.948	28268
817.089	28333
817.23	28188
817.371	28093
817.512	28169
817.653	27968
817.793	28044
817.934	28074
818.075	28226
818.216	28177
818.356	28238
818.497	28082
818.638	27888
818.778	28006
818.919	28063
819.06	27930
819.2	28268
819.341	28238
819.481	28204
819.622	28394
819.762	28527
819.903	28424
820.043	28409
820.184	28386
820.324	28333
820.465	28466
820.605	28356
820.746	28341
820.886	28185
821.026	28265
821.167	28272
821.307	28329
821.447	28291
821.588	28192
821.728	28040
821.868	27934
822.008	27610
822.149	27660
822.289	27701
822.429	27424
822.569	27344
822.709	27462
822.849	27226
822.99	27184
823.13	27142
823.27	27192
823.41	27017
823.55	26815
823.69	27199
823.83	26990
823.97	26956
824.11	26845
824.25	26693
824.389	26838
824.529	26861
824.669	26880
824.809	27009
824.949	26914
825.089	26929
825.228	26975
825.368	26887
825.508	26644
825.648	26823
825.787	26773
825.927	26731
826.067	26807
826.206	26705
826.346	26708
826.485	26895
826.625	26640
826.765	26853
826.904	26834
827.044	26594
827.183	26606
827.323	26476
827.462	26602
827.601	26507
827.741	26385
827.88	26583
828.02	26355
828.159	26400
828.298	26549
828.437	26446
828.577	26442
828.716	26492
828.855	26290
828.994	26240
829.134	26130
829.273	26263
829.412	26020
829.551	26046
829.69	26081
829.829	26088
829.968	26122
830.107	26183
830.246	26168
830.385	26122
830.524	26031
830.663	25917
830.802	25803
830.941	25795
831.08	25750
831.219	25940
831.357	25795
831.496	26008
831.635	25700
831.774	25674
831.913	25609
832.051	25552
832.19	25415
832.329	25639
832.467	25392
832.606	25419
832.744	25384
832.883	25362
833.022	25449
833.16	25441
833.299	25400
833.437	25403
833.576	25620
833.714	25392
833.852	25540
833.991	25559
834.129	25647
834.267	25620
834.406	25544
834.544	25575
834.682	25495
834.821	25533
834.959	25696
835.097	25540
835.235	25533
835.373	25430
835.511	25365
835.65	25289
835.788	25282
835.926	25160
836.064	25168
836.202	25217
836.34	25308
836.478	25384
836.615	25251
836.753	25278
836.891	25343
837.029	25278
837.167	25198
837.305	25206
837.443	25244
837.58	25019
837.718	25278
837.856	25088
837.993	25103
838.131	25152
838.269	25084
838.406	25080
838.544	24909
838.681	24798
838.819	24814
838.956	24639
839.094	24585
839.231	24505
839.369	24700
839.506	24962
839.643	24886
839.781	24608
839.918	24661
840.055	24547
840.193	24620
840.33	24570
840.467	24494
840.604	24570
840.742	24890
840.879	24285
841.016	24521
841.153	24372
841.29	24475
841.427	24521
841.564	24505
841.701	24505
841.838	24414
841.975	24437
842.112	24399
842.249	24361
842.385	24327
842.522	24540
842.659	24346
842.796	24197
842.933	24338
843.069	24247
843.206	24110
843.343	24311
843.479	24209
843.616	24239
843.752	24102
843.889	24026
844.025	24338
844.162	23916
844.298	24155
844.435	24076
844.571	23988
844.708	24079
844.844	24152
844.98	24285
845.117	24114
845.253	24015
845.389	23851
845.525	24007
845.661	23916
845.798	23767
845.934	23802
846.07	23745
846.206	23885
846.342	23920
846.478	23923
846.614	23531
846.75	23440
846.886	23486
847.022	23577
847.158	23474
847.294	23516
847.429	23573
847.565	23391
847.701	23745
847.837	23105
847.972	23292
848.108	23250
848.244	23277
848.379	23102
848.515	22965
848.65	23140
848.786	23136
848.921	23132
849.057	23250
849.192	23189
849.328	23181
849.463	23071
849.598	23037
849.734	22980
849.869	22858
850.004	22866
850.14	22767
850.275	22721
850.41	22782
850.545	22847
850.68	22900
850.815	22900
850.95	22759
851.085	22892
851.22	22942
851.355	22904
851.49	22740
851.625	22820
851.76	22698
851.895	22675
852.03	22839
852.165	22885
852.299	22961
852.434	22915
852.569	22824
852.703	22786
852.838	22820
852.973	22885
853.107	22839
853.242	22824
853.376	22630
853.511	22565
853.645	22698
853.78	22850
853.914	22706
854.048	22656
854.183	22725
854.317	22683
854.451	22812
854.585	22645
854.72	22717
854.854	22653
854.988	22698
855.122	22577
855.256	22637
855.39	22626
855.524	22816
855.658	22626
855.792	22698
855.926	22801
856.06	22702
856.194	22744
856.327	22672
856.461	22577
856.595	22577
856.729	22664
856.862	22771
856.996	22694
857.13	22687
857.263	22736
857.397	22786
857.53	22455
857.664	22752
857.797	22664
857.931	22713
858.064	22767
858.197	22717
858.331	22637
858.464	22618
858.597	22622
858.731	22668
858.864	22580
858.997	22679
859.13	22527
859.263	22691
859.396	22850
859.529	22717
859.662	22630
859.795	22523
859.928	22577
860.061	22896
860.194	22767
860.327	22691
860.46	22607
860.592	22672
860.725	22790
860.858	22790
860.99	22755
861.123	22535
861.256	22596
861.388	22538
861.521	23463
861.653	22531
861.786	22485
861.918	22481
862.05	22508
862.183	22527
862.315	22672
862.447	22744
862.58	22634
862.712	22322
862.844	22447
862.976	22481
863.108	22398
863.24	22820
863.372	22325
863.504	22417
863.636	22386
863.768	22428
863.9	22489
864.032	22436
864.164	22375
864.296	22386
864.428	22466
864.559	22470
864.691	22447
864.823	22325
864.954	22394
865.086	22371
865.217	22253
865.349	22204
865.48	22272
865.612	22291
865.743	22272
865.875	22280
866.006	22097
866.137	22204
866.269	22215
866.4	22173
866.531	22238
866.662	22192
866.793	22242
866.924	22166
867.055	22177
867.186	22185
867.317	22097
867.448	22124
867.579	22242
867.71	22055
867.841	22070
867.972	22173
868.103	22158
868.233	22162
868.364	22200
868.495	22261
868.625	22246
868.756	22432
868.886	22257
869.017	22436
869.147	22447
869.278	22481
869.408	22455
869.539	22333
869.669	22615
869.799	22447
869.929	22516
870.06	22474
870.19	22691
870.32	22763
870.45	22786
870.58	22755
870.71	22938
870.84	22976
870.97	22763
871.1	22774
871.23	22904
871.36	23014
871.489	22938
871.619	22991
871.749	22976
871.879	23083
872.008	23098
872.138	23136
872.267	22953
872.397	22858
872.526	22896
872.656	22858
872.785	22831
872.915	23212
873.044	23052
873.173	22908
873.303	23124
873.432	23170
873.561	23132
873.69	23067
873.819	23044
873.948	23067
874.077	23044
874.206	22949
874.335	22980
874.464	23124
874.593	23322
874.722	23212
874.851	23334
874.979	23315
875.108	23383
875.237	23083
875.365	23105
875.494	23223
875.623	23326
875.751	23212
875.88	23185
876.008	23269
876.136	23509
876.265	23710
876.393	23821
876.521	23611
876.65	23748
876.778	23707
876.906	23558
877.034	23611
877.162	23634
877.29	23547
877.418	23589
877.546	23600
877.674	23554
877.802	23573
877.93	23600
878.058	23497
878.185	23463
878.313	23486
878.441	23539
878.568	23353
878.696	23623
878.824	23501
878.951	23718
879.079	23676
879.206	23691
879.333	23764
879.461	23680
879.588	23687
879.715	23684
879.842	23920
879.97	23699
880.097	23444
880.224	23330
880.351	23429
880.478	23425
880.605	23379
880.732	23520
880.859	23573
880.986	23433
881.112	23353
881.239	23273
881.366	23067
881.493	23064
881.619	22934
881.746	22934
881.872	22847
881.999	22930
882.125	22858
882.252	23003
882.378	22831
882.505	22991
882.631	22908
882.757	22694
882.883	22771
883.01	22733
883.136	22584
883.262	22531
883.388	22500
883.514	22550
883.64	22691
883.766	22538
883.892	22344
884.018	22375
884.143	22554
884.269	22603
884.395	22363
884.52	22371
884.646	22390
884.772	22177
884.897	22204
885.023	22226
885.148	22306
885.274	22382
885.399	22299
885.524	22276
885.65	22329
885.775	22185
885.9	22246
886.025	22310
886.15	22322
886.275	22128
886.4	22173
886.525	22348
886.65	22230
886.775	22280
886.9	22253
887.025	22459
887.149	22238
887.274	22040
887.399	22074
887.523	22017
887.648	21937
887.773	21888
887.897	22181
888.021	21949
888.146	21926
888.27	22105
888.395	21998
888.519	21991
888.643	22074
888.767	22040
888.891	21991
889.015	21895
889.139	21876
889.263	21724
889.387	21846
889.511	21956
889.635	22025
889.759	21778
889.883	21682
890.006	21755
890.13	21911
890.254	21705
890.377	21637
890.501	21644
890.624	21587
890.748	21523
890.871	21389
890.995	21420
891.118	21367
891.241	21351
891.364	21382
891.488	21439
891.611	21374
891.734	21313
891.857	21321
891.98	21393
892.103	21401
892.226	21435
892.349	21298
892.471	21252
892.594	21294
892.717	21230
892.839	21230
892.962	21291
893.085	21374
893.207	21344
893.33	21135
893.452	21123
893.575	21321
893.697	21233
893.819	21336
893.941	21325
894.064	21458
894.186	21188
894.308	21245
894.43	21370
894.552	21542
894.674	21317
894.796	21119
894.918	21188
895.04	21176
895.161	21207
895.283	21184
895.405	21127
895.526	21294
895.648	21233
895.769	21165
895.891	21321
896.012	21226
896.134	21325
896.255	21199
896.376	21108
896.498	21241
896.619	21302
896.74	21146
896.861	21195
896.982	21469
897.103	21656
897.224	21511
897.345	21389
897.466	21348
897.587	21420
897.708	21496
897.828	21481
897.949	21378
898.07	21249
898.19	21382
898.311	21507
898.431	21389
898.552	21382
898.672	21534
898.792	21504
898.913	21378
899.033	21256
899.153	21150
899.273	21108
899.393	21218
899.513	21256
899.633	21154
899.753	21096
899.873	21089
899.993	21154
900.113	21058
900.232	21077
900.352	21047
900.472	20906
900.591	20861
900.711	20948
900.83	21005
900.95	21020
901.069	20971
901.189	20765
901.308	20465
901.427	20514
901.546	20454
901.665	20514
901.784	20480
901.904	20301
902.023	20263
902.141	20027
902.26	19917
902.379	20122
902.498	19967
902.617	19841
902.735	19986
902.854	19883
902.973	19921
903.091	19628
903.21	19647
903.328	19559
903.446	19464
903.565	19457
903.683	19468
903.801	19411
903.919	19514
904.038	19400
904.156	19187
904.274	19251
904.392	19171
904.51	19152
904.627	19107
904.745	19244
904.863	19160
904.981	18947
905.098	18863
905.216	18920
905.334	18859
905.451	18913
905.569	18867
905.686	18909
905.803	18859
905.921	18627
906.038	18783
906.155	18700
906.272	18597
906.389	18608
906.506	18414
906.623	18399
906.74	18418
906.857	18201
906.974	18300
907.091	18437
907.208	18525
907.324	18357
907.441	18262
907.557	18152
907.674	18102
907.79	18053
907.907	18114
908.023	18072
908.139	17996
908.256	18072
908.372	17931
908.488	18011
908.604	17821
908.72	17783
908.836	17786
908.952	17771
909.068	17908
909.184	17916
909.3	17707
909.415	17798
909.531	17843
909.647	17596
909.762	17463
909.878	17505
909.993	17604
910.108	17433
910.224	17337
910.339	17406
910.454	17387
910.57	17315
910.685	17242
910.8	17554
910.915	17490
911.03	17223
911.145	17075
911.259	17041
911.374	17079
911.489	17048
911.604	16892
911.718	16881
911.833	16892
911.947	16672
912.062	16698
912.176	16782
912.291	16854
912.405	16767
912.519	16976
912.633	17010
912.748	16953
912.862	16713
912.976	16611
913.09	16577
913.204	16569
913.318	16592
913.431	16645
913.545	16596
913.659	16683
913.772	16462
913.886	16470
914	16398
914.113	16470
914.226	16497
914.34	16504
914.453	16253
914.566	16310
914.68	16337
914.793	16234
914.906	16112
915.019	15975
915.132	15838
915.245	15987
915.358	16055
915.47	16029
915.583	15903
915.696	15972
915.809	16101
915.921	16051
916.034	15850
916.146	15861
916.259	15835
916.371	16055
916.483	15907
916.595	15823
916.708	15781
916.82	15797
916.932	15831
917.044	15781
917.156	15808
917.268	15633
917.38	15656
917.491	15553
917.603	15618
917.715	15694
917.826	15736
917.938	15549
918.049	15450
918.161	15591
918.272	15511
918.384	15633
918.495	15492
918.606	15397
918.717	15298
918.828	15310
918.939	15279
919.05	15260
919.161	15420
919.272	15116
919.383	15211
919.494	15321
919.604	15515
919.715	15294
919.826	15264
919.936	15344
920.047	15279
920.157	15332
920.267	15477
920.378	15199
920.488	15264
920.598	15424
920.708	15587
920.818	15515
920.928	15329
921.038	15496
921.148	15469
921.258	15264
921.368	15135
921.477	14998
921.587	15001
921.697	14941
921.806	15020
921.916	14811
922.025	14750
922.134	14644
922.244	14545
922.353	14712
922.462	14484
922.571	14594
922.68	14282
922.789	14290
922.898	14214
923.007	14145
923.116	14324
923.224	14282
923.333	14214
923.442	14126
923.55	14145
923.659	14043
923.767	14084
923.876	14001
923.984	14115
924.092	13909
924.201	14046
924.309	14065
924.417	13947
924.525	13917
924.633	13860
924.741	14708
924.849	13715
924.956	13871
925.064	13674
925.172	13594
925.279	13605
925.387	13632
925.494	13651
925.602	13731
925.709	13753
925.816	13597
925.924	13578
926.031	13693
926.138	13658
926.245	13681
926.352	13480
926.459	13639
926.566	13613
926.673	13521
926.779	13419
926.886	13320
926.993	13179
927.099	13282
927.206	13183
927.312	13095
927.419	13263
927.525	13270
927.631	13190
927.737	13114
927.843	13065
927.95	12981
928.056	13042
928.162	12973
928.267	13000
928.373	13582
928.479	13114
928.585	12730
928.69	12905
928.796	12939
928.901	12821
929.007	12681
929.112	12749
929.218	12840
929.323	12711
929.428	12681
929.533	12852
929.638	12631
929.743	12601
929.848	12688
929.953	12650
930.058	12471
930.163	12464
930.267	12426
930.372	12403
930.477	12342
930.581	12566
930.685	12353
930.79	12311
930.894	12239
930.998	12144
931.103	12300
931.207	11977
931.311	11961
931.415	11828
931.519	11649
931.623	11646
