Data from test_V78500241_240.txt Node
Date: Fri Mar 25 15:43:27 CST 2022
User: usil
Spectrometer: V785-0024
Trigger mode: 0
Integration Time (sec): 4.000000E-1
Scans to average: 1
Nonlinearity correction enabled: false
Boxcar width: 0
Storing dark spectrum: false
XAxis mode: Wavelengths
Number of Pixels in Spectrum: 1024
>>>>>Begin Spectral Data<<<<<
801.071	29543
801.214	29520
801.356	29307
801.499	29296
801.641	29109
801.783	29128
801.926	29151
802.068	29018
802.211	28942
802.353	28911
802.496	28816
802.638	28824
802.78	28877
802.923	28752
803.065	28649
803.208	28687
803.35	28752
803.492	28828
803.635	28949
803.777	28812
803.919	28923
804.061	29174
804.204	28900
804.346	28759
804.488	28755
804.63	28702
804.773	28618
804.915	28854
805.057	28923
805.199	28904
805.341	29006
805.483	29006
805.626	28953
805.768	28881
805.91	28892
806.052	29022
806.194	29018
806.336	29212
806.478	29105
806.62	28980
806.762	29147
806.904	29261
807.046	29463
807.188	29429
807.33	29337
807.472	29421
807.614	29296
807.756	29356
807.898	29113
808.04	29102
808.182	29220
808.324	29162
808.465	29227
808.607	29406
808.749	29402
808.891	29646
809.033	29767
809.174	29551
809.316	29714
809.458	29410
809.6	29608
809.741	29634
809.883	29813
810.025	29901
810.166	29874
810.308	29821
810.45	29657
810.591	29718
810.733	29490
810.875	29634
811.016	29551
811.158	29448
811.299	29718
811.441	29695
811.582	29699
811.724	29547
811.865	29543
812.007	29406
812.148	29524
812.29	29604
812.431	29767
812.573	29893
812.714	29916
812.855	30190
812.997	30155
813.138	30311
813.279	30125
813.421	30121
813.562	29999
813.703	29870
813.845	29794
813.986	29414
814.127	29239
814.268	29140
814.41	29208
814.551	29140
814.692	29227
814.833	29261
814.974	29098
815.115	29265
815.256	28987
815.397	29052
815.539	29048
815.68	28965
815.821	28888
815.962	28949
816.103	28911
816.244	28755
816.385	28679
816.526	28702
816.666	28565
816.807	28421
816.948	28485
817.089	28451
817.23	28527
817.371	28379
817.512	28371
817.653	28329
817.793	28272
817.934	28447
818.075	28299
818.216	28352
818.356	28280
818.497	28188
818.638	27949
818.778	27968
818.919	28143
819.06	28101
819.2	28177
819.341	28356
819.481	28219
819.622	28451
819.762	28523
819.903	28622
820.043	28523
820.184	28265
820.324	28371
820.465	28561
820.605	28417
820.746	28367
820.886	28223
821.026	28367
821.167	28314
821.307	28455
821.447	28192
821.588	28124
821.728	28082
821.868	27979
822.008	27846
822.149	27785
822.289	27637
822.429	27530
822.569	27408
822.709	27462
822.849	27169
822.99	27344
823.13	27233
823.27	27093
823.41	27001
823.55	26819
823.69	27028
823.83	27055
823.97	26861
824.11	26819
824.25	26853
824.389	26891
824.529	26952
824.669	26838
824.809	26998
824.949	26872
825.089	26982
825.228	26937
825.368	26587
825.508	26564
825.648	26606
825.787	26667
825.927	26724
826.067	26670
826.206	26632
826.346	26754
826.485	26720
826.625	26667
826.765	26648
826.904	26682
827.044	26370
827.183	26377
827.323	26450
827.462	26313
827.601	26415
827.741	26244
827.88	26511
828.02	26256
828.159	26248
828.298	26317
828.437	26366
828.577	26164
828.716	26412
828.855	26225
828.994	26103
829.134	26134
829.273	26039
829.412	25955
829.551	26077
829.69	25921
829.829	25993
829.968	26084
830.107	25989
830.246	25932
830.385	25727
830.524	26027
830.663	25685
830.802	25628
830.941	25624
831.08	25518
831.219	25708
831.357	25616
831.496	25670
831.635	25499
831.774	25438
831.913	25419
832.051	25419
832.19	25331
832.329	25422
832.467	25190
832.606	25225
832.744	25274
832.883	25103
833.022	25118
833.16	25236
833.299	25148
833.437	25282
833.576	25263
833.714	25202
833.852	25339
833.991	25282
834.129	25126
834.267	25164
834.406	25183
834.544	25141
834.682	25236
834.821	25228
834.959	25354
835.097	25145
835.235	25228
835.373	25107
835.511	25206
835.65	25027
835.788	24973
835.926	24897
836.064	25034
836.202	24878
836.34	25000
836.478	25084
836.615	25027
836.753	24981
836.891	25129
837.029	25050
837.167	24996
837.305	24882
837.443	24810
837.58	24802
837.718	24920
837.856	24848
837.993	24859
838.131	24787
838.269	24677
838.406	24688
838.544	24540
838.681	24673
838.819	24433
838.956	24296
839.094	24289
839.231	24437
839.369	24509
839.506	24635
839.643	24578
839.781	24308
839.918	24209
840.055	24342
840.193	24209
840.33	24144
840.467	24068
840.604	24144
840.742	24456
840.879	24106
841.016	24228
841.153	23935
841.29	24148
841.427	24038
841.564	24167
841.701	24102
841.838	23973
841.975	23920
842.112	24068
842.249	23916
842.385	23923
842.522	24053
842.659	23999
842.796	23847
842.933	23855
843.069	23889
843.206	23680
843.343	23828
843.479	23771
843.616	23855
843.752	23558
843.889	23600
844.025	23794
844.162	23619
844.298	23767
844.435	23623
844.571	23558
844.708	23516
844.844	23627
844.98	23695
845.117	23729
845.253	23516
845.389	23444
845.525	23448
845.661	23360
845.798	23341
845.934	23280
846.07	23288
846.206	23326
846.342	23356
846.478	23303
846.614	23006
846.75	22869
846.886	23018
847.022	23033
847.158	22968
847.294	23041
847.429	23048
847.565	22919
847.701	23162
847.837	22740
847.972	22793
848.108	22889
848.244	22797
848.379	22664
848.515	22554
848.65	22512
848.786	22550
848.921	22489
849.057	22782
849.192	22759
849.328	22527
849.463	22535
849.598	22546
849.734	22382
849.869	22436
850.004	22405
850.14	22333
850.275	22284
850.41	22147
850.545	22249
850.68	22230
850.815	22272
850.95	22310
851.085	22535
851.22	22363
851.355	22230
851.49	22230
851.625	22291
851.76	22246
851.895	22116
852.03	22257
852.165	22124
852.299	22432
852.434	22344
852.569	22265
852.703	22295
852.838	22306
852.973	22356
853.107	22394
853.242	22246
853.376	22078
853.511	22021
853.645	22051
853.78	22200
853.914	22086
854.048	22029
854.183	22131
854.317	22116
854.451	22318
854.585	22124
854.72	22131
854.854	22150
854.988	22051
855.122	22059
855.256	21972
855.39	22021
855.524	22120
855.658	22158
855.792	22162
855.926	22090
856.06	22032
856.194	22109
856.327	22059
856.461	21979
856.595	22063
856.729	22166
856.862	22101
856.996	22059
857.13	22135
857.263	22272
857.397	22059
857.53	22029
857.664	22021
857.797	22135
857.931	22314
858.064	22078
858.197	22192
858.331	22021
858.464	22006
858.597	22006
858.731	21964
858.864	21911
858.997	21888
859.13	21975
859.263	22090
859.396	22032
859.529	21972
859.662	22013
859.795	22040
859.928	22032
860.061	22131
860.194	22211
860.327	22032
860.46	22021
860.592	22120
860.725	22188
860.858	22166
860.99	22010
861.123	22063
861.256	21930
861.388	22010
861.521	22649
861.653	21979
861.786	21835
861.918	21873
862.05	21994
862.183	22048
862.315	21998
862.447	22097
862.58	22051
862.712	21778
862.844	21682
862.976	21732
863.108	21869
863.24	22246
863.372	21694
863.504	21770
863.636	21648
863.768	21686
863.9	21709
864.032	21679
864.164	21610
864.296	21747
864.428	21793
864.559	21778
864.691	21876
864.823	21755
864.954	21732
865.086	21660
865.217	21614
865.349	21545
865.48	21530
865.612	21580
865.743	21755
865.875	21545
866.006	21572
866.137	21644
866.269	21534
866.4	21576
866.531	21492
866.662	21424
866.793	21515
866.924	21545
867.055	21587
867.186	21568
867.317	21553
867.448	21401
867.579	21606
867.71	21507
867.841	21374
867.972	21519
868.103	21435
868.233	21519
868.364	21538
868.495	21701
868.625	21778
868.756	21728
868.886	21629
869.017	21736
869.147	21854
869.278	21915
869.408	21751
869.539	21861
869.669	21869
869.799	21831
869.929	21747
870.06	21846
870.19	22185
870.32	21979
870.45	22082
870.58	22120
870.71	22196
870.84	22158
870.97	22173
871.1	22139
871.23	22280
871.36	22287
871.489	22272
871.619	22352
871.749	22325
871.879	22394
872.008	22417
872.138	22409
872.267	22421
872.397	22207
872.526	22139
872.656	22230
872.785	22200
872.915	22398
873.044	22409
873.173	22352
873.303	22363
873.432	22478
873.561	22493
873.69	22504
873.819	22440
873.948	22470
874.077	22299
874.206	22390
874.335	22455
874.464	22523
874.593	22649
874.722	22641
874.851	22809
874.979	22577
875.108	22683
875.237	22653
875.365	22489
875.494	22660
875.623	22717
875.751	22577
875.88	22675
876.008	22755
876.136	22725
876.265	23052
876.393	23056
876.521	23014
876.65	23071
876.778	23071
876.906	22900
877.034	22869
877.162	23018
877.29	22873
877.418	22915
877.546	23006
877.674	22854
877.802	22972
877.93	22911
878.058	22919
878.185	22873
878.313	22980
878.441	23037
878.568	22790
878.696	22812
878.824	22968
878.951	23033
879.079	23010
879.206	23117
879.333	23162
879.461	23022
879.588	23132
879.715	23117
879.842	23155
879.97	22995
880.097	22805
880.224	22763
880.351	22820
880.478	22786
880.605	22763
880.732	22812
880.859	22923
880.986	22752
881.112	22869
881.239	22702
881.366	22531
881.493	22409
881.619	22367
881.746	22306
881.872	22344
881.999	22344
882.125	22158
882.252	22398
882.378	22303
882.505	22516
882.631	22253
882.757	22116
882.883	22147
883.01	22010
883.136	21911
883.262	21930
883.388	21751
883.514	21960
883.64	22074
883.766	21926
883.892	21854
884.018	21884
884.143	21953
884.269	21960
884.395	21762
884.52	21717
884.646	21770
884.772	21667
884.897	21576
885.023	21751
885.148	21812
885.274	21892
885.399	21762
885.524	21614
885.65	21618
885.775	21656
885.9	21663
886.025	21751
886.15	21690
886.275	21667
886.4	21481
886.525	21660
886.65	21576
886.775	21507
886.9	21701
887.025	21808
887.149	21595
887.274	21408
887.399	21447
887.523	21412
887.648	21420
887.773	21321
887.897	21408
888.021	21488
888.146	21359
888.27	21538
888.395	21572
888.519	21397
888.643	21393
888.767	21378
888.891	21302
889.015	21233
889.139	21279
889.263	21169
889.387	21287
889.511	21500
889.635	21408
889.759	21176
889.883	21180
890.006	21272
890.13	21199
890.254	21020
890.377	21123
890.501	20921
890.624	20918
890.748	21028
890.871	20925
890.995	20609
891.118	20796
891.241	20758
891.364	20727
891.488	20796
891.611	20724
891.734	20750
891.857	20857
891.98	20720
892.103	20842
892.226	20689
892.349	20682
892.471	20465
892.594	20545
892.717	20716
892.839	20701
892.962	20674
893.085	20746
893.207	20697
893.33	20537
893.452	20537
893.575	20693
893.697	20579
893.819	20644
893.941	20826
894.064	20701
894.186	20697
894.308	20606
894.43	20689
894.552	20834
894.674	20712
894.796	20526
894.918	20587
895.04	20674
895.161	20640
895.283	20640
895.405	20507
895.526	20606
895.648	20606
895.769	20678
895.891	20621
896.012	20712
896.134	20625
896.255	20598
896.376	20655
896.498	20693
896.619	20625
896.74	20705
896.861	20750
896.982	20994
897.103	21123
897.224	20937
897.345	20895
897.466	20880
897.587	20902
897.708	21077
897.828	20960
897.949	20758
898.07	20712
898.19	20842
898.311	20857
898.431	20914
898.552	20777
898.672	20902
898.792	20811
898.913	20815
899.033	20705
899.153	20667
899.273	20541
899.393	20522
899.513	20537
899.633	20556
899.753	20560
899.873	20552
899.993	20667
900.113	20514
900.232	20450
900.352	20461
900.472	20332
900.591	20195
900.711	20267
900.83	20347
900.95	20396
901.069	20381
901.189	20214
901.308	19959
901.427	19894
901.546	19811
901.665	20024
901.784	19955
901.904	19761
902.023	19643
902.141	19449
902.26	19457
902.379	19468
902.498	19346
902.617	19373
902.735	19362
902.854	19430
902.973	19266
903.091	19110
903.21	18981
903.328	19019
903.446	19023
903.565	18928
903.683	18783
903.801	18722
903.919	18852
904.038	18829
904.156	18604
904.274	18627
904.392	18540
904.51	18696
904.627	18513
904.745	18646
904.863	18650
904.981	18509
905.098	18327
905.216	18220
905.334	18289
905.451	18327
905.569	18220
905.686	18174
905.803	18239
905.921	17904
906.038	18106
906.155	18068
906.272	17973
906.389	17984
906.506	17729
906.623	17748
906.74	17786
906.857	17676
906.974	17699
907.091	17824
907.208	17889
907.324	17851
907.441	17737
907.557	17471
907.674	17444
907.79	17463
907.907	17436
908.023	17585
908.139	17398
908.256	17444
908.372	17379
908.488	17299
908.604	17162
908.72	17147
908.836	17189
908.952	17200
909.068	17204
909.184	17174
909.3	17162
909.415	17284
909.531	17147
909.647	16885
909.762	16892
909.878	16809
909.993	16976
910.108	16877
910.224	16812
910.339	16774
910.454	16687
910.57	16717
910.685	16622
910.8	16839
910.915	16736
911.03	16615
911.145	16504
911.259	16455
911.374	16379
911.489	16268
911.604	16303
911.718	16253
911.833	16207
911.947	16071
912.062	16143
912.176	16192
912.291	16257
912.405	16226
912.519	16405
912.633	16329
912.748	16105
912.862	16143
912.976	15915
913.09	15778
913.204	15915
913.318	16021
913.431	16074
913.545	16044
913.659	16093
913.772	15937
913.886	15876
914	15755
914.113	15759
914.226	15838
914.34	15846
914.453	15694
914.566	15895
914.68	15511
914.793	15648
914.906	15530
915.019	15340
915.132	15397
915.245	15313
915.358	15405
915.47	15428
915.583	15397
915.696	15435
915.809	15462
915.921	15561
916.034	15359
916.146	15214
916.259	15256
916.371	15298
916.483	15386
916.595	15131
916.708	15173
916.82	15222
916.932	15104
917.044	15116
917.156	15089
917.268	15039
917.38	15036
917.491	15009
917.603	15001
917.715	15051
917.826	15077
917.938	14887
918.049	14796
918.161	15024
918.272	15047
918.384	15039
918.495	14929
918.606	14724
918.717	14689
918.828	14746
918.939	14697
919.05	14689
919.161	14720
919.272	14454
919.383	14651
919.494	14826
919.604	14883
919.715	14678
919.826	14659
919.936	14739
920.047	14826
920.157	14693
920.267	14788
920.378	14670
920.488	14655
920.598	14781
920.708	15047
920.818	14815
920.928	14811
921.038	15005
921.148	14971
921.258	14682
921.368	14537
921.477	14396
921.587	14484
921.697	14336
921.806	14438
921.916	14210
922.025	14153
922.134	14035
922.244	14111
922.353	14035
922.462	13906
922.571	13902
922.68	13670
922.789	13567
922.898	13639
923.007	13597
923.116	13712
923.224	13662
923.333	13616
923.442	13624
923.55	13533
923.659	13578
923.767	13639
923.876	13514
923.984	13548
924.092	13350
924.201	13445
924.309	13457
924.417	13430
924.525	13400
924.633	13354
924.741	14149
924.849	13133
924.956	13274
925.064	13091
925.172	13099
925.279	13137
925.387	13103
925.494	12996
925.602	13187
925.709	13126
925.816	13019
925.924	13088
926.031	13072
926.138	13050
926.245	13168
926.352	12920
926.459	13042
926.566	13110
926.673	12920
926.779	12821
926.886	12848
926.993	12646
927.099	12559
927.206	12456
927.312	12585
927.419	12703
927.525	12601
927.631	12681
927.737	12475
927.843	12372
927.95	12372
928.056	12456
928.162	12517
928.267	12475
928.373	13118
928.479	12563
928.585	12323
928.69	12384
928.796	12407
928.901	12403
929.007	12190
929.112	12369
929.218	12315
929.323	12213
929.428	12190
929.533	12395
929.638	12140
929.743	12144
929.848	12239
929.953	12106
930.058	12030
930.163	11847
930.267	11843
930.372	11942
930.477	11847
930.581	12060
930.685	11946
930.79	11813
930.894	11737
930.998	11634
931.103	11824
931.207	11467
931.311	11414
931.415	11265
931.519	11090
931.623	11102
