Data from test_V78500241_2951.txt Node
Date: Fri Mar 25 16:02:14 CST 2022
User: usil
Spectrometer: V785-0024
Trigger mode: 0
Integration Time (sec): 4.000000E-1
Scans to average: 1
Nonlinearity correction enabled: false
Boxcar width: 0
Storing dark spectrum: false
XAxis mode: Wavelengths
Number of Pixels in Spectrum: 1024
>>>>>Begin Spectral Data<<<<<
801.071	28877
801.214	28637
801.356	28664
801.499	28603
801.641	28462
801.783	28417
801.926	28440
802.068	28367
802.211	28287
802.353	28192
802.496	28196
802.638	28112
802.78	27991
802.923	28002
803.065	28029
803.208	27972
803.35	27979
803.492	28265
803.635	28478
803.777	28154
803.919	28363
804.061	28546
804.204	28299
804.346	28215
804.488	28363
804.63	28280
804.773	28386
804.915	28268
805.057	28516
805.199	28249
805.341	28497
805.483	28451
805.626	28356
805.768	28409
805.91	28527
806.052	28607
806.194	28306
806.336	28687
806.478	28322
806.62	28344
806.762	28664
806.904	28847
807.046	28927
807.188	28927
807.33	28949
807.472	29033
807.614	28755
807.756	28881
807.898	28812
808.04	28653
808.182	28706
808.324	28736
808.465	28816
808.607	29048
808.749	29189
808.891	29242
809.033	29543
809.174	29132
809.316	29136
809.458	29212
809.6	29208
809.741	29277
809.883	29235
810.025	29501
810.166	29467
810.308	29524
810.45	29410
810.591	29433
810.733	29231
810.875	29208
811.016	29200
811.158	29204
811.299	29360
811.441	29379
811.582	29303
811.724	29258
811.865	29216
812.007	29227
812.148	29356
812.29	29239
812.431	29414
812.573	29467
812.714	29627
812.855	29760
812.997	29859
813.138	29908
813.279	29767
813.421	29862
813.562	29805
813.703	29467
813.845	29421
813.986	29136
814.127	29151
814.268	28927
814.41	28850
814.551	28965
814.692	28915
814.833	28748
814.974	28915
815.115	28900
815.256	28900
815.397	28809
815.539	28748
815.68	28782
815.821	28546
815.962	28668
816.103	28634
816.244	28668
816.385	28504
816.526	28577
816.666	28318
816.807	28150
816.948	28375
817.089	28337
817.23	28158
817.371	28234
817.512	28223
817.653	28238
817.793	28120
817.934	27987
818.075	28147
818.216	28192
818.356	28188
818.497	28181
818.638	28074
818.778	27892
818.919	27968
819.06	28067
819.2	28040
819.341	28249
819.481	28261
819.622	28348
819.762	28668
819.903	28538
820.043	28379
820.184	28382
820.324	28268
820.465	28333
820.605	28367
820.746	28257
820.886	28249
821.026	28306
821.167	28329
821.307	28538
821.447	28215
821.588	28272
821.728	27998
821.868	27827
822.008	27770
822.149	27766
822.289	27705
822.429	27481
822.569	27485
822.709	27393
822.849	27195
822.99	27275
823.13	27287
823.27	27188
823.41	26986
823.55	27028
823.69	26967
823.83	27058
823.97	26872
824.11	26853
824.25	26807
824.389	26925
824.529	27013
824.669	26861
824.809	26990
824.949	27020
825.089	26937
825.228	26830
825.368	26689
825.508	26678
825.648	26746
825.787	26655
825.927	26845
826.067	26731
826.206	26716
826.346	26842
826.485	26845
826.625	26758
826.765	26823
826.904	26724
827.044	26651
827.183	26556
827.323	26434
827.462	26450
827.601	26461
827.741	26514
827.88	26492
828.02	26290
828.159	26514
828.298	26431
828.437	26598
828.577	26294
828.716	26457
828.855	26442
828.994	26210
829.134	26145
829.273	26290
829.412	26107
829.551	25978
829.69	26103
829.829	26145
829.968	26237
830.107	26084
830.246	26168
830.385	26107
830.524	25989
830.663	25932
830.802	25860
830.941	25772
831.08	25761
831.219	25818
831.357	25921
831.496	26031
831.635	25757
831.774	25670
831.913	25681
832.051	25544
832.19	25529
832.329	25537
832.467	25438
832.606	25354
832.744	25403
832.883	25343
833.022	25411
833.16	25529
833.299	25453
833.437	25514
833.576	25453
833.714	25499
833.852	25590
833.991	25415
834.129	25575
834.267	25597
834.406	25571
834.544	25476
834.682	25552
834.821	25377
834.959	25647
835.097	25362
835.235	25529
835.373	25499
835.511	25381
835.65	25373
835.788	25324
835.926	25213
836.064	25122
836.202	25217
836.34	25460
836.478	25506
836.615	25228
836.753	25419
836.891	25487
837.029	25274
837.167	25187
837.305	25179
837.443	25160
837.58	25198
837.718	25232
837.856	25175
837.993	25183
838.131	25129
838.269	25061
838.406	24977
838.544	24996
838.681	24863
838.819	24859
838.956	24631
839.094	24669
839.231	24604
839.369	24741
839.506	24943
839.643	24951
839.781	24639
839.918	24399
840.055	24627
840.193	24570
840.33	24601
840.467	24547
840.604	24593
840.742	24875
840.879	24338
841.016	24372
841.153	24391
841.29	24585
841.427	24559
841.564	24502
841.701	24578
841.838	24441
841.975	24426
842.112	24410
842.249	24258
842.385	24342
842.522	24490
842.659	24414
842.796	24369
842.933	24342
843.069	24247
843.206	24296
843.343	24323
843.479	24262
843.616	24270
843.752	24095
843.889	24110
844.025	24209
844.162	24018
844.298	24125
844.435	24095
844.571	24041
844.708	24026
844.844	24194
844.98	24155
845.117	24133
845.253	23935
845.389	23965
845.525	23988
845.661	23935
845.798	23824
845.934	23904
846.07	23828
846.206	23832
846.342	23920
846.478	23748
846.614	23627
846.75	23387
846.886	23448
847.022	23547
847.158	23490
847.294	23433
847.429	23592
847.565	23554
847.701	23821
847.837	23178
847.972	23200
848.108	23353
848.244	23360
848.379	23223
848.515	23041
848.65	23109
848.786	23140
848.921	23109
849.057	23140
849.192	23178
849.328	23197
849.463	23128
849.598	23098
849.734	22923
849.869	23018
850.004	22862
850.14	22930
850.275	22873
850.41	22850
850.545	22828
850.68	22797
850.815	22919
850.95	22824
851.085	22908
851.22	22976
851.355	22740
851.49	22831
851.625	22904
851.76	22797
851.895	22755
852.03	22824
852.165	22850
852.299	22854
852.434	22877
852.569	22839
852.703	22797
852.838	22843
852.973	22946
853.107	22850
853.242	22725
853.376	22835
853.511	22634
853.645	22656
853.78	22850
853.914	22683
854.048	22664
854.183	22664
854.317	22713
854.451	22949
854.585	22774
854.72	22683
854.854	22790
854.988	22611
855.122	22820
855.256	22569
855.39	22660
855.524	22729
855.658	22778
855.792	22694
855.926	22523
856.06	22786
856.194	22793
856.327	22771
856.461	22660
856.595	22489
856.729	22630
856.862	22706
856.996	22774
857.13	22656
857.263	22721
857.397	22759
857.53	22691
857.664	22683
857.797	22786
857.931	22782
858.064	22725
858.197	22843
858.331	22641
858.464	22710
858.597	22557
858.731	22611
858.864	22554
858.997	22557
859.13	22618
859.263	22771
859.396	22786
859.529	22694
859.662	22569
859.795	22573
859.928	22721
860.061	22843
860.194	22885
860.327	22771
860.46	22774
860.592	22824
860.725	22873
860.858	22786
860.99	22694
861.123	22573
861.256	22748
861.388	22778
861.521	23528
861.653	22615
861.786	22497
861.918	22500
862.05	22546
862.183	22717
862.315	22752
862.447	22679
862.58	22630
862.712	22402
862.844	22436
862.976	22466
863.108	22542
863.24	23022
863.372	22344
863.504	22523
863.636	22398
863.768	22504
863.9	22341
864.032	22276
864.164	22367
864.296	22341
864.428	22481
864.559	22440
864.691	22550
864.823	22523
864.954	22580
865.086	22436
865.217	22333
865.349	22246
865.48	22314
865.612	22204
865.743	22341
865.875	22337
866.006	22344
866.137	22249
866.269	22382
866.4	22230
866.531	22280
866.662	22166
866.793	22200
866.924	22177
867.055	22200
867.186	22265
867.317	22204
867.448	22150
867.579	22207
867.71	22143
867.841	22154
867.972	22325
868.103	22158
868.233	22242
868.364	22147
868.495	22166
868.625	22329
868.756	22504
868.886	22466
869.017	22478
869.147	22508
869.278	22508
869.408	22382
869.539	22451
869.669	22561
869.799	22367
869.929	22683
870.06	22561
870.19	22767
870.32	22668
870.45	22733
870.58	22850
870.71	22968
870.84	22976
870.97	22866
871.1	22793
871.23	22934
871.36	23018
871.489	22915
871.619	22995
871.749	23025
871.879	23018
872.008	23159
872.138	22972
872.267	23014
872.397	22927
872.526	22824
872.656	22869
872.785	22911
872.915	23136
873.044	23117
873.173	23010
873.303	23117
873.432	23143
873.561	23128
873.69	23155
873.819	23117
873.948	23162
874.077	23071
874.206	23105
874.335	23064
874.464	23140
874.593	23406
874.722	23269
874.851	23417
874.979	23387
875.108	23162
875.237	23334
875.365	23277
875.494	23227
875.623	23318
875.751	23208
875.88	23402
876.008	23395
876.136	23478
876.265	23672
876.393	23714
876.521	23790
876.65	23821
876.778	23752
876.906	23611
877.034	23535
877.162	23710
877.29	23589
877.418	23547
877.546	23585
877.674	23703
877.802	23638
877.93	23619
878.058	23589
878.185	23531
878.313	23566
878.441	23547
878.568	23440
878.696	23531
878.824	23615
878.951	23535
879.079	23836
879.206	23874
879.333	23878
879.461	23516
879.588	23722
879.715	23737
879.842	23809
879.97	23741
880.097	23512
880.224	23425
880.351	23493
880.478	23353
880.605	23478
880.732	23391
880.859	23608
880.986	23395
881.112	23395
881.239	23318
881.366	23147
881.493	23124
881.619	23075
881.746	23064
881.872	22919
881.999	22984
882.125	22968
882.252	23029
882.378	22965
882.505	23056
882.631	22820
882.757	22675
882.883	22717
883.01	22634
883.136	22474
883.262	22512
883.388	22565
883.514	22694
883.64	22713
883.766	22523
883.892	22428
884.018	22451
884.143	22542
884.269	22797
884.395	22428
884.52	22204
884.646	22379
884.772	22268
884.897	22192
885.023	22268
885.148	22421
885.274	22409
885.399	22424
885.524	22344
885.65	22375
885.775	22291
885.9	22192
886.025	22459
886.15	22287
886.275	22204
886.4	22185
886.525	22341
886.65	22238
886.775	22242
886.9	22443
887.025	22474
887.149	22253
887.274	22040
887.399	22093
887.523	22067
887.648	22006
887.773	22006
887.897	22082
888.021	22105
888.146	21888
888.27	22036
888.395	22063
888.519	22116
888.643	22044
888.767	22013
888.891	21972
889.015	21816
889.139	21998
889.263	21804
889.387	21941
889.511	22021
889.635	21895
889.759	21915
889.883	21778
890.006	21770
890.13	21831
890.254	21808
890.377	21743
890.501	21610
890.624	21549
890.748	21599
890.871	21526
890.995	21424
891.118	21332
891.241	21351
891.364	21473
891.488	21447
891.611	21450
891.734	21420
891.857	21393
891.98	21485
892.103	21344
892.226	21363
892.349	21291
892.471	21070
892.594	21348
892.717	21420
892.839	21272
892.962	21363
893.085	21214
893.207	21450
893.33	21180
893.452	21138
893.575	21275
893.697	21237
893.819	21367
893.941	21447
894.064	21477
894.186	21188
894.308	21226
894.43	21344
894.552	21443
894.674	21233
894.796	21169
894.918	21222
895.04	21230
895.161	21169
895.283	21294
895.405	21161
895.526	21272
895.648	21272
895.769	21226
895.891	21291
896.012	21302
896.134	21207
896.255	21241
896.376	21184
896.498	21199
896.619	21306
896.74	21310
896.861	21176
896.982	21625
897.103	21667
897.224	21507
897.345	21462
897.466	21389
897.587	21481
897.708	21629
897.828	21458
897.949	21412
898.07	21344
898.19	21351
898.311	21496
898.431	21344
898.552	21439
898.672	21462
898.792	21614
898.913	21485
899.033	21428
899.153	21119
899.273	21230
899.393	21161
899.513	21203
899.633	21203
899.753	21161
899.873	21146
899.993	21142
900.113	21188
900.232	21112
900.352	21055
900.472	20948
900.591	20899
900.711	20952
900.83	21032
900.95	20998
901.069	20986
901.189	20883
901.308	20796
901.427	20587
901.546	20518
901.665	20511
901.784	20530
901.904	20393
902.023	20218
902.141	20153
902.26	19947
902.379	20043
902.498	19925
902.617	19955
902.735	20111
902.854	19944
902.973	19982
903.091	19818
903.21	19704
903.328	19613
903.446	19487
903.565	19472
903.683	19495
903.801	19407
903.919	19441
904.038	19403
904.156	19259
904.274	19335
904.392	19183
904.51	19198
904.627	19171
904.745	19236
904.863	19270
904.981	19012
905.098	18939
905.216	18829
905.334	19042
905.451	18859
905.569	18806
905.686	18882
905.803	18791
905.921	18650
906.038	18776
906.155	18688
906.272	18483
906.389	18582
906.506	18380
906.623	18369
906.74	18467
906.857	18266
906.974	18407
907.091	18441
907.208	18521
907.324	18372
907.441	18213
907.557	18205
907.674	18171
907.79	18102
907.907	18087
908.023	18087
908.139	18201
908.256	18068
908.372	17980
908.488	18019
908.604	17821
908.72	17771
908.836	17843
908.952	17752
909.068	17889
909.184	17923
909.3	17836
909.415	17843
909.531	17748
909.647	17623
909.762	17463
909.878	17452
909.993	17566
910.108	17379
910.224	17429
910.339	17486
910.454	17421
910.57	17242
910.685	17170
910.8	17520
910.915	17444
911.03	17208
911.145	17128
911.259	17223
911.374	17151
911.489	17045
911.604	16866
911.718	16904
911.833	16911
911.947	16786
912.062	16691
912.176	16831
912.291	16824
912.405	16778
912.519	16968
912.633	17056
912.748	16759
912.862	16767
912.976	16630
913.09	16493
913.204	16630
913.318	16656
913.431	16679
913.545	16801
913.659	16790
913.772	16660
913.886	16459
914	16409
914.113	16481
914.226	16546
914.34	16421
914.453	16333
914.566	16478
914.68	16341
914.793	16261
914.906	16071
915.019	15994
915.132	16010
915.245	15884
915.358	15941
915.47	15918
915.583	15983
915.696	15945
915.809	16105
915.921	16116
916.034	15994
916.146	15808
916.259	15880
916.371	15949
916.483	15964
916.595	15789
916.708	15785
916.82	15865
916.932	15854
917.044	15713
917.156	15766
917.268	15667
917.38	15637
917.491	15633
917.603	15614
917.715	15793
917.826	15644
917.938	15561
918.049	15523
918.161	15606
918.272	15614
918.384	15698
918.495	15591
918.606	15477
918.717	15241
918.828	15416
918.939	15397
919.05	15344
919.161	15351
919.272	15127
919.383	15165
919.494	15348
919.604	15568
919.715	15351
919.826	15184
919.936	15424
920.047	15401
920.157	15287
920.267	15473
920.378	15458
920.488	15279
920.598	15481
920.708	15507
920.818	15450
920.928	15485
921.038	15633
921.148	15431
921.258	15249
921.368	15214
921.477	15100
921.587	15013
921.697	14933
921.806	14921
921.916	14971
922.025	14762
922.134	14686
922.244	14663
922.353	14667
922.462	14556
922.571	14560
922.68	14358
922.789	14275
922.898	14278
923.007	14252
923.116	14298
923.224	14267
923.333	14218
923.442	14187
923.55	14103
923.659	14161
923.767	14123
923.876	14100
923.984	14092
924.092	14024
924.201	14092
924.309	14039
924.417	14008
924.525	13917
924.633	13921
924.741	14667
924.849	13769
924.956	13852
925.064	13784
925.172	13723
925.279	13765
925.387	13731
925.494	13746
925.602	13826
925.709	13662
925.816	13689
925.924	13567
926.031	13662
926.138	13586
926.245	13616
926.352	13506
926.459	13655
926.566	13704
926.673	13502
926.779	13476
926.886	13476
926.993	13324
927.099	13350
927.206	13202
927.312	13133
927.419	13301
927.525	13080
927.631	13327
927.737	13080
927.843	13038
927.95	12901
928.056	13027
928.162	13179
928.267	13046
928.373	13738
928.479	13126
928.585	12901
928.69	13027
928.796	13076
928.901	12878
929.007	12764
929.112	12886
929.218	12783
929.323	12814
929.428	12848
929.533	12947
929.638	12798
929.743	12703
929.848	12703
929.953	12688
930.058	12563
930.163	12437
930.267	12506
930.372	12559
930.477	12506
930.581	12555
930.685	12403
930.79	12308
930.894	12315
930.998	12197
931.103	12407
931.207	12129
931.311	12064
931.415	11843
931.519	11684
931.623	11608
