Data from test_V78500241_84.txt Node
Date: Fri Mar 25 15:42:23 CST 2022
User: usil
Spectrometer: V785-0024
Trigger mode: 0
Integration Time (sec): 4.000000E-1
Scans to average: 1
Nonlinearity correction enabled: false
Boxcar width: 0
Storing dark spectrum: false
XAxis mode: Wavelengths
Number of Pixels in Spectrum: 1024
>>>>>Begin Spectral Data<<<<<
801.071	30034
801.214	29923
801.356	29908
801.499	29630
801.641	29570
801.783	29448
801.926	29710
802.068	29566
802.211	29330
802.353	29467
802.496	29356
802.638	29200
802.78	29170
802.923	29181
803.065	29147
803.208	29121
803.35	29269
803.492	29284
803.635	29345
803.777	29307
803.919	29303
804.061	29577
804.204	29471
804.346	29322
804.488	29109
804.63	29303
804.773	29284
804.915	29246
805.057	29406
805.199	29147
805.341	29303
805.483	29421
805.626	29299
805.768	29284
805.91	29391
806.052	29482
806.194	29341
806.336	29600
806.478	29387
806.62	29387
806.762	29577
806.904	29486
807.046	29916
807.188	29802
807.33	29733
807.472	29942
807.614	29756
807.756	29672
807.898	29581
808.04	29406
808.182	29486
808.324	29619
808.465	29604
808.607	29638
808.749	29923
808.891	30038
809.033	30129
809.174	30068
809.316	29893
809.458	29901
809.6	30041
809.741	30144
809.883	30053
810.025	30209
810.166	30079
810.308	30182
810.45	30129
810.591	30072
810.733	29885
810.875	29984
811.016	29828
811.158	29817
811.299	29920
811.441	30015
811.582	30178
811.724	29862
811.865	29855
812.007	29988
812.148	29908
812.29	29855
812.431	29862
812.573	30144
812.714	30391
812.855	30551
812.997	30475
813.138	30627
813.279	30521
813.421	30346
813.562	30334
813.703	30258
813.845	30045
813.986	29764
814.127	29634
814.268	29649
814.41	29551
814.551	29589
814.692	29585
814.833	29455
814.974	29463
815.115	29630
815.256	29452
815.397	29254
815.539	29356
815.68	29280
815.821	29147
815.962	29181
816.103	29231
816.244	29189
816.385	28934
816.526	28965
816.666	28790
816.807	28622
816.948	28835
817.089	28850
817.23	28706
817.371	28580
817.512	28691
817.653	28607
817.793	28516
817.934	28641
818.075	28622
818.216	28596
818.356	28459
818.497	28409
818.638	28116
818.778	28367
818.919	28375
819.06	28394
819.2	28382
819.341	28550
819.481	28531
819.622	28592
819.762	28919
819.903	28835
820.043	28717
820.184	28797
820.324	28634
820.465	28790
820.605	28580
820.746	28599
820.886	28500
821.026	28584
821.167	28504
821.307	28744
821.447	28603
821.588	28428
821.728	28329
821.868	28040
822.008	28112
822.149	27907
822.289	27953
822.429	27625
822.569	27618
822.709	27538
822.849	27488
822.99	27443
823.13	27317
823.27	27294
823.41	27199
823.55	27005
823.69	27165
823.83	27199
823.97	27218
824.11	27051
824.25	26986
824.389	27043
824.529	27036
824.669	26937
824.809	27180
824.949	27043
825.089	27062
825.228	27005
825.368	26864
825.508	26823
825.648	26876
825.787	26883
825.927	27036
826.067	26765
826.206	26819
826.346	26735
826.485	26861
826.625	26762
826.765	26948
826.904	26815
827.044	26621
827.183	26370
827.323	26419
827.462	26518
827.601	26530
827.741	26377
827.88	26442
828.02	26385
828.159	26442
828.298	26503
828.437	26503
828.577	26400
828.716	26404
828.855	26339
828.994	26305
829.134	26103
829.273	26324
829.412	26119
829.551	25997
829.69	26005
829.829	26084
829.968	26149
830.107	26077
830.246	26138
830.385	26050
830.524	25982
830.663	25898
830.802	25681
830.941	25704
831.08	25594
831.219	25738
831.357	25795
831.496	25883
831.635	25651
831.774	25639
831.913	25540
832.051	25487
832.19	25430
832.329	25544
832.467	25346
832.606	25289
832.744	25221
832.883	25373
833.022	25240
833.16	25259
833.299	25240
833.437	25213
833.576	25312
833.714	25324
833.852	25339
833.991	25297
834.129	25358
834.267	25358
834.406	25190
834.544	25312
834.682	25324
834.821	25225
834.959	25362
835.097	25107
835.235	25190
835.373	25148
835.511	25289
835.65	25126
835.788	25179
835.926	24935
836.064	25050
836.202	24932
836.34	25038
836.478	25133
836.615	25023
836.753	25084
836.891	25107
837.029	25012
837.167	24947
837.305	25057
837.443	24844
837.58	24772
837.718	24863
837.856	24875
837.993	24920
838.131	24848
838.269	24783
838.406	24722
838.544	24646
838.681	24589
838.819	24483
838.956	24334
839.094	24300
839.231	24285
839.369	24357
839.506	24646
839.643	24540
839.781	24315
839.918	24117
840.055	24235
840.193	24239
840.33	24129
840.467	24232
840.604	24178
840.742	24467
840.879	23912
841.016	24167
841.153	24003
841.29	24262
841.427	24262
841.564	24216
841.701	23942
841.838	24174
841.975	23969
842.112	23916
842.249	24011
842.385	23817
842.522	24057
842.659	23859
842.796	23897
842.933	23836
843.069	23764
843.206	23824
843.343	23885
843.479	23779
843.616	23627
843.752	23490
843.889	23539
844.025	23699
844.162	23528
844.298	23570
844.435	23356
844.571	23516
844.708	23440
844.844	23634
844.98	23615
845.117	23726
845.253	23303
845.389	23398
845.525	23482
845.661	23334
845.798	23242
845.934	23315
846.07	23117
846.206	23273
846.342	23356
846.478	23349
846.614	23060
846.75	22892
846.886	23098
847.022	22991
847.158	22976
847.294	23025
847.429	23006
847.565	22938
847.701	23113
847.837	22698
847.972	22702
848.108	22759
848.244	22721
848.379	22493
848.515	22516
848.65	22508
848.786	22523
848.921	22459
849.057	22508
849.192	22645
849.328	22489
849.463	22451
849.598	22432
849.734	22371
849.869	22322
850.004	22188
850.14	22325
850.275	22246
850.41	22135
850.545	22196
850.68	22223
850.815	22234
850.95	22226
851.085	22421
851.22	22360
851.355	22238
851.49	22173
851.625	22139
851.76	22154
851.895	22143
852.03	22162
852.165	22185
852.299	22268
852.434	22276
852.569	22268
852.703	22158
852.838	22272
852.973	22280
853.107	22333
853.242	22097
853.376	21964
853.511	21953
853.645	22021
853.78	22131
853.914	22124
854.048	21846
854.183	21903
854.317	22059
854.451	22162
854.585	21930
854.72	21930
854.854	22082
854.988	22002
855.122	21964
855.256	21869
855.39	22048
855.524	22200
855.658	21987
855.792	21915
855.926	21972
856.06	22021
856.194	22055
856.327	21941
856.461	21949
856.595	21991
856.729	22013
856.862	21979
856.996	21823
857.13	21941
857.263	22010
857.397	22036
857.53	21960
857.664	21892
857.797	22002
857.931	22051
858.064	21956
858.197	22032
858.331	21854
858.464	21762
858.597	21816
858.731	21968
858.864	21873
858.997	21949
859.13	21854
859.263	21827
859.396	21907
859.529	21956
859.662	21884
859.795	21816
859.928	21865
860.061	22101
860.194	22128
860.327	21911
860.46	21869
860.592	22002
860.725	21953
860.858	21972
860.99	21823
861.123	21816
861.256	21808
861.388	21812
861.521	22394
861.653	21553
861.786	21762
861.918	21869
862.05	21732
862.183	22002
862.315	21915
862.447	22021
862.58	21991
862.712	21629
862.844	21606
862.976	21682
863.108	21606
863.24	21915
863.372	21477
863.504	21515
863.636	21610
863.768	21618
863.9	21587
864.032	21580
864.164	21500
864.296	21515
864.428	21549
864.559	21564
864.691	21641
864.823	21568
864.954	21580
865.086	21424
865.217	21424
865.349	21332
865.48	21439
865.612	21439
865.743	21580
865.875	21431
866.006	21549
866.137	21397
866.269	21469
866.4	21496
866.531	21397
866.662	21283
866.793	21325
866.924	21424
867.055	21538
867.186	21370
867.317	21348
867.448	21275
867.579	21256
867.71	21226
867.841	21138
867.972	21458
868.103	21340
868.233	21317
868.364	21355
868.495	21401
868.625	21534
868.756	21698
868.886	21534
869.017	21408
869.147	21701
869.278	21629
869.408	21591
869.539	21561
869.669	21682
869.799	21622
869.929	21736
870.06	21568
870.19	21751
870.32	21747
870.45	21964
870.58	21907
870.71	21998
870.84	22048
870.97	21953
871.1	22040
871.23	22074
871.36	22192
871.489	22177
871.619	22063
871.749	22143
871.879	22162
872.008	22303
872.138	22356
872.267	22230
872.397	22082
872.526	22025
872.656	22010
872.785	21964
872.915	22173
873.044	22337
873.173	22135
873.303	22112
873.432	22306
873.561	22261
873.69	22242
873.819	22154
873.948	22337
874.077	22238
874.206	22044
874.335	22154
874.464	22310
874.593	22443
874.722	22489
874.851	22462
874.979	22535
875.108	22398
875.237	22352
875.365	22325
875.494	22474
875.623	22466
875.751	22379
875.88	22390
876.008	22733
876.136	22649
876.265	22877
876.393	22923
876.521	22820
876.65	22809
876.778	22862
876.906	22786
877.034	22801
877.162	22839
877.29	22634
877.418	22744
877.546	22805
877.674	22824
877.802	22687
877.93	22725
878.058	22675
878.185	22645
878.313	22858
878.441	22843
878.568	22653
878.696	22725
878.824	22793
878.951	22816
879.079	22801
879.206	23151
879.333	22828
879.461	22801
879.588	22869
879.715	22919
879.842	23090
879.97	22877
880.097	22603
880.224	22599
880.351	22733
880.478	22599
880.605	22500
880.732	22641
880.859	22725
880.986	22603
881.112	22531
881.239	22474
881.366	22238
881.493	22348
881.619	22101
881.746	22200
881.872	22211
881.999	22234
882.125	22074
882.252	22272
882.378	22280
882.505	22196
882.631	22105
882.757	21964
882.883	22044
883.01	21968
883.136	21888
883.262	21728
883.388	21644
883.514	21903
883.64	22082
883.766	21812
883.892	21671
884.018	21884
884.143	21850
884.269	21899
884.395	21644
884.52	21564
884.646	21454
884.772	21587
884.897	21488
885.023	21603
885.148	21637
885.274	21698
885.399	21462
885.524	21523
885.65	21557
885.775	21485
885.9	21477
886.025	21648
886.15	21549
886.275	21355
886.4	21454
886.525	21431
886.65	21382
886.775	21526
886.9	21500
887.025	21568
887.149	21424
887.274	21294
887.399	21214
887.523	21298
887.648	21039
887.773	21112
887.897	21302
888.021	21291
888.146	21108
888.27	21412
888.395	21272
888.519	21119
888.643	21351
888.767	21252
888.891	21047
889.015	21024
889.139	21089
889.263	20952
889.387	21123
889.511	21287
889.635	21066
889.759	21036
889.883	20861
890.006	21039
890.13	21093
890.254	20899
890.377	20986
890.501	20735
890.624	20632
890.748	20838
890.871	20659
890.995	20537
891.118	20419
891.241	20636
891.364	20609
891.488	20693
891.611	20575
891.734	20526
891.857	20686
891.98	20503
892.103	20640
892.226	20731
892.349	20450
892.471	20358
892.594	20499
892.717	20609
892.839	20347
892.962	20499
893.085	20492
893.207	20518
893.33	20294
893.452	20374
893.575	20655
893.697	20454
893.819	20708
893.941	20644
894.064	20598
894.186	20450
894.308	20343
894.43	20587
894.552	20530
894.674	20549
894.796	20252
894.918	20473
895.04	20434
895.161	20549
895.283	20499
895.405	20351
895.526	20495
895.648	20469
895.769	20351
895.891	20609
896.012	20560
896.134	20552
896.255	20549
896.376	20469
896.498	20446
896.619	20537
896.74	20606
896.861	20617
896.982	20853
897.103	20979
897.224	20834
897.345	20765
897.466	20648
897.587	20758
897.708	20948
897.828	20712
897.949	20724
898.07	20632
898.19	20560
898.311	20762
898.431	20480
898.552	20693
898.672	20667
898.792	20762
898.913	20655
899.033	20507
899.153	20381
899.273	20244
899.393	20438
899.513	20317
899.633	20324
899.753	20385
899.873	20286
899.993	20309
900.113	20343
900.232	20431
900.352	20240
900.472	20161
900.591	20172
900.711	20107
900.83	20077
900.95	20362
901.069	20317
901.189	20157
901.308	19849
901.427	19689
901.546	19814
901.665	19715
901.784	19696
901.904	19624
902.023	19571
902.141	19289
902.26	19285
902.379	19362
902.498	19278
902.617	19274
902.735	19240
902.854	19145
902.973	19164
903.091	18825
903.21	18920
903.328	18894
903.446	18772
903.565	18745
903.683	18703
903.801	18597
903.919	18677
904.038	18551
904.156	18471
904.274	18536
904.392	18376
904.51	18319
904.627	18479
904.745	18490
904.863	18441
904.981	18213
905.098	18087
905.216	18251
905.334	18117
905.451	17999
905.569	18114
905.686	18144
905.803	18110
905.921	17961
906.038	17866
906.155	17859
906.272	17798
906.389	17874
906.506	17646
906.623	17619
906.74	17627
906.857	17535
906.974	17433
907.091	17714
907.208	17813
907.324	17577
907.441	17444
907.557	17353
907.674	17315
907.79	17223
907.907	17269
908.023	17277
908.139	17261
908.256	17235
908.372	17147
908.488	17098
908.604	17086
908.72	16942
908.836	16980
908.952	16889
909.068	17014
909.184	17098
909.3	16892
909.415	17029
909.531	16835
909.647	16653
909.762	16706
909.878	16717
909.993	16729
910.108	16675
910.224	16626
910.339	16554
910.454	16489
910.57	16424
910.685	16348
910.8	16626
910.915	16558
911.03	16382
911.145	16341
911.259	16192
911.374	16135
911.489	16143
911.604	16097
911.718	16025
911.833	15968
911.947	15888
912.062	15876
912.176	16025
912.291	15972
912.405	16078
912.519	16181
912.633	16139
912.748	15972
912.862	15838
912.976	15698
913.09	15576
913.204	15656
913.318	15774
913.431	15861
913.545	15800
913.659	15759
913.772	15759
913.886	15625
914	15511
914.113	15641
914.226	15622
914.34	15644
914.453	15469
914.566	15572
914.68	15447
914.793	15488
914.906	15298
915.019	15252
915.132	15176
915.245	15097
915.358	15226
915.47	15165
915.583	15154
915.696	15127
915.809	15344
915.921	15336
916.034	15135
916.146	15157
916.259	15017
916.371	15195
916.483	15097
916.595	14979
916.708	14887
916.82	15043
916.932	14906
917.044	14971
917.156	14925
917.268	14758
917.38	14861
917.491	14686
917.603	14804
917.715	14788
917.826	14956
917.938	14762
918.049	14686
918.161	14777
918.272	14944
918.384	14956
918.495	14765
918.606	14667
918.717	14530
918.828	14575
918.939	14629
919.05	14552
919.161	14541
919.272	14412
919.383	14423
919.494	14564
919.604	14670
919.715	14488
919.826	14324
919.936	14423
920.047	14560
920.157	14495
920.267	14693
920.378	14552
920.488	14514
920.598	14583
920.708	14735
920.818	14629
920.928	14651
921.038	14792
921.148	14826
921.258	14434
921.368	14305
921.477	14225
921.587	14278
921.697	14035
921.806	14225
921.916	14130
922.025	13955
922.134	13879
922.244	13909
922.353	13947
922.462	13791
922.571	13655
922.68	13559
922.789	13499
922.898	13472
923.007	13384
923.116	13457
923.224	13422
923.333	13377
923.442	13304
923.55	13285
923.659	13369
923.767	13381
923.876	13240
923.984	13316
924.092	13270
924.201	13217
924.309	13183
924.417	13183
924.525	13183
924.633	13095
924.741	13917
924.849	12981
924.956	13129
925.064	13000
925.172	12867
925.279	12791
925.387	12966
925.494	12993
925.602	13038
925.709	12928
925.816	12757
925.924	12783
926.031	12916
926.138	12852
926.245	12894
926.352	12760
926.459	12939
926.566	12890
926.673	12840
926.779	12646
926.886	12654
926.993	12521
927.099	12456
927.206	12445
927.312	12308
927.419	12426
927.525	12471
927.631	12479
927.737	12376
927.843	12239
927.95	12258
928.056	12319
928.162	12292
928.267	12346
928.373	12859
928.479	12353
928.585	12144
928.69	12289
928.796	12296
928.901	12049
929.007	12053
929.112	12194
929.218	12091
929.323	12015
929.428	11923
929.533	12114
929.638	12015
929.743	11931
929.848	11912
929.953	11992
930.058	11786
930.163	11737
930.267	11710
930.372	11889
930.477	11661
930.581	11908
930.685	11745
930.79	11562
930.894	11493
930.998	11535
931.103	11649
931.207	11246
931.311	11197
931.415	11140
931.519	10934
931.623	10991
