Data from test_V78500241_1340.txt Node
Date: Fri Mar 25 15:51:05 CST 2022
User: usil
Spectrometer: V785-0024
Trigger mode: 0
Integration Time (sec): 4.000000E-1
Scans to average: 1
Nonlinearity correction enabled: false
Boxcar width: 0
Storing dark spectrum: false
XAxis mode: Wavelengths
Number of Pixels in Spectrum: 1024
>>>>>Begin Spectral Data<<<<<
801.071	27983
801.214	28059
801.356	27724
801.499	27686
801.641	27675
801.783	27637
801.926	27705
802.068	27587
802.211	27511
802.353	27538
802.496	27348
802.638	27287
802.78	27214
802.923	27264
803.065	27169
803.208	27184
803.35	27237
803.492	27526
803.635	27511
803.777	27473
803.919	27587
804.061	27793
804.204	27663
804.346	27526
804.488	27405
804.63	27466
804.773	27572
804.915	27485
805.057	27690
805.199	27450
805.341	27359
805.483	27663
805.626	27633
805.768	27523
805.91	27724
806.052	27595
806.194	27667
806.336	27778
806.478	27671
806.62	27618
806.762	27930
806.904	27911
807.046	28162
807.188	28036
807.33	28086
807.472	28253
807.614	28044
807.756	28082
807.898	28002
808.04	27709
808.182	27838
808.324	27884
808.465	28029
808.607	28097
808.749	28261
808.891	28432
809.033	28645
809.174	28398
809.316	28169
809.458	28242
809.6	28257
809.741	28428
809.883	28508
810.025	28519
810.166	28519
810.308	28634
810.45	28611
810.591	28421
810.733	28310
810.875	28329
811.016	28211
811.158	28177
811.299	28261
811.441	28405
811.582	28500
811.724	28440
811.865	28421
812.007	28348
812.148	28344
812.29	28329
812.431	28584
812.573	28687
812.714	28733
812.855	28820
812.997	28972
813.138	28957
813.279	28843
813.421	28816
813.562	28736
813.703	28687
813.845	28569
813.986	28314
814.127	28059
814.268	27949
814.41	28051
814.551	28006
814.692	28131
814.833	27953
814.974	27930
815.115	27994
815.256	27903
815.397	27953
815.539	27694
815.68	27865
815.821	27713
815.962	27797
816.103	27755
816.244	27576
816.385	27625
816.526	27583
816.666	27306
816.807	27321
816.948	27298
817.089	27427
817.23	27386
817.371	27310
817.512	27241
817.653	27424
817.793	27275
817.934	27321
818.075	27367
818.216	27325
818.356	27355
818.497	27291
818.638	27062
818.778	27093
818.919	27039
819.06	27207
819.2	27294
819.341	27283
819.481	27207
819.622	27477
819.762	27736
819.903	27545
820.043	27488
820.184	27447
820.324	27340
820.465	27572
820.605	27462
820.746	27294
820.886	27192
821.026	27370
821.167	27332
821.307	27504
821.447	27412
821.588	27275
821.728	27066
821.868	26963
822.008	26777
822.149	26830
822.289	26785
822.429	26514
822.569	26530
822.709	26442
822.849	26199
822.99	26187
823.13	26294
823.27	26214
823.41	26149
823.55	25928
823.69	26081
823.83	26077
823.97	26027
824.11	25868
824.25	25746
824.389	25925
824.529	26043
824.669	26100
824.809	26107
824.949	25966
825.089	25902
825.228	26115
825.368	25742
825.508	25750
825.648	25925
825.787	25807
825.927	25833
826.067	25761
826.206	25780
826.346	25784
826.485	25845
826.625	25784
826.765	25932
826.904	25845
827.044	25643
827.183	25616
827.323	25537
827.462	25495
827.601	25521
827.741	25434
827.88	25605
828.02	25350
828.159	25422
828.298	25533
828.437	25430
828.577	25468
828.716	25525
828.855	25365
828.994	25293
829.134	25198
829.273	25422
829.412	25282
829.551	25190
829.69	25266
829.829	25324
829.968	25285
830.107	25247
830.246	25225
830.385	25126
830.524	25103
830.663	24878
830.802	25000
830.941	24741
831.08	24677
831.219	24821
831.357	24791
831.496	25034
831.635	24875
831.774	24753
831.913	24639
832.051	24536
832.19	24669
832.329	24623
832.467	24483
832.606	24418
832.744	24391
832.883	24441
833.022	24369
833.16	24532
833.299	24536
833.437	24388
833.576	24490
833.714	24479
833.852	24585
833.991	24585
834.129	24719
834.267	24536
834.406	24566
834.544	24437
834.682	24467
834.821	24517
834.959	24623
835.097	24528
835.235	24559
835.373	24551
835.511	24437
835.65	24429
835.788	24361
835.926	24186
836.064	24125
836.202	24159
836.34	24346
836.478	24551
836.615	24380
836.753	24292
836.891	24388
837.029	24380
837.167	24380
837.305	24182
837.443	24258
837.58	24216
837.718	24300
837.856	24079
837.993	24243
838.131	24068
838.269	24102
838.406	24098
838.544	23999
838.681	23847
838.819	23961
838.956	23646
839.094	23615
839.231	23745
839.369	23916
839.506	23992
839.643	23946
839.781	23722
839.918	23573
840.055	23661
840.193	23615
840.33	23577
840.467	23554
840.604	23676
840.742	23885
840.879	23474
841.016	23512
841.153	23395
841.29	23634
841.427	23486
841.564	23623
841.701	23554
841.838	23558
841.975	23524
842.112	23627
842.249	23459
842.385	23318
842.522	23661
842.659	23398
842.796	23337
842.933	23284
843.069	23235
843.206	23387
843.343	23368
843.479	23364
843.616	23334
843.752	23159
843.889	23147
844.025	23212
844.162	23052
844.298	23258
844.435	23048
844.571	23159
844.708	23155
844.844	23208
844.98	23265
845.117	23204
845.253	23037
845.389	23010
845.525	23041
845.661	22934
845.798	22744
845.934	22904
846.07	22854
846.206	22873
846.342	22999
846.478	22820
846.614	22637
846.75	22455
846.886	22577
847.022	22691
847.158	22527
847.294	22584
847.429	22622
847.565	22512
847.701	22641
847.837	22272
847.972	22284
848.108	22348
848.244	22417
848.379	22173
848.515	22154
848.65	22147
848.786	22238
848.921	22147
849.057	22242
849.192	22306
849.328	22207
849.463	22029
849.598	22230
849.734	22070
849.869	21918
850.004	21930
850.14	21922
850.275	21884
850.41	21838
850.545	21884
850.68	21884
850.815	21994
850.95	21911
851.085	22124
851.22	22055
851.355	21926
851.49	21854
851.625	21930
851.76	21903
851.895	21781
852.03	21865
852.165	21873
852.299	21930
852.434	21911
852.569	22044
852.703	21915
852.838	21956
852.973	21998
853.107	22040
853.242	21861
853.376	21732
853.511	21660
853.645	21766
853.78	21808
853.914	21762
854.048	21705
854.183	21793
854.317	21781
854.451	21842
854.585	21770
854.72	21789
854.854	21831
854.988	21682
855.122	21800
855.256	21637
855.39	21755
855.524	21911
855.658	21705
855.792	21819
855.926	21812
856.06	21781
856.194	21789
856.327	21759
856.461	21667
856.595	21816
856.729	21705
856.862	21857
856.996	21759
857.13	21899
857.263	21930
857.397	21816
857.53	21774
857.664	21789
857.797	21793
857.931	21949
858.064	21808
858.197	21785
858.331	21785
858.464	21770
858.597	21625
858.731	21762
858.864	21614
858.997	21694
859.13	21789
859.263	21797
859.396	21884
859.529	21625
859.662	21774
859.795	21709
859.928	21686
860.061	21880
860.194	21880
860.327	21838
860.46	21747
860.592	21949
860.725	21922
860.858	21873
860.99	21747
861.123	21606
861.256	21644
861.388	21755
861.521	22314
861.653	21557
861.786	21637
861.918	21583
862.05	21599
862.183	21690
862.315	21800
862.447	21713
862.58	21709
862.712	21583
862.844	21367
862.976	21564
863.108	21443
863.24	21922
863.372	21389
863.504	21412
863.636	21431
863.768	21511
863.9	21485
864.032	21393
864.164	21420
864.296	21462
864.428	21583
864.559	21625
864.691	21523
864.823	21481
864.954	21313
865.086	21443
865.217	21317
865.349	21199
865.48	21275
865.612	21389
865.743	21504
865.875	21294
866.006	21275
866.137	21332
866.269	21313
866.4	21252
866.531	21306
866.662	21272
866.793	21214
866.924	21199
867.055	21237
867.186	21378
867.317	21340
867.448	21165
867.579	21188
867.71	21252
867.841	21268
867.972	21302
868.103	21283
868.233	21382
868.364	21382
868.495	21382
868.625	21450
868.756	21709
868.886	21488
869.017	21507
869.147	21595
869.278	21492
869.408	21656
869.539	21545
869.669	21606
869.799	21519
869.929	21519
870.06	21663
870.19	21751
870.32	21694
870.45	21857
870.58	21915
870.71	21979
870.84	22116
870.97	21911
871.1	21804
871.23	22128
871.36	22131
871.489	22044
871.619	22147
871.749	22032
871.879	22048
872.008	22322
872.138	21994
872.267	22048
872.397	22021
872.526	21922
872.656	21945
872.785	21979
872.915	22196
873.044	22375
873.173	22246
873.303	22086
873.432	22211
873.561	22162
873.69	22078
873.819	22139
873.948	22196
874.077	22173
874.206	22158
874.335	22074
874.464	22211
874.593	22318
874.722	22356
874.851	22303
874.979	22386
875.108	22352
875.237	22402
875.365	22291
875.494	22234
875.623	22542
875.751	22375
875.88	22333
876.008	22569
876.136	22538
876.265	22694
876.393	22942
876.521	22877
876.65	22786
876.778	22790
876.906	22717
877.034	22725
877.162	22752
877.29	22641
877.418	22729
877.546	22706
877.674	22698
877.802	22744
877.93	22603
878.058	22660
878.185	22478
878.313	22656
878.441	22637
878.568	22497
878.696	22664
878.824	22683
878.951	22656
879.079	22961
879.206	23029
879.333	22877
879.461	22717
879.588	22774
879.715	22858
879.842	22961
879.97	22809
880.097	22550
880.224	22546
880.351	22618
880.478	22451
880.605	22523
880.732	22428
880.859	22725
880.986	22474
881.112	22592
881.239	22371
881.366	22185
881.493	22253
881.619	22158
881.746	22082
881.872	22010
881.999	22032
882.125	22029
882.252	22181
882.378	21949
882.505	22173
882.631	21937
882.757	21903
882.883	21991
883.01	21774
883.136	21690
883.262	21633
883.388	21542
883.514	21846
883.64	21789
883.766	21743
883.892	21439
884.018	21553
884.143	21705
884.269	21766
884.395	21538
884.52	21302
884.646	21462
884.772	21386
884.897	21272
885.023	21507
885.148	21420
885.274	21648
885.399	21557
885.524	21370
885.65	21492
885.775	21340
885.9	21367
886.025	21580
886.15	21637
886.275	21485
886.4	21363
886.525	21431
886.65	21279
886.775	21408
886.9	21515
887.025	21705
887.149	21458
887.274	21233
887.399	21199
887.523	21279
887.648	21150
887.773	21104
887.897	21325
888.021	21272
888.146	21051
888.27	21313
888.395	21310
888.519	21222
888.643	21184
888.767	21169
888.891	21188
889.015	21001
889.139	21157
889.263	21051
889.387	21047
889.511	21226
889.635	21047
889.759	20990
889.883	20963
890.006	21039
890.13	21192
890.254	20895
890.377	20834
890.501	20758
890.624	20686
890.748	20811
890.871	20727
890.995	20598
891.118	20526
891.241	20503
891.364	20594
891.488	20712
891.611	20545
891.734	20560
891.857	20602
891.98	20423
892.103	20556
892.226	20651
892.349	20434
892.471	20275
892.594	20415
892.717	20507
892.839	20484
892.962	20423
893.085	20583
893.207	20442
893.33	20343
893.452	20370
893.575	20545
893.697	20408
893.819	20526
893.941	20514
894.064	20621
894.186	20385
894.308	20343
894.43	20419
894.552	20594
894.674	20590
894.796	20408
894.918	20400
895.04	20507
895.161	20450
895.283	20461
895.405	20267
895.526	20450
895.648	20370
895.769	20370
895.891	20412
896.012	20552
896.134	20522
896.255	20450
896.376	20476
896.498	20412
896.619	20492
896.74	20393
896.861	20564
896.982	20849
897.103	20826
897.224	20686
897.345	20697
897.466	20541
897.587	20594
897.708	20765
897.828	20708
897.949	20571
898.07	20465
898.19	20587
898.311	20743
898.431	20549
898.552	20590
898.672	20777
898.792	20804
898.913	20609
899.033	20579
899.153	20374
899.273	20385
899.393	20450
899.513	20393
899.633	20522
899.753	20434
899.873	20457
899.993	20480
900.113	20339
900.232	20393
900.352	20446
900.472	20176
900.591	20183
900.711	20161
900.83	20134
900.95	20271
901.069	20294
901.189	20103
901.308	19826
901.427	19719
901.546	19727
901.665	19757
901.784	19791
901.904	19609
902.023	19556
902.141	19308
902.26	19285
902.379	19419
902.498	19206
902.617	19263
902.735	19316
902.854	19312
902.973	19190
903.091	19038
903.21	18932
903.328	18894
903.446	18859
903.565	18741
903.683	18764
903.801	18654
903.919	18688
904.038	18722
904.156	18486
904.274	18559
904.392	18388
904.51	18471
904.627	18509
904.745	18464
904.863	18578
904.981	18289
905.098	18178
905.216	18209
905.334	18194
905.451	18163
905.569	18194
905.686	18239
905.803	18091
905.921	18015
906.038	17939
906.155	17961
906.272	17817
906.389	17916
906.506	17661
906.623	17779
906.74	17676
906.857	17539
906.974	17619
907.091	17824
907.208	17779
907.324	17786
907.441	17638
907.557	17482
907.674	17402
907.79	17417
907.907	17414
908.023	17497
908.139	17368
908.256	17395
908.372	17242
908.488	17341
908.604	17060
908.72	17052
908.836	17147
908.952	17121
909.068	17041
909.184	17220
909.3	17197
909.415	17204
909.531	17048
909.647	16847
909.762	16900
909.878	16862
909.993	16854
910.108	16831
910.224	16763
910.339	16778
910.454	16706
910.57	16725
910.685	16523
910.8	16869
910.915	16740
911.03	16634
911.145	16455
911.259	16455
911.374	16348
911.489	16325
911.604	16276
911.718	16063
911.833	16093
911.947	16063
912.062	16040
912.176	16173
912.291	16120
912.405	16215
912.519	16299
912.633	16341
912.748	16219
912.862	16124
912.976	15854
913.09	15865
913.204	15941
913.318	15987
913.431	16158
913.545	16025
913.659	16101
913.772	15911
913.886	15831
914	15759
914.113	15823
914.226	15975
914.34	15781
914.453	15682
914.566	15804
914.68	15698
914.793	15507
914.906	15469
915.019	15382
915.132	15317
915.245	15355
915.358	15485
915.47	15420
915.583	15351
915.696	15447
915.809	15454
915.921	15504
916.034	15203
916.146	15302
916.259	15195
916.371	15272
916.483	15363
916.595	15154
916.708	15249
916.82	15135
916.932	15116
917.044	15154
917.156	15093
917.268	14944
917.38	15085
917.491	14998
917.603	14986
917.715	15024
917.826	15093
917.938	14899
918.049	14857
918.161	14933
918.272	15211
918.384	15123
918.495	14937
918.606	14804
918.717	14716
918.828	14773
918.939	14792
919.05	14830
919.161	14773
919.272	14606
919.383	14750
919.494	14804
919.604	14868
919.715	14861
919.826	14705
919.936	14693
920.047	14868
920.157	14750
920.267	14925
920.378	14739
920.488	14697
920.598	14842
920.708	14982
920.818	14956
920.928	14845
921.038	14998
921.148	15055
921.258	14667
921.368	14549
921.477	14476
921.587	14438
921.697	14298
921.806	14457
921.916	14317
922.025	14161
922.134	14092
922.244	14092
922.353	14100
922.462	13944
922.571	13978
922.68	13860
922.789	13811
922.898	13772
923.007	13689
923.116	13674
923.224	13772
923.333	13693
923.442	13540
923.55	13552
923.659	13624
923.767	13658
923.876	13521
923.984	13624
924.092	13491
924.201	13514
924.309	13464
924.417	13411
924.525	13403
924.633	13369
924.741	14271
924.849	13255
924.956	13331
925.064	13137
925.172	13057
925.279	13038
925.387	13160
925.494	13164
925.602	13350
925.709	13038
925.816	12989
925.924	13080
926.031	13225
926.138	13019
926.245	13160
926.352	13019
926.459	13099
926.566	13110
926.673	13050
926.779	12954
926.886	12840
926.993	12753
927.099	12703
927.206	12760
927.312	12589
927.419	12703
927.525	12677
927.631	12730
927.737	12593
927.843	12570
927.95	12365
928.056	12494
928.162	12460
928.267	12517
928.373	13225
928.479	12528
928.585	12270
928.69	12517
928.796	12509
928.901	12414
929.007	12216
929.112	12323
929.218	12346
929.323	12289
929.428	12338
929.533	12353
929.638	12121
929.743	12125
929.848	12186
929.953	12087
930.058	12117
930.163	11931
930.267	11870
930.372	12129
930.477	11836
930.581	12144
930.685	11999
930.79	11836
930.894	11901
930.998	11836
931.103	11912
931.207	11581
931.311	11436
931.415	11372
931.519	11223
931.623	11208
