Data from test_V78500241_2513.txt Node
Date: Fri Mar 25 15:59:12 CST 2022
User: usil
Spectrometer: V785-0024
Trigger mode: 0
Integration Time (sec): 4.000000E-1
Scans to average: 1
Nonlinearity correction enabled: false
Boxcar width: 0
Storing dark spectrum: false
XAxis mode: Wavelengths
Number of Pixels in Spectrum: 1024
>>>>>Begin Spectral Data<<<<<
801.071	28736
801.214	28767
801.356	28523
801.499	28440
801.641	28223
801.783	28386
801.926	28371
802.068	28325
802.211	28375
802.353	28139
802.496	28177
802.638	28055
802.78	28131
802.923	28025
803.065	27934
803.208	28116
803.35	28101
803.492	28341
803.635	28333
803.777	28150
803.919	28382
804.061	28664
804.204	28413
804.346	28329
804.488	28246
804.63	28226
804.773	28386
804.915	28421
805.057	28557
805.199	28196
805.341	28470
805.483	28504
805.626	28443
805.768	28443
805.91	28603
806.052	28561
806.194	28401
806.336	28630
806.478	28531
806.62	28554
806.762	28694
806.904	28793
807.046	29029
807.188	28854
807.33	28858
807.472	28984
807.614	29014
807.756	28866
807.898	28797
808.04	28759
808.182	28725
808.324	28900
808.465	28835
808.607	28991
808.749	29216
808.891	29113
809.033	29265
809.174	29155
809.316	29121
809.458	29140
809.6	29117
809.741	29109
809.883	29299
810.025	29554
810.166	29611
810.308	29531
810.45	29444
810.591	29299
810.733	29239
810.875	29197
811.016	29193
811.158	29174
811.299	29258
811.441	29296
811.582	29246
811.724	29117
811.865	29170
812.007	29143
812.148	29242
812.29	29444
812.431	29322
812.573	29551
812.714	29600
812.855	29630
812.997	29646
813.138	29813
813.279	29821
813.421	29794
813.562	29710
813.703	29531
813.845	29459
813.986	29155
814.127	29147
814.268	28911
814.41	28911
814.551	28949
814.692	28999
814.833	28850
814.974	28793
815.115	28896
815.256	28675
815.397	28683
815.539	28771
815.68	28584
815.821	28626
815.962	28782
816.103	28713
816.244	28664
816.385	28641
816.526	28428
816.666	28211
816.807	28276
816.948	28299
817.089	28295
817.23	28234
817.371	28188
817.512	28276
817.653	28162
817.793	28230
817.934	28196
818.075	28303
818.216	28093
818.356	27983
818.497	28219
818.638	27945
818.778	27983
818.919	27907
819.06	28025
819.2	28139
819.341	28261
819.481	28078
819.622	28356
819.762	28573
819.903	28474
820.043	28424
820.184	28306
820.324	28360
820.465	28516
820.605	28284
820.746	28303
820.886	28200
821.026	28398
821.167	28181
821.307	28363
821.447	28356
821.588	28128
821.728	27934
821.868	27869
822.008	27717
822.149	27656
822.289	27720
822.429	27435
822.569	27424
822.709	27485
822.849	27184
822.99	27180
823.13	27150
823.27	27150
823.41	26914
823.55	26929
823.69	27017
823.83	27043
823.97	27043
824.11	26705
824.25	26804
824.389	26864
824.529	26952
824.669	26739
824.809	26979
824.949	26887
825.089	26998
825.228	26834
825.368	26678
825.508	26750
825.648	26670
825.787	26758
825.927	26765
826.067	26636
826.206	26701
826.346	26800
826.485	26834
826.625	26663
826.765	26887
826.904	26746
827.044	26564
827.183	26621
827.323	26537
827.462	26415
827.601	26541
827.741	26442
827.88	26495
828.02	26408
828.159	26431
828.298	26469
828.437	26381
828.577	26233
828.716	26507
828.855	26374
828.994	26347
829.134	26115
829.273	26218
829.412	26172
829.551	26164
829.69	26210
829.829	26233
829.968	26134
830.107	26233
830.246	26263
830.385	26180
830.524	26001
830.663	26001
830.802	25765
830.941	25715
831.08	25674
831.219	25887
831.357	25712
831.496	25951
831.635	25693
831.774	25670
831.913	25700
832.051	25556
832.19	25491
832.329	25495
832.467	25434
832.606	25327
832.744	25411
832.883	25354
833.022	25430
833.16	25400
833.299	25419
833.437	25575
833.576	25495
833.714	25491
833.852	25518
833.991	25468
834.129	25483
834.267	25449
834.406	25438
834.544	25445
834.682	25426
834.821	25343
834.959	25727
835.097	25495
835.235	25487
835.373	25438
835.511	25483
835.65	25388
835.788	25244
835.926	25164
836.064	25099
836.202	25266
836.34	25350
836.478	25381
836.615	25289
836.753	25168
836.891	25312
837.029	25350
837.167	25259
837.305	25129
837.443	25133
837.58	25236
837.718	25198
837.856	25187
837.993	25198
838.131	25107
838.269	25168
838.406	25065
838.544	24954
838.681	24738
838.819	24688
838.956	24601
839.094	24608
839.231	24589
839.369	24753
839.506	25008
839.643	24757
839.781	24703
839.918	24559
840.055	24517
840.193	24505
840.33	24566
840.467	24414
840.604	24532
840.742	24749
840.879	24353
841.016	24483
841.153	24403
841.29	24623
841.427	24479
841.564	24460
841.701	24505
841.838	24365
841.975	24403
842.112	24418
842.249	24361
842.385	24292
842.522	24479
842.659	24350
842.796	24342
842.933	24380
843.069	24174
843.206	24159
843.343	24136
843.479	24270
843.616	24155
843.752	23958
843.889	24038
844.025	24228
844.162	24053
844.298	24144
844.435	24011
844.571	23954
844.708	24072
844.844	24178
844.98	24205
845.117	24114
845.253	23996
845.389	23901
845.525	24007
845.661	23889
845.798	23710
845.934	23847
846.07	23657
846.206	23809
846.342	23885
846.478	23786
846.614	23573
846.75	23444
846.886	23341
847.022	23509
847.158	23493
847.294	23611
847.429	23478
847.565	23398
847.701	23707
847.837	23242
847.972	23239
848.108	23277
848.244	23143
848.379	23200
848.515	22987
848.65	22980
848.786	23075
848.921	22953
849.057	23261
849.192	23044
849.328	23025
849.463	23003
849.598	22968
849.734	22968
849.869	22843
850.004	22843
850.14	22957
850.275	22828
850.41	22679
850.545	22831
850.68	22755
850.815	22759
850.95	22866
851.085	23060
851.22	22965
851.355	22915
851.49	22831
851.625	22755
851.76	22767
851.895	22713
852.03	22736
852.165	22706
852.299	22938
852.434	22850
852.569	22752
852.703	22763
852.838	22828
852.973	22980
853.107	22869
853.242	22866
853.376	22653
853.511	22516
853.645	22527
853.78	22831
853.914	22679
854.048	22569
854.183	22622
854.317	22729
854.451	22812
854.585	22557
854.72	22706
854.854	22797
854.988	22717
855.122	22664
855.256	22481
855.39	22702
855.524	22736
855.658	22607
855.792	22740
855.926	22717
856.06	22755
856.194	22797
856.327	22679
856.461	22618
856.595	22519
856.729	22656
856.862	22892
856.996	22759
857.13	22687
857.263	22809
857.397	22892
857.53	22634
857.664	22698
857.797	22645
857.931	22885
858.064	22786
858.197	22824
858.331	22698
858.464	22535
858.597	22508
858.731	22687
858.864	22641
858.997	22634
859.13	22603
859.263	22755
859.396	22790
859.529	22687
859.662	22596
859.795	22596
859.928	22664
860.061	22862
860.194	22824
860.327	22702
860.46	22664
860.592	22923
860.725	22843
860.858	22713
860.99	22630
861.123	22618
861.256	22683
861.388	22729
861.521	23379
861.653	22538
861.786	22523
861.918	22637
862.05	22615
862.183	22580
862.315	22626
862.447	22637
862.58	22702
862.712	22352
862.844	22344
862.976	22409
863.108	22310
863.24	22793
863.372	22314
863.504	22348
863.636	22356
863.768	22337
863.9	22440
864.032	22421
864.164	22303
864.296	22367
864.428	22413
864.559	22527
864.691	22398
864.823	22413
864.954	22352
865.086	22379
865.217	22249
865.349	22188
865.48	22177
865.612	22238
865.743	22394
865.875	22268
866.006	22147
866.137	22226
866.269	22249
866.4	22112
866.531	22169
866.662	22200
866.793	22223
866.924	22242
867.055	22310
867.186	22287
867.317	22200
867.448	22112
867.579	22166
867.71	22101
867.841	22150
867.972	22181
868.103	22154
868.233	22090
868.364	22276
868.495	22257
868.625	22409
868.756	22504
868.886	22417
869.017	22352
869.147	22424
869.278	22451
869.408	22382
869.539	22512
869.669	22470
869.799	22516
869.929	22474
870.06	22565
870.19	22622
870.32	22725
870.45	22782
870.58	22729
870.71	22877
870.84	22858
870.97	22744
871.1	22797
871.23	22850
871.36	23014
871.489	22930
871.619	22873
871.749	23094
871.879	23105
872.008	23132
872.138	22946
872.267	23109
872.397	22957
872.526	22828
872.656	22862
872.785	22839
872.915	22961
873.044	23193
873.173	22961
873.303	23102
873.432	23105
873.561	23094
873.69	23064
873.819	23105
873.948	23124
874.077	22934
874.206	22976
874.335	22995
874.464	23185
874.593	23212
874.722	23147
874.851	23250
874.979	23292
875.108	23368
875.237	23292
875.365	23022
875.494	23121
875.623	23421
875.751	23284
875.88	23212
876.008	23387
876.136	23410
876.265	23699
876.393	23779
876.521	23729
876.65	23680
876.778	23581
876.906	23543
877.034	23585
877.162	23509
877.29	23543
877.418	23684
877.546	23684
877.674	23490
877.802	23623
877.93	23501
878.058	23524
878.185	23577
878.313	23623
878.441	23543
878.568	23360
878.696	23459
878.824	23573
878.951	23726
879.079	23756
879.206	23851
879.333	23790
879.461	23764
879.588	23703
879.715	23764
879.842	23931
879.97	23600
880.097	23539
880.224	23246
880.351	23383
880.478	23398
880.605	23421
880.732	23516
880.859	23585
880.986	23448
881.112	23341
881.239	23349
881.366	23147
881.493	23121
881.619	22980
881.746	22953
881.872	22965
881.999	22835
882.125	22957
882.252	22869
882.378	22930
882.505	22995
882.631	22733
882.757	22660
882.883	22580
883.01	22710
883.136	22622
883.262	22596
883.388	22436
883.514	22748
883.64	22634
883.766	22569
883.892	22310
884.018	22474
884.143	22550
884.269	22596
884.395	22291
884.52	22211
884.646	22344
884.772	22128
884.897	22067
885.023	22204
885.148	22284
885.274	22462
885.399	22356
885.524	22242
885.65	22295
885.775	22284
885.9	22314
886.025	22481
886.15	22360
886.275	22337
886.4	22139
886.525	22185
886.65	22181
886.775	22223
886.9	22314
887.025	22440
887.149	22268
887.274	21922
887.399	22025
887.523	22040
887.648	21987
887.773	21915
887.897	22010
888.021	22010
888.146	21972
888.27	22139
888.395	22048
888.519	22150
888.643	22078
888.767	21956
888.891	21895
889.015	21808
889.139	21888
889.263	21800
889.387	21888
889.511	22070
889.635	21876
889.759	21835
889.883	21759
890.006	21736
890.13	21956
890.254	21698
890.377	21717
890.501	21549
890.624	21583
890.748	21587
890.871	21519
890.995	21458
891.118	21287
891.241	21348
891.364	21321
891.488	21439
891.611	21203
891.734	21302
891.857	21458
891.98	21310
892.103	21340
892.226	21408
892.349	21214
892.471	21157
892.594	21283
892.717	21332
892.839	21245
892.962	21294
893.085	21184
893.207	21279
893.33	21157
893.452	21165
893.575	21306
893.697	21135
893.819	21386
893.941	21420
894.064	21355
894.186	21104
894.308	21104
894.43	21340
894.552	21256
894.674	21408
894.796	21001
894.918	21275
895.04	21142
895.161	21252
895.283	21214
895.405	21108
895.526	21214
895.648	21226
895.769	21279
895.891	21237
896.012	21275
896.134	21272
896.255	21154
896.376	21199
896.498	21066
896.619	21313
896.74	21256
896.861	21272
896.982	21599
897.103	21610
897.224	21530
897.345	21363
897.466	21382
897.587	21420
897.708	21572
897.828	21466
897.949	21401
898.07	21336
898.19	21420
898.311	21401
898.431	21374
898.552	21367
898.672	21507
898.792	21538
898.913	21420
899.033	21169
899.153	21294
899.273	21089
899.393	21119
899.513	21184
899.633	21176
899.753	21173
899.873	21043
899.993	21165
900.113	20994
900.232	21036
900.352	21112
900.472	20895
900.591	20925
900.711	20914
900.83	20857
900.95	20994
901.069	20960
901.189	20830
901.308	20617
901.427	20511
901.546	20427
901.665	20564
901.784	20609
901.904	20442
902.023	20328
902.141	20084
902.26	19963
902.379	20119
902.498	20092
902.617	19917
902.735	20058
902.854	19974
902.973	19864
903.091	19689
903.21	19696
903.328	19639
903.446	19674
903.565	19495
903.683	19384
903.801	19331
903.919	19487
904.038	19331
904.156	19221
904.274	19327
904.392	19145
904.51	19160
904.627	19148
904.745	19270
904.863	19240
904.981	19107
905.098	18795
905.216	18871
905.334	18954
905.451	18852
905.569	18837
905.686	18798
905.803	18875
905.921	18559
906.038	18669
906.155	18681
906.272	18441
906.389	18593
906.506	18490
906.623	18319
906.74	18361
906.857	18357
906.974	18361
907.091	18251
907.208	18475
907.324	18395
907.441	18342
907.557	18148
907.674	18087
907.79	17988
907.907	18041
908.023	18079
908.139	18064
908.256	18091
908.372	17954
908.488	18003
908.604	17786
908.72	17733
908.836	17786
908.952	17802
909.068	17874
909.184	17931
909.3	17813
909.415	17665
909.531	17798
909.647	17474
909.762	17516
909.878	17471
909.993	17379
910.108	17448
910.224	17402
910.339	17474
910.454	17372
910.57	17372
910.685	17280
910.8	17501
910.915	17372
911.03	17254
911.145	17071
911.259	17014
911.374	17025
911.489	17022
911.604	16961
911.718	16736
911.833	16778
911.947	16771
912.062	16721
912.176	16733
912.291	16797
912.405	16778
912.519	17025
912.633	17045
912.748	16797
912.862	16774
912.976	16626
913.09	16474
913.204	16455
913.318	16615
913.431	16645
913.545	16672
913.659	16618
913.772	16588
913.886	16519
914	16272
914.113	16523
914.226	16577
914.34	16386
914.453	16226
914.566	16440
914.68	16211
914.793	16215
914.906	16139
915.019	15918
915.132	15964
915.245	15987
915.358	16013
915.47	15842
915.583	16017
915.696	15991
915.809	16078
915.921	16071
916.034	15934
916.146	15846
916.259	15766
916.371	15937
916.483	15888
916.595	15819
916.708	15827
916.82	15720
916.932	15713
917.044	15682
917.156	15728
917.268	15625
917.38	15770
917.491	15568
917.603	15629
917.715	15690
917.826	15781
917.938	15584
918.049	15485
918.161	15507
918.272	15637
918.384	15724
918.495	15473
918.606	15389
918.717	15291
918.828	15321
918.939	15332
919.05	15211
919.161	15374
919.272	15112
919.383	15131
919.494	15313
919.604	15435
919.715	15302
919.826	15218
919.936	15294
920.047	15401
920.157	15351
920.267	15450
920.378	15283
920.488	15233
920.598	15386
920.708	15485
920.818	15428
920.928	15462
921.038	15580
921.148	15488
921.258	15218
921.368	15214
921.477	15085
921.587	15001
921.697	14872
921.806	14994
921.916	14796
922.025	14625
922.134	14625
922.244	14549
922.353	14644
922.462	14488
922.571	14473
922.68	14313
922.789	14282
922.898	14271
923.007	14164
923.116	14328
923.224	14248
923.333	14180
923.442	14081
923.55	14088
923.659	14180
923.767	14168
923.876	14069
923.984	14039
924.092	13951
924.201	14054
924.309	13986
924.417	13940
924.525	13917
924.633	13856
924.741	14682
924.849	13723
924.956	13852
925.064	13712
925.172	13552
925.279	13537
925.387	13746
925.494	13655
925.602	13772
925.709	13632
925.816	13441
925.924	13590
926.031	13689
926.138	13537
926.245	13597
926.352	13468
926.459	13594
926.566	13548
926.673	13567
926.779	13403
926.886	13434
926.993	13221
927.099	13175
927.206	13061
927.312	13084
927.419	13137
927.525	13206
927.631	13175
927.737	13057
927.843	13019
927.95	12928
928.056	13061
928.162	13004
928.267	13053
928.373	13620
928.479	13057
928.585	12825
928.69	12913
928.796	12916
928.901	12844
929.007	12631
929.112	12817
929.218	12817
929.323	12715
929.428	12722
929.533	12833
929.638	12665
929.743	12639
929.848	12665
929.953	12582
930.058	12517
930.163	12388
930.267	12323
930.372	12418
930.477	12330
930.581	12517
930.685	12486
930.79	12235
930.894	12216
930.998	12197
931.103	12353
931.207	12049
931.311	11882
931.415	11847
931.519	11600
931.623	11642
