Data from test_V78500241_1407.txt Node
Date: Fri Mar 25 15:51:32 CST 2022
User: usil
Spectrometer: V785-0024
Trigger mode: 0
Integration Time (sec): 4.000000E-1
Scans to average: 1
Nonlinearity correction enabled: false
Boxcar width: 0
Storing dark spectrum: false
XAxis mode: Wavelengths
Number of Pixels in Spectrum: 1024
>>>>>Begin Spectral Data<<<<<
801.071	27960
801.214	27823
801.356	27538
801.499	27477
801.641	27252
801.783	27291
801.926	27443
802.068	27382
802.211	27393
802.353	27272
802.496	27093
802.638	26986
802.78	26948
802.923	26826
803.065	26872
803.208	26990
803.35	27066
803.492	27165
803.635	27089
803.777	27116
803.919	27142
804.061	27515
804.204	27272
804.346	27154
804.488	27161
804.63	27093
804.773	27085
804.915	27173
805.057	27275
805.199	27195
805.341	27192
805.483	27382
805.626	27462
805.768	27317
805.91	27435
806.052	27477
806.194	27256
806.336	27435
806.478	27313
806.62	27382
806.762	27485
806.904	27671
807.046	27914
807.188	27781
807.33	27964
807.472	27911
807.614	27698
807.756	27732
807.898	27724
808.04	27507
808.182	27466
808.324	27660
808.465	27660
808.607	27812
808.749	27987
808.891	28093
809.033	28128
809.174	27960
809.316	27956
809.458	27956
809.6	28013
809.741	28101
809.883	28204
810.025	28356
810.166	28135
810.308	28272
810.45	28261
810.591	28295
810.733	27918
810.875	27987
811.016	27899
811.158	27789
811.299	28093
811.441	28238
811.582	28265
811.724	28032
811.865	27953
812.007	27998
812.148	27797
812.29	28040
812.431	28128
812.573	28348
812.714	28394
812.855	28497
812.997	28660
813.138	28801
813.279	28485
813.421	28497
813.562	28660
813.703	28276
813.845	28329
813.986	27956
814.127	27892
814.268	27755
814.41	27641
814.551	27770
814.692	27743
814.833	27679
814.974	27603
815.115	27694
815.256	27553
815.397	27526
815.539	27542
815.68	27477
815.821	27302
815.962	27458
816.103	27564
816.244	27340
816.385	27165
816.526	27294
816.666	26948
816.807	26849
816.948	26979
817.089	26982
817.23	27036
817.371	26918
817.512	27001
817.653	26838
817.793	26944
817.934	26952
818.075	26940
818.216	26940
818.356	26944
818.497	26826
818.638	26697
818.778	26735
818.919	26731
819.06	26785
819.2	26906
819.341	26887
819.481	27020
819.622	27119
819.762	27260
819.903	27135
820.043	27020
820.184	27001
820.324	27135
820.465	27150
820.605	27001
820.746	27104
820.886	26895
821.026	27001
821.167	26967
821.307	27176
821.447	27036
821.588	26902
821.728	26781
821.868	26522
822.008	26541
822.149	26476
822.289	26404
822.429	26195
822.569	26161
822.709	26054
822.849	25966
822.99	25864
823.13	25940
823.27	25765
823.41	25837
823.55	25769
823.69	25693
823.83	25742
823.97	25681
824.11	25441
824.25	25434
824.389	25662
824.529	25616
824.669	25514
824.809	25731
824.949	25852
825.089	25594
825.228	25677
825.368	25240
825.508	25388
825.648	25472
825.787	25346
825.927	25365
826.067	25339
826.206	25312
826.346	25464
826.485	25377
826.625	25415
826.765	25479
826.904	25510
827.044	25255
827.183	25084
827.323	25004
827.462	25274
827.601	25000
827.741	25091
827.88	25114
828.02	24985
828.159	25050
828.298	25057
828.437	25183
828.577	25103
828.716	25225
828.855	24939
828.994	24856
829.134	24821
829.273	24954
829.412	24867
829.551	24745
829.69	24814
829.829	24856
829.968	24977
830.107	24882
830.246	24791
830.385	24776
830.524	24749
830.663	24608
830.802	24585
830.941	24391
831.08	24304
831.219	24490
831.357	24502
831.496	24639
831.635	24452
831.774	24273
831.913	24197
832.051	24171
832.19	24171
832.329	24216
832.467	24155
832.606	24095
832.744	24144
832.883	23965
833.022	24034
833.16	24136
833.299	24171
833.437	24213
833.576	24178
833.714	24076
833.852	24251
833.991	24057
834.129	24254
834.267	24209
834.406	24129
834.544	24102
834.682	24144
834.821	24083
834.959	24266
835.097	24098
835.235	24190
835.373	24049
835.511	24102
835.65	24007
835.788	24038
835.926	23821
836.064	23821
836.202	23897
836.34	23980
836.478	24106
836.615	23973
836.753	23942
836.891	24030
837.029	23878
837.167	23984
837.305	23885
837.443	23984
837.58	23889
837.718	23923
837.856	23866
837.993	23798
838.131	23760
838.269	23596
838.406	23718
838.544	23634
838.681	23452
838.819	23486
838.956	23273
839.094	23242
839.231	23376
839.369	23440
839.506	23805
839.643	23452
839.781	23296
839.918	23204
840.055	23254
840.193	23121
840.33	23208
840.467	23299
840.604	23258
840.742	23547
840.879	23121
841.016	23124
841.153	23162
841.29	23444
841.427	23360
841.564	23181
841.701	23220
841.838	23181
841.975	23105
842.112	23204
842.249	23083
842.385	22995
842.522	23258
842.659	22965
842.796	23029
842.933	22919
843.069	22862
843.206	22957
843.343	22911
843.479	22866
843.616	22927
843.752	22869
843.889	22729
844.025	22759
844.162	22809
844.298	22805
844.435	22831
844.571	22733
844.708	22831
844.844	22900
844.98	22850
845.117	22793
845.253	22702
845.389	22519
845.525	22660
845.661	22489
845.798	22516
845.934	22569
846.07	22428
846.206	22500
846.342	22672
846.478	22478
846.614	22272
846.75	22223
846.886	22280
847.022	22329
847.158	22242
847.294	22257
847.429	22257
847.565	22226
847.701	22379
847.837	21861
847.972	21926
848.108	22074
848.244	22006
848.379	21831
848.515	21641
848.65	21816
848.786	21724
848.921	21728
849.057	21835
849.192	21884
849.328	21842
849.463	21846
849.598	21823
849.734	21656
849.869	21614
850.004	21500
850.14	21720
850.275	21603
850.41	21424
850.545	21488
850.68	21477
850.815	21595
850.95	21625
851.085	21652
851.22	21705
851.355	21633
851.49	21641
851.625	21549
851.76	21511
851.895	21542
852.03	21492
852.165	21568
852.299	21667
852.434	21648
852.569	21618
852.703	21591
852.838	21641
852.973	21679
853.107	21610
853.242	21458
853.376	21382
853.511	21093
853.645	21488
853.78	21610
853.914	21507
854.048	21405
854.183	21416
854.317	21382
854.451	21671
854.585	21401
854.72	21401
854.854	21473
854.988	21317
855.122	21519
855.256	21260
855.39	21428
855.524	21435
855.658	21443
855.792	21382
855.926	21393
856.06	21405
856.194	21488
856.327	21329
856.461	21386
856.595	21515
856.729	21355
856.862	21424
856.996	21485
857.13	21443
857.263	21420
857.397	21485
857.53	21359
857.664	21561
857.797	21633
857.931	21492
858.064	21435
858.197	21549
858.331	21389
858.464	21321
858.597	21199
858.731	21310
858.864	21272
858.997	21382
859.13	21260
859.263	21370
859.396	21401
859.529	21283
859.662	21230
859.795	21389
859.928	21336
860.061	21523
860.194	21553
860.327	21477
860.46	21279
860.592	21572
860.725	21424
860.858	21511
860.99	21306
861.123	21370
861.256	21363
861.388	21294
861.521	21998
861.653	21321
861.786	21146
861.918	21207
862.05	21169
862.183	21302
862.315	21325
862.447	21340
862.58	21275
862.712	21058
862.844	21058
862.976	21222
863.108	21108
863.24	21701
863.372	21024
863.504	21180
863.636	21100
863.768	21066
863.9	21093
864.032	21013
864.164	21043
864.296	21214
864.428	21123
864.559	21077
864.691	21222
864.823	21169
864.954	21119
865.086	20990
865.217	20937
865.349	20979
865.48	21081
865.612	20952
865.743	21173
865.875	21077
866.006	20937
866.137	20971
866.269	21081
866.4	20929
866.531	20906
866.662	20929
866.793	20796
866.924	20967
867.055	20937
867.186	20906
867.317	20804
867.448	20906
867.579	21032
867.71	20792
867.841	20838
867.972	20910
868.103	20914
868.233	20880
868.364	20994
868.495	21081
868.625	21051
868.756	21374
868.886	21135
869.017	21252
869.147	21275
869.278	21291
869.408	21211
869.539	21256
869.669	21218
869.799	21233
869.929	21405
870.06	21393
870.19	21534
870.32	21515
870.45	21500
870.58	21568
870.71	21641
870.84	21641
870.97	21648
871.1	21652
871.23	21679
871.36	21831
871.489	21656
871.619	21720
871.749	21759
871.879	21854
872.008	21953
872.138	21762
872.267	21705
872.397	21698
872.526	21705
872.656	21511
872.785	21595
872.915	21842
873.044	21930
873.173	21831
873.303	21823
873.432	21968
873.561	21895
873.69	21907
873.819	21911
873.948	21861
874.077	21762
874.206	21842
874.335	21915
874.464	22017
874.593	22032
874.722	21960
874.851	22074
874.979	22169
875.108	22059
875.237	21949
875.365	21945
875.494	21930
875.623	22078
875.751	21964
875.88	22002
876.008	22215
876.136	22135
876.265	22478
876.393	22527
876.521	22542
876.65	22615
876.778	22527
876.906	22329
877.034	22386
877.162	22474
877.29	22360
877.418	22341
877.546	22360
877.674	22504
877.802	22424
877.93	22527
878.058	22356
878.185	22173
878.313	22500
878.441	22337
878.568	22044
878.696	22257
878.824	22405
878.951	22474
879.079	22698
879.206	22637
879.333	22683
879.461	22474
879.588	22546
879.715	22504
879.842	22664
879.97	22573
880.097	22143
880.224	22242
880.351	22318
880.478	22306
880.605	22055
880.732	22192
880.859	22424
880.986	22211
881.112	22341
881.239	22070
881.366	21949
881.493	21873
881.619	21804
881.746	21869
881.872	21835
881.999	21778
882.125	21720
882.252	21804
882.378	21812
882.505	21854
882.631	21549
882.757	21564
882.883	21682
883.01	21424
883.136	21306
883.262	21458
883.388	21272
883.514	21500
883.64	21542
883.766	21424
883.892	21230
884.018	21310
884.143	21435
884.269	21511
884.395	21260
884.52	21119
884.646	21161
884.772	21199
884.897	20960
885.023	21192
885.148	21142
885.274	21272
885.399	21256
885.524	21085
885.65	21211
885.775	21112
885.9	21127
886.025	21264
886.15	21268
886.275	21062
886.4	21066
886.525	21112
886.65	21013
886.775	21096
886.9	21184
887.025	21344
887.149	21119
887.274	21028
887.399	20906
887.523	20914
887.648	20834
887.773	20914
887.897	20891
888.021	20975
888.146	20902
888.27	20933
888.395	20944
888.519	20883
888.643	21005
888.767	21013
888.891	20807
889.015	20568
889.139	20762
889.263	20758
889.387	20697
889.511	20891
889.635	20853
889.759	20750
889.883	20621
890.006	20811
890.13	20724
890.254	20564
890.377	20670
890.501	20476
890.624	20408
890.748	20480
890.871	20396
890.995	20164
891.118	20168
891.241	20358
891.364	20210
891.488	20374
891.611	20282
891.734	20278
891.857	20332
891.98	20237
892.103	20271
892.226	20130
892.349	20229
892.471	20130
892.594	20233
892.717	20229
892.839	20115
892.962	20058
893.085	20275
893.207	20088
893.33	20115
893.452	20191
893.575	20195
893.697	20286
893.819	20244
893.941	20370
894.064	20221
894.186	20119
894.308	20107
894.43	20195
894.552	20301
894.674	20202
894.796	20046
894.918	20153
895.04	20233
895.161	20263
895.283	20240
895.405	20073
895.526	20187
895.648	20153
895.769	20271
895.891	20294
896.012	20199
896.134	20130
896.255	20180
896.376	20077
896.498	20088
896.619	20157
896.74	20119
896.861	20180
896.982	20522
897.103	20590
897.224	20514
897.345	20328
897.466	20351
897.587	20434
897.708	20450
897.828	20385
897.949	20362
898.07	20271
898.19	20240
898.311	20488
898.431	20313
898.552	20381
898.672	20461
898.792	20533
898.913	20450
899.033	20415
899.153	20149
899.273	20206
899.393	20187
899.513	20187
899.633	20130
899.753	20035
899.873	19986
899.993	20214
900.113	20062
900.232	20081
900.352	20031
900.472	19864
900.591	19883
900.711	19856
900.83	19849
900.95	20024
901.069	19917
901.189	19845
901.308	19563
901.427	19521
901.546	19487
901.665	19525
901.784	19613
901.904	19407
902.023	19221
902.141	19110
902.26	19050
902.379	19046
902.498	19110
902.617	19012
902.735	18905
902.854	19004
902.973	18951
903.091	18757
903.21	18703
903.328	18681
903.446	18585
903.565	18540
903.683	18460
903.801	18433
903.919	18410
904.038	18369
904.156	18216
904.274	18232
904.392	18182
904.51	18152
904.627	18209
904.745	18178
904.863	18334
904.981	18087
905.098	17935
905.216	17973
905.334	17946
905.451	17916
905.569	17817
905.686	17961
905.803	17904
905.921	17619
906.038	17847
906.155	17771
906.272	17611
906.389	17585
906.506	17440
906.623	17410
906.74	17482
906.857	17254
906.974	17455
907.091	17573
907.208	17524
907.324	17448
907.441	17501
907.557	17258
907.674	17159
907.79	17143
907.907	17174
908.023	17166
908.139	17159
908.256	17136
908.372	17136
908.488	17075
908.604	16835
908.72	16877
908.836	16850
908.952	16790
909.068	16835
909.184	16995
909.3	16828
909.415	16740
909.531	16961
909.647	16656
909.762	16615
909.878	16588
909.993	16565
910.108	16554
910.224	16542
910.339	16542
910.454	16436
910.57	16409
910.685	16242
910.8	16565
910.915	16481
911.03	16284
911.145	16124
911.259	16200
911.374	16143
911.489	16082
911.604	16074
911.718	15888
911.833	15964
911.947	15911
912.062	15762
912.176	15926
912.291	15934
912.405	15937
912.519	16192
912.633	16105
912.748	16006
912.862	15915
912.976	15781
913.09	15458
913.204	15762
913.318	15732
913.431	15880
913.545	15842
913.659	15876
913.772	15728
913.886	15481
914	15549
914.113	15603
914.226	15618
914.34	15557
914.453	15481
914.566	15504
914.68	15363
914.793	15317
914.906	15214
915.019	15188
915.132	15127
915.245	15085
915.358	15207
915.47	15070
915.583	15104
915.696	15085
915.809	15211
915.921	15325
916.034	15161
916.146	14918
916.259	14994
916.371	15077
916.483	15009
916.595	14979
916.708	15055
916.82	14982
916.932	14948
917.044	14914
917.156	14864
917.268	14864
917.38	14842
917.491	14773
917.603	14758
917.715	14891
917.826	14883
917.938	14697
918.049	14682
918.161	14701
918.272	14849
918.384	14891
918.495	14712
918.606	14697
918.717	14522
918.828	14594
918.939	14568
919.05	14415
919.161	14575
919.272	14328
919.383	14442
919.494	14617
919.604	14842
919.715	14579
919.826	14404
919.936	14499
920.047	14530
920.157	14469
920.267	14655
920.378	14480
920.488	14438
920.598	14811
920.708	14758
920.818	14693
920.928	14651
921.038	14830
921.148	14693
921.258	14469
921.368	14336
921.477	14172
921.587	14278
921.697	14111
921.806	14229
921.916	14046
922.025	13944
922.134	13875
922.244	13947
922.353	13940
922.462	13799
922.571	13723
922.68	13559
922.789	13582
922.898	13525
923.007	13476
923.116	13540
923.224	13548
923.333	13457
923.442	13411
923.55	13308
923.659	13403
923.767	13377
923.876	13396
923.984	13445
924.092	13263
924.201	13202
924.309	13259
924.417	13320
924.525	13179
924.633	13240
924.741	14008
924.849	13012
924.956	13202
925.064	13000
925.172	12954
925.279	12935
925.387	12928
925.494	12947
925.602	13091
925.709	13008
925.816	12867
925.924	12909
926.031	13118
926.138	12951
926.245	13000
926.352	12859
926.459	13042
926.566	12958
926.673	12916
926.779	12719
926.886	12696
926.993	12658
927.099	12490
927.206	12555
927.312	12365
927.419	12475
927.525	12559
927.631	12471
927.737	12372
927.843	12418
927.95	12205
928.056	12300
928.162	12380
928.267	12319
928.373	13012
928.479	12471
928.585	12190
928.69	12319
928.796	12380
928.901	12205
929.007	12133
929.112	12220
929.218	12182
929.323	12167
929.428	12167
929.533	12201
929.638	11946
929.743	12022
929.848	12068
929.953	11996
930.058	11969
930.163	11771
930.267	11798
930.372	11843
930.477	11790
930.581	11897
930.685	11802
930.79	11604
930.894	11665
930.998	11630
931.103	11809
931.207	11345
931.311	11246
931.415	11208
931.519	10991
931.623	11018
