Data from test_V78500241_3695.txt Node
Date: Fri Mar 25 16:07:23 CST 2022
User: usil
Spectrometer: V785-0024
Trigger mode: 0
Integration Time (sec): 4.000000E-1
Scans to average: 1
Nonlinearity correction enabled: false
Boxcar width: 0
Storing dark spectrum: false
XAxis mode: Wavelengths
Number of Pixels in Spectrum: 1024
>>>>>Begin Spectral Data<<<<<
801.071	28580
801.214	28497
801.356	28379
801.499	28272
801.641	28215
801.783	28055
801.926	28143
802.068	28109
802.211	28078
802.353	28032
802.496	27823
802.638	27865
802.78	27785
802.923	27797
803.065	27652
803.208	27800
803.35	27865
803.492	27876
803.635	28040
803.777	27956
803.919	28276
804.061	28405
804.204	28090
804.346	27953
804.488	28086
804.63	28150
804.773	27907
804.915	28082
805.057	28215
805.199	28097
805.341	28310
805.483	28150
805.626	28204
805.768	28173
805.91	28124
806.052	28230
806.194	28234
806.336	28428
806.478	28238
806.62	28379
806.762	28417
806.904	28577
807.046	28957
807.188	28630
807.33	28611
807.472	28862
807.614	28672
807.756	28656
807.898	28599
808.04	28333
808.182	28436
808.324	28519
808.465	28504
808.607	28812
808.749	28927
808.891	29071
809.033	29060
809.174	29014
809.316	28999
809.458	28919
809.6	28873
809.741	29052
809.883	29143
810.025	29193
810.166	29269
810.308	29166
810.45	29159
810.591	29235
810.733	29071
810.875	28801
811.016	28850
811.158	28934
811.299	28991
811.441	29124
811.582	29033
811.724	28927
811.865	28892
812.007	28968
812.148	28938
812.29	28953
812.431	29178
812.573	29280
812.714	29467
812.855	29402
812.997	29551
813.138	29722
813.279	29608
813.421	29539
813.562	29299
813.703	29311
813.845	29242
813.986	28957
814.127	28653
814.268	28656
814.41	28626
814.551	28615
814.692	28820
814.833	28637
814.974	28630
815.115	28649
815.256	28580
815.397	28478
815.539	28485
815.68	28386
815.821	28424
815.962	28493
816.103	28401
816.244	28367
816.385	28249
816.526	28181
816.666	28010
816.807	27838
816.948	28006
817.089	28055
817.23	27968
817.371	27960
817.512	28154
817.653	28055
817.793	27857
817.934	27953
818.075	27888
818.216	27968
818.356	27903
818.497	27819
818.638	27652
818.778	27797
818.919	27720
819.06	27819
819.2	27880
819.341	27953
819.481	27865
819.622	28116
819.762	28314
819.903	28306
820.043	28048
820.184	28185
820.324	28048
820.465	28173
820.605	28070
820.746	28131
820.886	27937
821.026	28013
821.167	28044
821.307	28002
821.447	28059
821.588	27869
821.728	27762
821.868	27542
822.008	27496
822.149	27496
822.289	27481
822.429	27245
822.569	26979
822.709	27173
822.849	26872
822.99	26971
823.13	27032
823.27	26845
823.41	26788
823.55	26792
823.69	26811
823.83	26705
823.97	26701
824.11	26526
824.25	26488
824.389	26705
824.529	26727
824.669	26689
824.809	26830
824.949	26644
825.089	26735
825.228	26724
825.368	26457
825.508	26503
825.648	26602
825.787	26606
825.927	26609
826.067	26404
826.206	26499
826.346	26514
826.485	26351
826.625	26488
826.765	26598
826.904	26670
827.044	26309
827.183	26210
827.323	26252
827.462	26244
827.601	26259
827.741	26221
827.88	26206
828.02	26183
828.159	26248
828.298	26263
828.437	26275
828.577	26225
828.716	26191
828.855	26111
828.994	25799
829.134	25845
829.273	26065
829.412	25890
829.551	25868
829.69	25731
829.829	25982
829.968	26050
830.107	25982
830.246	25803
830.385	25917
830.524	25906
830.663	25742
830.802	25605
830.941	25540
831.08	25537
831.219	25628
831.357	25628
831.496	25700
831.635	25533
831.774	25510
831.913	25445
832.051	25251
832.19	25228
832.329	25365
832.467	25263
832.606	25225
832.744	25160
832.883	25179
833.022	25046
833.16	25148
833.299	25293
833.437	25263
833.576	25293
833.714	25179
833.852	25251
833.991	25316
834.129	25392
834.267	25312
834.406	25251
834.544	25358
834.682	25263
834.821	25141
834.959	25388
835.097	25259
835.235	25316
835.373	25198
835.511	25145
835.65	25008
835.788	25171
835.926	24916
836.064	24795
836.202	24913
836.34	25072
836.478	25198
836.615	25034
836.753	25061
836.891	25141
837.029	25168
837.167	25160
837.305	24989
837.443	24738
837.58	24817
837.718	24943
837.856	24905
837.993	24840
838.131	24863
838.269	24726
838.406	24890
838.544	24616
838.681	24658
838.819	24536
838.956	24361
839.094	24334
839.231	24388
839.369	24612
839.506	24719
839.643	24513
839.781	24399
839.918	24216
840.055	24410
840.193	24388
840.33	24311
840.467	24330
840.604	24266
840.742	24517
840.879	24155
841.016	24201
841.153	24064
841.29	24376
841.427	24232
841.564	24334
841.701	24380
841.838	24239
841.975	24178
842.112	24087
842.249	24194
842.385	23950
842.522	24296
842.659	24091
842.796	23954
842.933	23950
843.069	23961
843.206	23885
843.343	24034
843.479	23988
843.616	24064
843.752	23954
843.889	23764
844.025	24030
844.162	23802
844.298	23870
844.435	23809
844.571	23798
844.708	23824
844.844	23885
844.98	23965
845.117	23878
845.253	23977
845.389	23726
845.525	23752
845.661	23699
845.798	23627
845.934	23680
846.07	23531
846.206	23524
846.342	23562
846.478	23471
846.614	23307
846.75	23170
846.886	23284
847.022	23330
847.158	23090
847.294	23288
847.429	23280
847.565	23258
847.701	23558
847.837	23006
847.972	22999
848.108	22991
848.244	23064
848.379	22900
848.515	22824
848.65	22713
848.786	22847
848.921	22896
849.057	22915
849.192	22949
849.328	22984
849.463	22812
849.598	22767
849.734	22710
849.869	22767
850.004	22561
850.14	22580
850.275	22512
850.41	22588
850.545	22493
850.68	22569
850.815	22577
850.95	22523
851.085	22740
851.22	22668
851.355	22694
851.49	22538
851.625	22584
851.76	22645
851.895	22462
852.03	22592
852.165	22618
852.299	22649
852.434	22702
852.569	22535
852.703	22542
852.838	22759
852.973	22713
853.107	22713
853.242	22504
853.376	22459
853.511	22333
853.645	22440
853.78	22519
853.914	22470
854.048	22402
854.183	22375
854.317	22569
854.451	22626
854.585	22531
854.72	22485
854.854	22531
854.988	22436
855.122	22497
855.256	22344
855.39	22440
855.524	22493
855.658	22512
855.792	22478
855.926	22398
856.06	22428
856.194	22607
856.327	22291
856.461	22409
856.595	22379
856.729	22382
856.862	22573
856.996	22363
857.13	22596
857.263	22577
857.397	22580
857.53	22333
857.664	22470
857.797	22512
857.931	22481
858.064	22470
858.197	22596
858.331	22402
858.464	22451
858.597	22272
858.731	22474
858.864	22325
858.997	22421
859.13	22440
859.263	22428
859.396	22519
859.529	22333
859.662	22360
859.795	22344
859.928	22424
860.061	22630
860.194	22656
860.327	22470
860.46	22500
860.592	22615
860.725	22603
860.858	22641
860.99	22417
861.123	22421
861.256	22344
861.388	22451
861.521	23113
861.653	22234
861.786	22150
861.918	22287
862.05	22226
862.183	22356
862.315	22428
862.447	22493
862.58	22284
862.712	22128
862.844	22158
862.976	22226
863.108	22268
863.24	22637
863.372	22097
863.504	22249
863.636	22131
863.768	22059
863.9	22158
864.032	22109
864.164	22044
864.296	22154
864.428	22303
864.559	22253
864.691	22226
864.823	22158
864.954	22154
865.086	22207
865.217	22120
865.349	21918
865.48	22093
865.612	21960
865.743	22074
865.875	21937
866.006	22040
866.137	22006
866.269	21964
866.4	21975
866.531	21949
866.662	21865
866.793	22082
866.924	21854
867.055	21812
867.186	22002
867.317	21937
867.448	21895
867.579	22002
867.71	21846
867.841	21926
867.972	21937
868.103	22006
868.233	22025
868.364	22074
868.495	21960
868.625	22234
868.756	22295
868.886	22124
869.017	22200
869.147	22226
869.278	22322
869.408	22246
869.539	22128
869.669	22276
869.799	22112
869.929	22462
870.06	22226
870.19	22508
870.32	22390
870.45	22497
870.58	22489
870.71	22729
870.84	22702
870.97	22607
871.1	22599
871.23	22809
871.36	22683
871.489	22740
871.619	22793
871.749	22843
871.879	22759
872.008	22995
872.138	22869
872.267	22763
872.397	22710
872.526	22672
872.656	22672
872.785	22577
872.915	22801
873.044	23006
873.173	22755
873.303	22862
873.432	22889
873.561	22942
873.69	22778
873.819	22831
873.948	22828
874.077	22721
874.206	22790
874.335	22809
874.464	22896
874.593	23056
874.722	22999
874.851	22972
874.979	23041
875.108	23075
875.237	23083
875.365	22946
875.494	22949
875.623	22999
875.751	22927
875.88	23079
876.008	23166
876.136	23193
876.265	23448
876.393	23573
876.521	23448
876.65	23440
876.778	23486
876.906	23429
877.034	23246
877.162	23516
877.29	23395
877.418	23368
877.546	23368
877.674	23547
877.802	23368
877.93	23296
878.058	23372
878.185	23193
878.313	23406
878.441	23372
878.568	23200
878.696	23349
878.824	23478
878.951	23467
879.079	23493
879.206	23695
879.333	23528
879.461	23372
879.588	23512
879.715	23676
879.842	23585
879.97	23493
880.097	23254
880.224	23227
880.351	23185
880.478	23170
880.605	23094
880.732	23208
880.859	23376
880.986	23250
881.112	23170
881.239	23166
881.366	23006
881.493	22801
881.619	22683
881.746	22820
881.872	22801
881.999	22618
882.125	22729
882.252	22816
882.378	22793
882.505	22839
882.631	22580
882.757	22455
882.883	22535
883.01	22451
883.136	22497
883.262	22314
883.388	22207
883.514	22421
883.64	22504
883.766	22428
883.892	22215
884.018	22112
884.143	22394
884.269	22421
884.395	21983
884.52	22044
884.646	22063
884.772	21998
884.897	21987
885.023	22082
885.148	22067
885.274	22219
885.399	22188
885.524	22036
885.65	22238
885.775	22131
885.9	22021
886.025	22082
886.15	22067
886.275	22036
886.4	21915
886.525	22051
886.65	21975
886.775	21895
886.9	22200
887.025	22276
887.149	22032
887.274	21888
887.399	21816
887.523	21823
887.648	21823
887.773	21717
887.897	22006
888.021	21808
888.146	21717
888.27	21960
888.395	21968
888.519	21846
888.643	21831
888.767	21880
888.891	21720
889.015	21675
889.139	21770
889.263	21606
889.387	21667
889.511	21770
889.635	21644
889.759	21656
889.883	21587
890.006	21606
890.13	21705
890.254	21500
890.377	21466
890.501	21355
890.624	21325
890.748	21382
890.871	21454
890.995	21298
891.118	21165
891.241	21226
891.364	21165
891.488	21241
891.611	21214
891.734	21184
891.857	21226
891.98	21184
892.103	21173
892.226	21306
892.349	21112
892.471	20971
892.594	20979
892.717	21119
892.839	21100
892.962	21081
893.085	21081
893.207	21070
893.33	20971
893.452	20933
893.575	21036
893.697	21017
893.819	21260
893.941	21260
894.064	21169
894.186	21077
894.308	20967
894.43	21089
894.552	21165
894.674	21116
894.796	21062
894.918	21005
895.04	21112
895.161	21104
895.283	21081
895.405	21017
895.526	21085
895.648	21077
895.769	21077
895.891	21005
896.012	21184
896.134	21077
896.255	20941
896.376	20994
896.498	21043
896.619	21043
896.74	20956
896.861	21001
896.982	21306
897.103	21488
897.224	21336
897.345	21222
897.466	21112
897.587	21214
897.708	21393
897.828	21389
897.949	21192
898.07	20982
898.19	21165
898.311	21332
898.431	21093
898.552	21325
898.672	21294
898.792	21340
898.913	21256
899.033	21138
899.153	20971
899.273	20823
899.393	20864
899.513	20975
899.633	20990
899.753	20921
899.873	20990
899.993	20963
900.113	20727
900.232	20845
900.352	20883
900.472	20876
900.591	20606
900.711	20731
900.83	20617
900.95	20785
901.069	20796
901.189	20648
901.308	20431
901.427	20237
901.546	20381
901.665	20336
901.784	20263
901.904	20157
902.023	20088
902.141	19921
902.26	19833
902.379	19906
902.498	19898
902.617	19856
902.735	19822
902.854	19704
902.973	19734
903.091	19445
903.21	19419
903.328	19407
903.446	19411
903.565	19365
903.683	19278
903.801	19301
903.919	19175
904.038	19209
904.156	19046
904.274	19084
904.392	19042
904.51	19046
904.627	18996
904.745	18973
904.863	19084
904.981	18814
905.098	18707
905.216	18642
905.334	18715
905.451	18840
905.569	18639
905.686	18760
905.803	18722
905.921	18601
906.038	18582
906.155	18521
906.272	18441
906.389	18479
906.506	18273
906.623	18197
906.74	18133
906.857	18060
906.974	18098
907.091	18251
907.208	18327
907.324	18266
907.441	18011
907.557	17992
907.674	17969
907.79	17878
907.907	17939
908.023	17939
908.139	17935
908.256	17832
908.372	17771
908.488	17752
908.604	17649
908.72	17623
908.836	17649
908.952	17649
909.068	17665
909.184	17775
909.3	17691
909.415	17600
909.531	17543
909.647	17482
909.762	17379
909.878	17379
909.993	17414
910.108	17269
910.224	17296
910.339	17349
910.454	17220
910.57	17128
910.685	17067
910.8	17398
910.915	17296
911.03	17124
911.145	16976
911.259	16972
911.374	16934
911.489	16881
911.604	16771
911.718	16683
911.833	16710
911.947	16538
912.062	16459
912.176	16649
912.291	16668
912.405	16561
912.519	16877
912.633	16710
912.748	16698
912.862	16603
912.976	16440
913.09	16344
913.204	16443
913.318	16413
913.431	16622
913.545	16588
913.659	16546
913.772	16428
913.886	16276
914	16185
914.113	16299
914.226	16280
914.34	16371
914.453	16154
914.566	16238
914.68	16143
914.793	16036
914.906	15922
915.019	15819
915.132	15842
915.245	15850
915.358	15800
915.47	15861
915.583	15800
915.696	15903
915.809	15873
915.921	15915
916.034	15838
916.146	15804
916.259	15743
916.371	15766
916.483	15876
916.595	15633
916.708	15717
916.82	15743
916.932	15614
917.044	15564
917.156	15523
917.268	15469
917.38	15370
917.491	15530
917.603	15370
917.715	15568
917.826	15572
917.938	15367
918.049	15321
918.161	15397
918.272	15641
918.384	15515
918.495	15363
918.606	15226
918.717	15146
918.828	15310
918.939	15138
919.05	15119
919.161	15192
919.272	14998
919.383	15070
919.494	15188
919.604	15447
919.715	15230
919.826	15085
919.936	15154
920.047	15272
920.157	15184
920.267	15340
920.378	15116
920.488	15245
920.598	15386
920.708	15401
920.818	15272
920.928	15298
921.038	15469
921.148	15492
921.258	15138
921.368	15070
921.477	14864
921.587	14823
921.697	14758
921.806	14880
921.916	14716
922.025	14651
922.134	14522
922.244	14625
922.353	14594
922.462	14434
922.571	14229
922.68	14248
922.789	14130
922.898	14153
923.007	14111
923.116	14126
923.224	14214
923.333	14145
923.442	13989
923.55	13947
923.659	13982
923.767	14008
923.876	13921
923.984	14005
924.092	13833
924.201	13951
924.309	13883
924.417	13852
924.525	13776
924.633	13887
924.741	14765
924.849	13662
924.956	13731
925.064	13624
925.172	13445
925.279	13540
925.387	13624
925.494	13369
925.602	13632
925.709	13453
925.816	13460
925.924	13491
926.031	13544
926.138	13495
926.245	13616
926.352	13426
926.459	13472
926.566	13491
926.673	13384
926.779	13350
926.886	13194
926.993	13232
927.099	13141
927.206	13046
927.312	13015
927.419	13175
927.525	12996
927.631	13156
927.737	12977
927.843	12939
927.95	12760
928.056	12909
928.162	12856
928.267	13057
928.373	13521
928.479	12943
928.585	12722
928.69	12840
928.796	12973
928.901	12764
929.007	12589
929.112	12749
929.218	12642
929.323	12597
929.428	12597
929.533	12715
929.638	12467
929.743	12563
929.848	12578
929.953	12582
930.058	12445
930.163	12403
930.267	12213
930.372	12403
930.477	12098
930.581	12460
930.685	12308
930.79	12228
930.894	12258
930.998	12091
931.103	12270
931.207	11840
931.311	11756
931.415	11657
931.519	11577
931.623	11478
