Data from test_V78500241_2346.txt Node
Date: Fri Mar 25 15:58:03 CST 2022
User: usil
Spectrometer: V785-0024
Trigger mode: 0
Integration Time (sec): 4.000000E-1
Scans to average: 1
Nonlinearity correction enabled: false
Boxcar width: 0
Storing dark spectrum: false
XAxis mode: Wavelengths
Number of Pixels in Spectrum: 1024
>>>>>Begin Spectral Data<<<<<
801.071	28596
801.214	28626
801.356	28379
801.499	28322
801.641	28166
801.783	28261
801.926	28234
802.068	28234
802.211	28131
802.353	28143
802.496	28002
802.638	27861
802.78	27808
802.923	27854
803.065	27785
803.208	27778
803.35	27800
803.492	28082
803.635	28253
803.777	28010
803.919	27918
804.061	28451
804.204	28211
804.346	28093
804.488	28086
804.63	28086
804.773	28063
804.915	28185
805.057	28310
805.199	28185
805.341	28230
805.483	28295
805.626	28280
805.768	28223
805.91	28147
806.052	28310
806.194	28246
806.336	28344
806.478	28341
806.62	28398
806.762	28356
806.904	28546
807.046	28854
807.188	28649
807.33	28759
807.472	28786
807.614	28771
807.756	28771
807.898	28596
808.04	28584
808.182	28649
808.324	28569
808.465	28706
808.607	28843
808.749	28911
808.891	29185
809.033	29086
809.174	28866
809.316	29029
809.458	28968
809.6	28843
809.741	29056
809.883	29121
810.025	29269
810.166	29341
810.308	29433
810.45	29250
810.591	29143
810.733	28949
810.875	29010
811.016	28881
811.158	29025
811.299	29121
811.441	29113
811.582	29200
811.724	29094
811.865	29022
812.007	29048
812.148	28968
812.29	29083
812.431	29204
812.573	29288
812.714	29391
812.855	29516
812.997	29687
813.138	29828
813.279	29714
813.421	29497
813.562	29402
813.703	29360
813.845	29136
813.986	28877
814.127	28774
814.268	28748
814.41	28683
814.551	28561
814.692	28729
814.833	28481
814.974	28592
815.115	28778
815.256	28626
815.397	28550
815.539	28580
815.68	28508
815.821	28432
815.962	28523
816.103	28531
816.244	28382
816.385	28318
816.526	28150
816.666	28029
816.807	28010
816.948	28147
817.089	28040
817.23	28002
817.371	27930
817.512	27884
817.653	27972
817.793	27838
817.934	28131
818.075	27937
818.216	28006
818.356	27960
818.497	27949
818.638	27778
818.778	27724
818.919	27873
819.06	27880
819.2	27956
819.341	27930
819.481	28051
819.622	28093
819.762	28386
819.903	28253
820.043	28169
820.184	28230
820.324	28131
820.465	28230
820.605	28105
820.746	28074
820.886	27975
821.026	28143
821.167	28109
821.307	28169
821.447	28090
821.588	28086
821.728	27774
821.868	27530
822.008	27595
822.149	27511
822.289	27405
822.429	27203
822.569	27013
822.709	27283
822.849	26956
822.99	26963
823.13	26990
823.27	26785
823.41	26918
823.55	26644
823.69	26773
823.83	26735
823.97	26830
824.11	26606
824.25	26678
824.389	26518
824.529	26659
824.669	26655
824.809	26792
824.949	26613
825.089	26625
825.228	26708
825.368	26492
825.508	26473
825.648	26415
825.787	26594
825.927	26530
826.067	26575
826.206	26571
826.346	26541
826.485	26541
826.625	26518
826.765	26625
826.904	26419
827.044	26305
827.183	26218
827.323	26195
827.462	26355
827.601	26256
827.741	26103
827.88	26305
828.02	26229
828.159	26229
828.298	26191
828.437	26400
828.577	26206
828.716	26351
828.855	26081
828.994	25788
829.134	26035
829.273	25875
829.412	25875
829.551	25883
829.69	25970
829.829	25932
829.968	26043
830.107	25944
830.246	25845
830.385	25826
830.524	25845
830.663	25639
830.802	25544
830.941	25499
831.08	25476
831.219	25506
831.357	25586
831.496	25708
831.635	25426
831.774	25533
831.913	25293
832.051	25282
832.19	25232
832.329	25426
832.467	25285
832.606	25145
832.744	25244
832.883	25118
833.022	25110
833.16	25156
833.299	25259
833.437	25259
833.576	25316
833.714	25388
833.852	25350
833.991	25255
834.129	25331
834.267	25320
834.406	25171
834.544	25274
834.682	25259
834.821	25202
834.959	25343
835.097	25110
835.235	25171
835.373	25312
835.511	25251
835.65	25114
835.788	25065
835.926	24970
836.064	24894
836.202	24985
836.34	25110
836.478	25236
836.615	25110
836.753	25072
836.891	25217
837.029	25000
837.167	25000
837.305	24932
837.443	24882
837.58	24867
837.718	24886
837.856	24840
837.993	24856
838.131	24802
838.269	24677
838.406	24844
838.544	24738
838.681	24445
838.819	24437
838.956	24353
839.094	24441
839.231	24365
839.369	24365
839.506	24764
839.643	24681
839.781	24315
839.918	24330
840.055	24372
840.193	24197
840.33	24209
840.467	24205
840.604	24247
840.742	24483
840.879	24087
841.016	24114
841.153	24247
841.29	24403
841.427	24159
841.564	24235
841.701	24209
841.838	24133
841.975	24201
842.112	24228
842.249	24224
842.385	24106
842.522	24266
842.659	24106
842.796	24117
842.933	24125
843.069	23996
843.206	23901
843.343	24072
843.479	23942
843.616	24003
843.752	23687
843.889	23809
844.025	23904
844.162	23821
844.298	23885
844.435	23771
844.571	23737
844.708	23889
844.844	23965
844.98	23870
845.117	23828
845.253	23623
845.389	23665
845.525	23657
845.661	23592
845.798	23589
845.934	23596
846.07	23406
846.206	23566
846.342	23687
846.478	23471
846.614	23410
846.75	23151
846.886	23159
847.022	23284
847.158	23239
847.294	23265
847.429	23307
847.565	23254
847.701	23452
847.837	22866
847.972	22850
848.108	23109
848.244	22957
848.379	22911
848.515	22824
848.65	22790
848.786	22774
848.921	22946
849.057	22892
849.192	22885
849.328	22862
849.463	22721
849.598	22679
849.734	22607
849.869	22683
850.004	22516
850.14	22649
850.275	22516
850.41	22557
850.545	22504
850.68	22668
850.815	22557
850.95	22607
851.085	22831
851.22	22607
851.355	22618
851.49	22519
851.625	22607
851.76	22596
851.895	22459
852.03	22443
852.165	22554
852.299	22599
852.434	22596
852.569	22618
852.703	22577
852.838	22637
852.973	22717
853.107	22782
853.242	22580
853.376	22447
853.511	22436
853.645	22318
853.78	22550
853.914	22402
854.048	22337
854.183	22299
854.317	22459
854.451	22717
854.585	22447
854.72	22409
854.854	22538
854.988	22428
855.122	22447
855.256	22299
855.39	22436
855.524	22478
855.658	22618
855.792	22390
855.926	22390
856.06	22493
856.194	22569
856.327	22462
856.461	22310
856.595	22253
856.729	22405
856.862	22618
856.996	22424
857.13	22546
857.263	22466
857.397	22447
857.53	22443
857.664	22508
857.797	22432
857.931	22500
858.064	22421
858.197	22523
858.331	22436
858.464	22363
858.597	22367
858.731	22508
858.864	22310
858.997	22299
859.13	22470
859.263	22299
859.396	22417
859.529	22489
859.662	22322
859.795	22462
859.928	22565
860.061	22683
860.194	22668
860.327	22356
860.46	22462
860.592	22580
860.725	22554
860.858	22611
860.99	22481
861.123	22280
861.256	22344
861.388	22409
861.521	23155
861.653	22322
861.786	22192
861.918	22177
862.05	22382
862.183	22322
862.315	22284
862.447	22421
862.58	22284
862.712	22109
862.844	22120
862.976	22192
863.108	22200
863.24	22565
863.372	22112
863.504	22002
863.636	22112
863.768	22055
863.9	22154
864.032	22204
864.164	22181
864.296	22185
864.428	22287
864.559	22226
864.691	22226
864.823	22158
864.954	22139
865.086	22021
865.217	22143
865.349	21968
865.48	22051
865.612	22017
865.743	22223
865.875	21861
866.006	21968
866.137	22040
866.269	21835
866.4	22002
866.531	21899
866.662	21926
866.793	22025
866.924	21960
867.055	21972
867.186	21956
867.317	21945
867.448	21911
867.579	21842
867.71	21846
867.841	21876
867.972	21964
868.103	21956
868.233	21998
868.364	21911
868.495	22090
868.625	22211
868.756	22242
868.886	22109
869.017	22147
869.147	22249
869.278	22314
869.408	22078
869.539	22166
869.669	22230
869.799	22363
869.929	22371
870.06	22253
870.19	22535
870.32	22424
870.45	22523
870.58	22577
870.71	22767
870.84	22744
870.97	22538
871.1	22653
871.23	22759
871.36	22790
871.489	22694
871.619	22748
871.749	22778
871.879	22717
872.008	22965
872.138	22782
872.267	22713
872.397	22584
872.526	22508
872.656	22523
872.785	22565
872.915	22862
873.044	22839
873.173	22797
873.303	22824
873.432	22850
873.561	22759
873.69	22824
873.819	22892
873.948	22904
874.077	22866
874.206	22793
874.335	22763
874.464	22949
874.593	23086
874.722	22957
874.851	23052
874.979	23178
875.108	23083
875.237	22881
875.365	22915
875.494	22942
875.623	23086
875.751	22908
875.88	22930
876.008	23200
876.136	23147
876.265	23379
876.393	23486
876.521	23273
876.65	23452
876.778	23402
876.906	23353
877.034	23349
877.162	23356
877.29	23311
877.418	23349
877.546	23493
877.674	23379
877.802	23330
877.93	23303
878.058	23356
878.185	23193
878.313	23318
878.441	23353
878.568	23170
878.696	23258
878.824	23345
878.951	23379
879.079	23471
879.206	23676
879.333	23570
879.461	23391
879.588	23429
879.715	23509
879.842	23600
879.97	23376
880.097	23239
880.224	23162
880.351	23094
880.478	23147
880.605	23083
880.732	23216
880.859	23379
880.986	23170
881.112	23265
881.239	23044
881.366	22885
881.493	22820
881.619	22755
881.746	22736
881.872	22706
881.999	22767
882.125	22611
882.252	22767
882.378	22721
882.505	22736
882.631	22535
882.757	22485
882.883	22500
883.01	22424
883.136	22443
883.262	22284
883.388	22158
883.514	22455
883.64	22428
883.766	22337
883.892	22169
884.018	22185
884.143	22306
884.269	22462
884.395	22154
884.52	21979
884.646	22185
884.772	21960
884.897	21998
885.023	21987
885.148	22048
885.274	22238
885.399	22101
885.524	21991
885.65	22078
885.775	21968
885.9	22074
886.025	22017
886.15	22211
886.275	22181
886.4	21979
886.525	22036
886.65	22051
886.775	21945
886.9	22135
887.025	22131
887.149	21953
887.274	21823
887.399	21724
887.523	21842
887.648	21606
887.773	21800
887.897	21892
888.021	21770
888.146	21804
888.27	21960
888.395	21899
888.519	21865
888.643	21861
888.767	21827
888.891	21698
889.015	21603
889.139	21641
889.263	21519
889.387	21724
889.511	21736
889.635	21690
889.759	21549
889.883	21496
890.006	21526
890.13	21595
890.254	21515
890.377	21488
890.501	21252
890.624	21291
890.748	21401
890.871	21233
890.995	21104
891.118	21077
891.241	21218
891.364	21199
891.488	21317
891.611	21211
891.734	21017
891.857	21218
891.98	21188
892.103	21024
892.226	21157
892.349	21028
892.471	20967
892.594	20929
892.717	21032
892.839	21020
892.962	20944
893.085	20979
893.207	21081
893.33	20963
893.452	20925
893.575	21074
893.697	21036
893.819	21051
893.941	21051
894.064	21085
894.186	21077
894.308	20941
894.43	21062
894.552	21275
894.674	21119
894.796	20883
894.918	20986
895.04	20975
895.161	21089
895.283	21142
895.405	20994
895.526	21108
895.648	21013
895.769	20986
895.891	21131
896.012	21070
896.134	21066
896.255	21009
896.376	21036
896.498	21096
896.619	21066
896.74	20975
896.861	21093
896.982	21443
897.103	21447
897.224	21245
897.345	21272
897.466	21207
897.587	21211
897.708	21378
897.828	21245
897.949	21119
898.07	20960
898.19	21214
898.311	21226
898.431	21176
898.552	21214
898.672	21161
898.792	21241
898.913	21233
899.033	21104
899.153	20948
899.273	20883
899.393	20857
899.513	21123
899.633	20861
899.753	21100
899.873	20845
899.993	20948
900.113	20842
900.232	20990
900.352	20804
900.472	20667
900.591	20674
900.711	20701
900.83	20533
900.95	20781
901.069	20807
901.189	20583
901.308	20385
901.427	20259
901.546	20328
901.665	20332
901.784	20172
901.904	20202
902.023	20043
902.141	19822
902.26	19788
902.379	19974
902.498	19772
902.617	19689
902.735	19780
902.854	19704
902.973	19639
903.091	19521
903.21	19377
903.328	19441
903.446	19324
903.565	19156
903.683	19327
903.801	19110
903.919	19168
904.038	19190
904.156	19034
904.274	19099
904.392	18947
904.51	19031
904.627	18962
904.745	18947
904.863	19069
904.981	18734
905.098	18703
905.216	18646
905.334	18715
905.451	18673
905.569	18639
905.686	18631
905.803	18673
905.921	18502
906.038	18616
906.155	18395
906.272	18330
906.389	18327
906.506	18174
906.623	18186
906.74	18159
906.857	18114
906.974	18110
907.091	18243
907.208	18308
907.324	18224
907.441	18091
907.557	17958
907.674	17923
907.79	17840
907.907	17916
908.023	17805
908.139	17836
908.256	17958
908.372	17722
908.488	17684
908.604	17627
908.72	17661
908.836	17661
908.952	17577
909.068	17672
909.184	17733
909.3	17760
909.415	17707
909.531	17649
909.647	17265
909.762	17341
909.878	17250
909.993	17273
910.108	17250
910.224	17288
910.339	17197
910.454	17178
910.57	17067
910.685	17045
910.8	17318
910.915	17220
911.03	17052
911.145	16911
911.259	16862
911.374	16896
911.489	16953
911.604	16809
911.718	16683
911.833	16706
911.947	16527
912.062	16485
912.176	16584
912.291	16626
912.405	16725
912.519	16774
912.633	16790
912.748	16656
912.862	16694
912.976	16500
913.09	16333
913.204	16447
913.318	16394
913.431	16497
913.545	16554
913.659	16561
913.772	16299
913.886	16230
914	16185
914.113	16234
914.226	16333
914.34	16291
914.453	16188
914.566	16276
914.68	16120
914.793	16086
914.906	15823
915.019	15854
915.132	15823
915.245	15831
915.358	15751
915.47	15876
915.583	15827
915.696	15865
915.809	15983
915.921	15888
916.034	15751
916.146	15736
916.259	15667
916.371	15816
916.483	15823
916.595	15625
916.708	15591
916.82	15629
916.932	15648
917.044	15568
917.156	15584
917.268	15412
917.38	15526
917.491	15397
917.603	15454
917.715	15428
917.826	15587
917.938	15302
918.049	15214
918.161	15469
918.272	15420
918.384	15466
918.495	15386
918.606	15264
918.717	15188
918.828	15268
918.939	15195
919.05	15131
919.161	15184
919.272	14948
919.383	14990
919.494	15180
919.604	15504
919.715	15241
919.826	15116
919.936	15218
920.047	15146
920.157	15165
920.267	15355
920.378	15146
920.488	15074
920.598	15203
920.708	15389
920.818	15211
920.928	15249
921.038	15397
921.148	15313
921.258	15013
921.368	14944
921.477	14921
921.587	14853
921.697	14735
921.806	14788
921.916	14773
922.025	14530
922.134	14450
922.244	14450
922.353	14545
922.462	14393
922.571	14286
922.68	14134
922.789	14199
922.898	14073
923.007	14073
923.116	14202
923.224	14145
923.333	14145
923.442	14050
923.55	13959
923.659	13940
923.767	13993
923.876	13894
923.984	13932
924.092	13868
924.201	13932
924.309	13887
924.417	13818
924.525	13788
924.633	13772
924.741	14762
924.849	13582
924.956	13643
925.064	13521
925.172	13472
925.279	13559
925.387	13609
925.494	13540
925.602	13540
925.709	13552
925.816	13415
925.924	13354
926.031	13552
926.138	13537
926.245	13457
926.352	13343
926.459	13411
926.566	13487
926.673	13407
926.779	13240
926.886	13213
926.993	13122
927.099	13107
927.206	13042
927.312	12894
927.419	13031
927.525	13012
927.631	13129
927.737	13015
927.843	12844
927.95	12783
928.056	12848
928.162	12962
928.267	12909
928.373	13540
928.479	12943
928.585	12688
928.69	12795
928.796	12810
928.901	12768
929.007	12639
929.112	12669
929.218	12589
929.323	12604
929.428	12563
929.533	12707
929.638	12509
929.743	12521
929.848	12597
929.953	12521
930.058	12460
930.163	12357
930.267	12300
930.372	12388
930.477	12155
930.581	12471
930.685	12311
930.79	12072
930.894	12190
930.998	12098
931.103	12205
931.207	11878
931.311	11805
931.415	11737
931.519	11474
931.623	11459
