Data from test_V78500241_3068.txt Node
Date: Fri Mar 25 16:03:03 CST 2022
User: usil
Spectrometer: V785-0024
Trigger mode: 0
Integration Time (sec): 4.000000E-1
Scans to average: 1
Nonlinearity correction enabled: false
Boxcar width: 0
Storing dark spectrum: false
XAxis mode: Wavelengths
Number of Pixels in Spectrum: 1024
>>>>>Begin Spectral Data<<<<<
801.071	28778
801.214	28733
801.356	28489
801.499	28474
801.641	28394
801.783	28147
801.926	28333
802.068	28303
802.211	28188
802.353	28200
802.496	28040
802.638	27937
802.78	27892
802.923	27941
803.065	27907
803.208	28013
803.35	27869
803.492	28063
803.635	28360
803.777	28223
803.919	28124
804.061	28440
804.204	28310
804.346	28173
804.488	28128
804.63	28333
804.773	28242
804.915	28322
805.057	28352
805.199	28230
805.341	28390
805.483	28424
805.626	28459
805.768	28352
805.91	28569
806.052	28447
806.194	28398
806.336	28443
806.478	28428
806.62	28314
806.762	28603
806.904	28748
807.046	28946
807.188	28786
807.33	28831
807.472	28999
807.614	28881
807.756	28930
807.898	28809
808.04	28523
808.182	28630
808.324	28706
808.465	28858
808.607	29075
808.749	29124
808.891	29162
809.033	29296
809.174	29056
809.316	29022
809.458	29025
809.6	29037
809.741	29132
809.883	29227
810.025	29531
810.166	29395
810.308	29364
810.45	29140
810.591	29311
810.733	29067
810.875	29151
811.016	28980
811.158	29067
811.299	29231
811.441	29341
811.582	29178
811.724	29025
811.865	29014
812.007	28930
812.148	29124
812.29	29330
812.431	29315
812.573	29520
812.714	29539
812.855	29623
812.997	29809
813.138	29904
813.279	29764
813.421	29703
813.562	29680
813.703	29691
813.845	29379
813.986	29060
814.127	28854
814.268	28877
814.41	28782
814.551	28767
814.692	28862
814.833	28839
814.974	28850
815.115	28911
815.256	28763
815.397	28710
815.539	28755
815.68	28736
815.821	28626
815.962	28664
816.103	28778
816.244	28599
816.385	28424
816.526	28371
816.666	28215
816.807	28105
816.948	28196
817.089	28173
817.23	28268
817.371	28200
817.512	28147
817.653	28139
817.793	28044
817.934	28082
818.075	28070
818.216	28154
818.356	28093
818.497	27945
818.638	27835
818.778	27857
818.919	28040
819.06	28097
819.2	28143
819.341	28154
819.481	28112
819.622	28363
819.762	28550
819.903	28508
820.043	28363
820.184	28238
820.324	28344
820.465	28318
820.605	28386
820.746	28105
820.886	28154
821.026	28219
821.167	28150
821.307	28432
821.447	28253
821.588	28128
821.728	27964
821.868	27671
822.008	27625
822.149	27564
822.289	27705
822.429	27310
822.569	27245
822.709	27504
822.849	27173
822.99	27135
823.13	27249
823.27	27108
823.41	26998
823.55	26910
823.69	27017
823.83	26967
823.97	26883
824.11	26720
824.25	26693
824.389	26777
824.529	26811
824.669	26762
824.809	26788
824.949	26940
825.089	26853
825.228	26807
825.368	26739
825.508	26606
825.648	26765
825.787	26857
825.927	26754
826.067	26587
826.206	26769
826.346	26743
826.485	26769
826.625	26670
826.765	26853
826.904	26708
827.044	26461
827.183	26446
827.323	26358
827.462	26446
827.601	26423
827.741	26377
827.88	26415
828.02	26419
828.159	26290
828.298	26320
828.437	26469
828.577	26298
828.716	26336
828.855	26202
828.994	26088
829.134	26180
829.273	26149
829.412	26008
829.551	26084
829.69	26119
829.829	26012
829.968	26164
830.107	26149
830.246	26195
830.385	26153
830.524	26024
830.663	25822
830.802	25811
830.941	25670
831.08	25525
831.219	25833
831.357	25742
831.496	25909
831.635	25594
831.774	25647
831.913	25613
832.051	25430
832.19	25510
832.329	25552
832.467	25369
832.606	25434
832.744	25339
832.883	25476
833.022	25365
833.16	25312
833.299	25285
833.437	25244
833.576	25415
833.714	25369
833.852	25438
833.991	25514
834.129	25571
834.267	25487
834.406	25365
834.544	25449
834.682	25468
834.821	25282
834.959	25609
835.097	25327
835.235	25575
835.373	25400
835.511	25426
835.65	25240
835.788	25247
835.926	25042
836.064	25080
836.202	25110
836.34	25217
836.478	25308
836.615	25263
836.753	25293
836.891	25278
837.029	25278
837.167	25031
837.305	25122
837.443	25118
837.58	25107
837.718	25110
837.856	25141
837.993	25031
838.131	25072
838.269	24992
838.406	24973
838.544	24833
838.681	24642
838.819	24677
838.956	24498
839.094	24509
839.231	24589
839.369	24658
839.506	24970
839.643	24829
839.781	24483
839.918	24467
840.055	24585
840.193	24513
840.33	24365
840.467	24418
840.604	24517
840.742	24673
840.879	24273
841.016	24418
841.153	24429
841.29	24578
841.427	24433
841.564	24365
841.701	24448
841.838	24399
841.975	24209
842.112	24308
842.249	24292
842.385	24190
842.522	24418
842.659	24205
842.796	24270
842.933	24144
843.069	24110
843.206	24091
843.343	24304
843.479	24087
843.616	24357
843.752	24102
843.889	24049
844.025	24068
844.162	23923
844.298	24049
844.435	23893
844.571	23977
844.708	24003
844.844	23996
844.98	24167
845.117	24030
845.253	24003
845.389	23798
845.525	23821
845.661	23817
845.798	23703
845.934	23672
846.07	23687
846.206	23802
846.342	23878
846.478	23703
846.614	23528
846.75	23258
846.886	23406
847.022	23562
847.158	23554
847.294	23551
847.429	23440
847.565	23341
847.701	23699
847.837	23113
847.972	23136
848.108	23280
848.244	23296
848.379	23128
848.515	23052
848.65	23014
848.786	23128
848.921	23113
849.057	23140
849.192	23094
849.328	23098
849.463	23079
849.598	23006
849.734	22923
849.869	22812
850.004	22782
850.14	22782
850.275	22759
850.41	22679
850.545	22702
850.68	22809
850.815	22843
850.95	22782
851.085	22980
851.22	22946
851.355	22831
851.49	22675
851.625	22717
851.76	22687
851.895	22702
852.03	22626
852.165	22740
852.299	22752
852.434	22774
852.569	22774
852.703	22736
852.838	22835
852.973	22908
853.107	22980
853.242	22706
853.376	22656
853.511	22443
853.645	22500
853.78	22771
853.914	22542
854.048	22637
854.183	22630
854.317	22683
854.451	22869
854.585	22546
854.72	22554
854.854	22710
854.988	22565
855.122	22656
855.256	22466
855.39	22531
855.524	22607
855.658	22729
855.792	22733
855.926	22672
856.06	22565
856.194	22641
856.327	22447
856.461	22519
856.595	22622
856.729	22626
856.862	22824
856.996	22592
857.13	22656
857.263	22752
857.397	22645
857.53	22717
857.664	22504
857.797	22672
857.931	22710
858.064	22577
858.197	22573
858.331	22584
858.464	22535
858.597	22459
858.731	22542
858.864	22538
858.997	22432
859.13	22622
859.263	22653
859.396	22588
859.529	22634
859.662	22573
859.795	22550
859.928	22656
860.061	22691
860.194	22706
860.327	22649
860.46	22500
860.592	22774
860.725	22611
860.858	22790
860.99	22584
861.123	22497
861.256	22561
861.388	22691
861.521	23223
861.653	22474
861.786	22417
861.918	22542
862.05	22402
862.183	22516
862.315	22527
862.447	22649
862.58	22637
862.712	22310
862.844	22295
862.976	22440
863.108	22363
863.24	22869
863.372	22166
863.504	22322
863.636	22318
863.768	22356
863.9	22421
864.032	22253
864.164	22291
864.296	22428
864.428	22337
864.559	22405
864.691	22295
864.823	22352
864.954	22394
865.086	22291
865.217	22249
865.349	22105
865.48	22238
865.612	22173
865.743	22348
865.875	22162
866.006	22150
866.137	22112
866.269	22276
866.4	22120
866.531	22166
866.662	22120
866.793	22055
866.924	22242
867.055	22162
867.186	22139
867.317	22169
867.448	22154
867.579	22013
867.71	22070
867.841	22040
867.972	22192
868.103	22207
868.233	22223
868.364	22059
868.495	22093
868.625	22367
868.756	22523
868.886	22215
869.017	22382
869.147	22436
869.278	22516
869.408	22417
869.539	22375
869.669	22405
869.799	22299
869.929	22485
870.06	22462
870.19	22645
870.32	22664
870.45	22649
870.58	22771
870.71	22835
870.84	22923
870.97	22740
871.1	22767
871.23	22923
871.36	22908
871.489	22915
871.619	22927
871.749	22892
871.879	23010
872.008	23178
872.138	22984
872.267	22877
872.397	22850
872.526	22793
872.656	22824
872.785	22816
872.915	23022
873.044	23083
873.173	23048
873.303	23086
873.432	23067
873.561	23098
873.69	23022
873.819	22976
873.948	23022
874.077	22972
874.206	22877
874.335	22957
874.464	23098
874.593	23296
874.722	23090
874.851	23356
874.979	23208
875.108	23303
875.237	23280
875.365	23113
875.494	23121
875.623	23349
875.751	23105
875.88	23193
876.008	23254
876.136	23284
876.265	23573
876.393	23668
876.521	23627
876.65	23684
876.778	23558
876.906	23417
877.034	23452
877.162	23433
877.29	23391
877.418	23414
877.546	23570
877.674	23486
877.802	23520
877.93	23501
878.058	23414
878.185	23474
878.313	23448
878.441	23493
878.568	23220
878.696	23459
878.824	23676
878.951	23589
879.079	23657
879.206	23817
879.333	23611
879.461	23581
879.588	23710
879.715	23665
879.842	23798
879.97	23501
880.097	23288
880.224	23360
880.351	23330
880.478	23356
880.605	23353
880.732	23288
880.859	23596
880.986	23345
881.112	23459
881.239	23189
881.366	23105
881.493	23006
881.619	22927
881.746	22942
881.872	22934
881.999	22881
882.125	22755
882.252	22847
882.378	22892
882.505	22858
882.631	22782
882.757	22687
882.883	22691
883.01	22675
883.136	22554
883.262	22493
883.388	22440
883.514	22588
883.64	22637
883.766	22497
883.892	22466
884.018	22386
884.143	22649
884.269	22542
884.395	22337
884.52	22265
884.646	22367
884.772	22196
884.897	22006
885.023	22226
885.148	22306
885.274	22432
885.399	22329
885.524	22207
885.65	22249
885.775	22242
885.9	22128
886.025	22341
886.15	22265
886.275	22158
886.4	22147
886.525	22185
886.65	22055
886.775	22029
886.9	22276
887.025	22398
887.149	22242
887.274	21934
887.399	21945
887.523	21983
887.648	21850
887.773	21857
887.897	22002
888.021	22006
888.146	21739
888.27	22070
888.395	21972
888.519	22010
888.643	21899
888.767	22002
888.891	21888
889.015	21739
889.139	21785
889.263	21701
889.387	21831
889.511	21991
889.635	21915
889.759	21694
889.883	21701
890.006	21789
890.13	21873
890.254	21709
890.377	21789
890.501	21599
890.624	21412
890.748	21485
890.871	21393
890.995	21291
891.118	21237
891.241	21393
891.364	21310
891.488	21507
891.611	21302
891.734	21329
891.857	21313
891.98	21405
892.103	21382
892.226	21382
892.349	21268
892.471	21039
892.594	21211
892.717	21233
892.839	21192
892.962	21245
893.085	21245
893.207	21203
893.33	21104
893.452	21116
893.575	21237
893.697	21176
893.819	21275
893.941	21439
894.064	21298
894.186	21222
894.308	21020
894.43	21408
894.552	21294
894.674	21252
894.796	21146
894.918	21131
895.04	21119
895.161	21279
895.283	21218
895.405	21150
895.526	21135
895.648	21180
895.769	21074
895.891	21252
896.012	21344
896.134	21222
896.255	21161
896.376	21104
896.498	21272
896.619	21207
896.74	21214
896.861	21135
896.982	21519
897.103	21610
897.224	21466
897.345	21291
897.466	21256
897.587	21378
897.708	21496
897.828	21515
897.949	21355
898.07	21279
898.19	21241
898.311	21443
898.431	21279
898.552	21252
898.672	21370
898.792	21473
898.913	21332
899.033	21294
899.153	21104
899.273	21096
899.393	21169
899.513	21214
899.633	21112
899.753	21161
899.873	21161
899.993	21188
900.113	20982
900.232	20971
900.352	21036
900.472	20979
900.591	20872
900.711	20834
900.83	20929
900.95	20990
901.069	20963
901.189	20750
901.308	20549
901.427	20518
901.546	20488
901.665	20488
901.784	20434
901.904	20317
902.023	20237
902.141	19997
902.26	19982
902.379	20043
902.498	19917
902.617	19902
902.735	19925
902.854	19917
902.973	19913
903.091	19685
903.21	19727
903.328	19597
903.446	19571
903.565	19312
903.683	19320
903.801	19244
903.919	19430
904.038	19274
904.156	19145
904.274	19198
904.392	19080
904.51	19126
904.627	19168
904.745	19187
904.863	19263
904.981	18977
905.098	18730
905.216	18829
905.334	18821
905.451	18840
905.569	18871
905.686	18825
905.803	18890
905.921	18589
906.038	18570
906.155	18692
906.272	18544
906.389	18563
906.506	18456
906.623	18304
906.74	18308
906.857	18243
906.974	18136
907.091	18467
907.208	18464
907.324	18448
907.441	18251
907.557	18003
907.674	18091
907.79	17901
907.907	18079
908.023	18140
908.139	18068
908.256	17965
908.372	17950
908.488	17813
908.604	17882
908.72	17745
908.836	17726
908.952	17741
909.068	17961
909.184	17920
909.3	17813
909.415	17710
909.531	17676
909.647	17558
909.762	17524
909.878	17482
909.993	17493
910.108	17486
910.224	17486
910.339	17379
910.454	17212
910.57	17242
910.685	17212
910.8	17417
910.915	17334
911.03	17223
911.145	17045
911.259	17083
911.374	16995
911.489	16987
911.604	17064
911.718	16824
911.833	16801
911.947	16694
912.062	16577
912.176	16782
912.291	16866
912.405	16812
912.519	16965
912.633	16911
912.748	16839
912.862	16774
912.976	16527
913.09	16485
913.204	16500
913.318	16656
913.431	16634
913.545	16607
913.659	16603
913.772	16535
913.886	16459
914	16352
914.113	16436
914.226	16523
914.34	16413
914.453	16131
914.566	16329
914.68	16257
914.793	16314
914.906	15972
915.019	15926
915.132	15941
915.245	15994
915.358	15998
915.47	15960
915.583	15941
915.696	15873
915.809	16116
915.921	15987
916.034	15827
916.146	15873
916.259	15842
916.371	15884
916.483	15835
916.595	15717
916.708	15755
916.82	15797
916.932	15751
917.044	15728
917.156	15713
917.268	15694
917.38	15591
917.491	15618
917.603	15633
917.715	15656
917.826	15614
917.938	15534
918.049	15492
918.161	15561
918.272	15606
918.384	15629
918.495	15561
918.606	15382
918.717	15226
918.828	15370
918.939	15405
919.05	15218
919.161	15332
919.272	15222
919.383	15192
919.494	15355
919.604	15549
919.715	15264
919.826	15218
919.936	15233
920.047	15298
920.157	15389
920.267	15481
920.378	15359
920.488	15241
920.598	15401
920.708	15500
920.818	15416
920.928	15443
921.038	15473
921.148	15523
921.258	15138
921.368	15154
921.477	15093
921.587	15009
921.697	14925
921.806	14948
921.916	14823
922.025	14716
922.134	14632
922.244	14564
922.353	14602
922.462	14503
922.571	14438
922.68	14202
922.789	14244
922.898	14210
923.007	14256
923.116	14328
923.224	14263
923.333	14267
923.442	14115
923.55	14035
923.659	14058
923.767	14138
923.876	14077
923.984	14172
924.092	13951
924.201	13951
924.309	14008
924.417	13925
924.525	13894
924.633	13883
924.741	14568
924.849	13586
924.956	13860
925.064	13681
925.172	13559
925.279	13521
925.387	13639
925.494	13575
925.602	13738
925.709	13613
925.816	13544
925.924	13510
926.031	13571
926.138	13559
926.245	13616
926.352	13464
926.459	13559
926.566	13616
926.673	13434
926.779	13483
926.886	13350
926.993	13225
927.099	13217
927.206	13168
927.312	13194
927.419	13152
927.525	13228
927.631	13126
927.737	13053
927.843	13027
927.95	12935
928.056	12970
928.162	13034
928.267	12989
928.373	13419
928.479	13133
928.585	12776
928.69	12958
928.796	12989
928.901	12741
929.007	12722
929.112	12753
929.218	12791
929.323	12707
929.428	12681
929.533	12894
929.638	12631
929.743	12620
929.848	12696
929.953	12646
930.058	12521
930.163	12311
930.267	12433
930.372	12460
930.477	12281
930.581	12551
930.685	12391
930.79	12197
930.894	12281
930.998	12224
931.103	12372
931.207	11901
931.311	11992
931.415	11878
931.519	11653
931.623	11592
