Data from test_V78500241_1766.txt Node
Date: Fri Mar 25 15:54:02 CST 2022
User: usil
Spectrometer: V785-0024
Trigger mode: 0
Integration Time (sec): 4.000000E-1
Scans to average: 1
Nonlinearity correction enabled: false
Boxcar width: 0
Storing dark spectrum: false
XAxis mode: Wavelengths
Number of Pixels in Spectrum: 1024
>>>>>Begin Spectral Data<<<<<
801.071	28866
801.214	28820
801.356	28649
801.499	28577
801.641	28607
801.783	28573
801.926	28569
802.068	28554
802.211	28401
802.353	28470
802.496	28246
802.638	28341
802.78	28280
802.923	28185
803.065	28109
803.208	28059
803.35	28078
803.492	28314
803.635	28386
803.777	28303
803.919	28500
804.061	28748
804.204	28493
804.346	28348
804.488	28401
804.63	28538
804.773	28333
804.915	28538
805.057	28588
805.199	28489
805.341	28561
805.483	28694
805.626	28596
805.768	28497
805.91	28664
806.052	28538
806.194	28401
806.336	28839
806.478	28565
806.62	28660
806.762	28805
806.904	28999
807.046	29029
807.188	28991
807.33	29014
807.472	29220
807.614	28942
807.756	28946
807.898	28904
808.04	28873
808.182	28965
808.324	28858
808.465	28915
808.607	29212
808.749	29296
808.891	29444
809.033	29539
809.174	29102
809.316	29227
809.458	29391
809.6	29254
809.741	29372
809.883	29558
810.025	29691
810.166	29539
810.308	29649
810.45	29524
810.591	29490
810.733	29341
810.875	29265
811.016	29086
811.158	29269
811.299	29505
811.441	29440
811.582	29570
811.724	29505
811.865	29235
812.007	29292
812.148	29334
812.29	29372
812.431	29551
812.573	29824
812.714	29752
812.855	29843
812.997	29859
813.138	30133
813.279	29954
813.421	29840
813.562	29809
813.703	29497
813.845	29722
813.986	29433
814.127	29105
814.268	29170
814.41	29105
814.551	29060
814.692	29098
814.833	28934
814.974	28980
815.115	29010
815.256	28911
815.397	28972
815.539	28862
815.68	28862
815.821	28733
815.962	29044
816.103	28854
816.244	28744
816.385	28660
816.526	28504
816.666	28409
816.807	28303
816.948	28344
817.089	28413
817.23	28447
817.371	28394
817.512	28371
817.653	28333
817.793	28367
817.934	28322
818.075	28386
818.216	28360
818.356	28272
818.497	28268
818.638	28109
818.778	28078
818.919	28143
819.06	28200
819.2	28246
819.341	28322
819.481	28287
819.622	28447
819.762	28672
819.903	28645
820.043	28637
820.184	28561
820.324	28360
820.465	28485
820.605	28428
820.746	28310
820.886	28432
821.026	28394
821.167	28341
821.307	28527
821.447	28325
821.588	28398
821.728	28169
821.868	27949
822.008	27743
822.149	27850
822.289	27770
822.429	27610
822.569	27534
822.709	27564
822.849	27237
822.99	27321
823.13	27408
823.27	27173
823.41	27226
823.55	26963
823.69	27252
823.83	27096
823.97	27085
824.11	26963
824.25	26887
824.389	27039
824.529	26982
824.669	26963
824.809	27131
824.949	27039
825.089	26986
825.228	27055
825.368	26986
825.508	26887
825.648	26906
825.787	26944
825.927	26746
826.067	26933
826.206	26781
826.346	26796
826.485	26921
826.625	26887
826.765	26796
826.904	26876
827.044	26663
827.183	26545
827.323	26526
827.462	26609
827.601	26678
827.741	26689
827.88	26552
828.02	26545
828.159	26560
828.298	26659
828.437	26693
828.577	26594
828.716	26724
828.855	26450
828.994	26427
829.134	26180
829.273	26434
829.412	26142
829.551	26233
829.69	26290
829.829	26301
829.968	26263
830.107	26389
830.246	26294
830.385	26183
830.524	26138
830.663	26122
830.802	26027
830.941	25871
831.08	25951
831.219	25837
831.357	25913
831.496	26092
831.635	25875
831.774	25875
831.913	25761
832.051	25605
832.19	25666
832.329	25738
832.467	25613
832.606	25468
832.744	25556
832.883	25460
833.022	25537
833.16	25571
833.299	25521
833.437	25601
833.576	25609
833.714	25518
833.852	25571
833.991	25746
834.129	25738
834.267	25670
834.406	25628
834.544	25582
834.682	25708
834.821	25601
834.959	25761
835.097	25521
835.235	25575
835.373	25548
835.511	25693
835.65	25343
835.788	25479
835.926	25400
836.064	25331
836.202	25339
836.34	25327
836.478	25518
836.615	25407
836.753	25476
836.891	25476
837.029	25358
837.167	25312
837.305	25438
837.443	25282
837.58	25350
837.718	25240
837.856	25282
837.993	25244
838.131	25126
838.269	25126
838.406	25320
838.544	25126
838.681	24894
838.819	24989
838.956	24654
839.094	24627
839.231	24783
839.369	24913
839.506	25072
839.643	24977
839.781	24688
839.918	24650
840.055	24677
840.193	24578
840.33	24540
840.467	24578
840.604	24741
840.742	24886
840.879	24574
841.016	24467
841.153	24494
841.29	24574
841.427	24528
841.564	24486
841.701	24566
841.838	24517
841.975	24399
842.112	24380
842.249	24330
842.385	24441
842.522	24700
842.659	24467
842.796	24365
842.933	24452
843.069	24338
843.206	24285
843.343	24388
843.479	24346
843.616	24441
843.752	24152
843.889	24182
844.025	24319
844.162	24117
844.298	24110
844.435	24148
844.571	24007
844.708	24239
844.844	24361
844.98	24213
845.117	24159
845.253	24117
845.389	24007
845.525	23916
845.661	24057
845.798	23836
845.934	23996
846.07	23828
846.206	23836
846.342	24003
846.478	23775
846.614	23585
846.75	23608
846.886	23520
847.022	23627
847.158	23699
847.294	23657
847.429	23733
847.565	23604
847.701	23775
847.837	23277
847.972	23151
848.108	23501
848.244	23452
848.379	23303
848.515	23162
848.65	23200
848.786	23185
848.921	23128
849.057	23269
849.192	23356
849.328	23128
849.463	23239
849.598	23117
849.734	23185
849.869	23037
850.004	23029
850.14	22911
850.275	22908
850.41	22976
850.545	22824
850.68	22850
850.815	22911
850.95	22877
851.085	23155
851.22	23025
851.355	22991
851.49	22869
851.625	22877
851.76	22927
851.895	22965
852.03	22873
852.165	22976
852.299	22957
852.434	22953
852.569	22923
852.703	22953
852.838	22968
852.973	23170
853.107	23132
853.242	22946
853.376	22831
853.511	22622
853.645	22672
853.78	22885
853.914	22828
854.048	22668
854.183	22828
854.317	22755
854.451	22900
854.585	22816
854.72	22687
854.854	22797
854.988	22618
855.122	22812
855.256	22603
855.39	22596
855.524	22885
855.658	22797
855.792	22793
855.926	22717
856.06	22828
856.194	22771
856.327	22653
856.461	22778
856.595	22778
856.729	22664
856.862	22809
856.996	22713
857.13	22843
857.263	22831
857.397	22755
857.53	22812
857.664	22900
857.797	22790
857.931	22854
858.064	22820
858.197	22771
858.331	22675
858.464	22675
858.597	22569
858.731	22637
858.864	22618
858.997	22660
859.13	22752
859.263	22683
859.396	22717
859.529	22706
859.662	22710
859.795	22713
859.928	22778
860.061	22839
860.194	23006
860.327	22824
860.46	22736
860.592	22877
860.725	22961
860.858	22854
860.99	22748
861.123	22835
861.256	22748
861.388	22729
861.521	23463
861.653	22653
861.786	22550
861.918	22519
862.05	22649
862.183	22740
862.315	22687
862.447	22634
862.58	22656
862.712	22603
862.844	22523
862.976	22451
863.108	22569
863.24	22850
863.372	22329
863.504	22417
863.636	22447
863.768	22462
863.9	22405
864.032	22341
864.164	22375
864.296	22394
864.428	22519
864.559	22607
864.691	22573
864.823	22329
864.954	22519
865.086	22432
865.217	22295
865.349	22360
865.48	22409
865.612	22337
865.743	22550
865.875	22306
866.006	22341
866.137	22440
866.269	22295
866.4	22268
866.531	22276
866.662	22200
866.793	22413
866.924	22112
867.055	22306
867.186	22150
867.317	22215
867.448	22135
867.579	22280
867.71	22090
867.841	22257
867.972	22078
868.103	22261
868.233	22135
868.364	22181
868.495	22375
868.625	22481
868.756	22599
868.886	22363
869.017	22527
869.147	22592
869.278	22577
869.408	22470
869.539	22527
869.669	22611
869.799	22546
869.929	22554
870.06	22535
870.19	22809
870.32	22702
870.45	22911
870.58	22759
870.71	22797
870.84	22927
870.97	22786
871.1	22885
871.23	23029
871.36	23117
871.489	23041
871.619	23048
871.749	23052
871.879	23136
872.008	23147
872.138	23147
872.267	23094
872.397	23029
872.526	22984
872.656	22892
872.785	22927
872.915	23090
873.044	23181
873.173	23113
873.303	23113
873.432	23128
873.561	23113
873.69	23147
873.819	23090
873.948	23235
874.077	23022
874.206	23090
874.335	23052
874.464	23204
874.593	23212
874.722	23353
874.851	23402
874.979	23334
875.108	23349
875.237	23200
875.365	23174
875.494	23200
875.623	23349
875.751	23372
875.88	23402
876.008	23509
876.136	23535
876.265	23577
876.393	23882
876.521	23794
876.65	23741
876.778	23733
876.906	23627
877.034	23471
877.162	23733
877.29	23623
877.418	23707
877.546	23699
877.674	23642
877.802	23581
877.93	23741
878.058	23589
878.185	23554
878.313	23680
878.441	23551
878.568	23463
878.696	23520
878.824	23710
878.951	23790
879.079	23912
879.206	23756
879.333	23805
879.461	23695
879.588	23752
879.715	23824
879.842	23851
879.97	23745
880.097	23493
880.224	23452
880.351	23440
880.478	23520
880.605	23459
880.732	23417
880.859	23779
880.986	23417
881.112	23493
881.239	23299
881.366	23337
881.493	23216
881.619	22984
881.746	23014
881.872	23098
881.999	22972
882.125	22915
882.252	23147
882.378	23064
882.505	23143
882.631	22911
882.757	22706
882.883	22694
883.01	22763
883.136	22649
883.262	22508
883.388	22607
883.514	22641
883.64	22641
883.766	22660
883.892	22478
884.018	22504
884.143	22664
884.269	22649
884.395	22508
884.52	22325
884.646	22379
884.772	22303
884.897	22223
885.023	22337
885.148	22603
885.274	22413
885.399	22417
885.524	22257
885.65	22413
885.775	22386
885.9	22265
886.025	22394
886.15	22390
886.275	22382
886.4	22249
886.525	22196
886.65	22181
886.775	22265
886.9	22474
887.025	22542
887.149	22272
887.274	22124
887.399	22070
887.523	22158
887.648	22021
887.773	22101
887.897	22112
888.021	22150
888.146	22143
888.27	22109
888.395	22181
888.519	22135
888.643	22070
888.767	22120
888.891	21998
889.015	21785
889.139	21915
889.263	21838
889.387	22021
889.511	22112
889.635	21968
889.759	21869
889.883	21785
890.006	21884
890.13	21926
890.254	21838
890.377	21831
890.501	21720
890.624	21641
890.748	21679
890.871	21431
890.995	21291
891.118	21538
891.241	21393
891.364	21313
891.488	21580
891.611	21477
891.734	21397
891.857	21393
891.98	21492
892.103	21485
892.226	21462
892.349	21252
892.471	21070
892.594	21332
892.717	21329
892.839	21317
892.962	21291
893.085	21340
893.207	21207
893.33	21230
893.452	21119
893.575	21279
893.697	21268
893.819	21412
893.941	21469
894.064	21405
894.186	21226
894.308	21241
894.43	21355
894.552	21428
894.674	21268
894.796	21138
894.918	21359
895.04	21180
895.161	21344
895.283	21298
895.405	21195
895.526	21294
895.648	21291
895.769	21157
895.891	21268
896.012	21344
896.134	21317
896.255	21298
896.376	21275
896.498	21325
896.619	21351
896.74	21420
896.861	21291
896.982	21641
897.103	21675
897.224	21580
897.345	21488
897.466	21344
897.587	21485
897.708	21564
897.828	21492
897.949	21504
898.07	21298
898.19	21344
898.311	21648
898.431	21386
898.552	21549
898.672	21534
898.792	21553
898.913	21526
899.033	21378
899.153	21275
899.273	21184
899.393	21165
899.513	21157
899.633	21214
899.753	21226
899.873	21070
899.993	21287
900.113	21188
900.232	21165
900.352	21093
900.472	21043
900.591	21001
900.711	20921
900.83	20910
900.95	21017
901.069	21051
901.189	20804
901.308	20556
901.427	20492
901.546	20552
901.665	20499
901.784	20480
901.904	20389
902.023	20290
902.141	20138
902.26	20062
902.379	20161
902.498	19986
902.617	20088
902.735	20096
902.854	20031
902.973	19932
903.091	19662
903.21	19681
903.328	19696
903.446	19559
903.565	19514
903.683	19540
903.801	19445
903.919	19373
904.038	19419
904.156	19213
904.274	19411
904.392	19148
904.51	19175
904.627	19240
904.745	19304
904.863	19327
904.981	19122
905.098	18947
905.216	18928
905.334	18882
905.451	18924
905.569	18848
905.686	18882
905.803	18951
905.921	18654
906.038	18863
906.155	18738
906.272	18563
906.389	18669
906.506	18452
906.623	18532
906.74	18395
906.857	18311
906.974	18289
907.091	18380
907.208	18661
907.324	18391
907.441	18330
907.557	18186
907.674	18098
907.79	18125
907.907	18140
908.023	18273
908.139	18072
908.256	18053
908.372	17954
908.488	17920
908.604	17916
908.72	17859
908.836	17931
908.952	17771
909.068	17961
909.184	17859
909.3	17729
909.415	17893
909.531	17817
909.647	17562
909.762	17512
909.878	17478
909.993	17577
910.108	17383
910.224	17501
910.339	17459
910.454	17474
910.57	17402
910.685	17307
910.8	17566
910.915	17497
911.03	17337
911.145	17147
911.259	17102
911.374	17102
911.489	17185
911.604	17003
911.718	16839
911.833	16835
911.947	16805
912.062	16748
912.176	16801
912.291	16911
912.405	16896
912.519	17121
912.633	17094
912.748	16809
912.862	16824
912.976	16774
913.09	16641
913.204	16615
913.318	16713
913.431	16755
913.545	16713
913.659	16694
913.772	16588
913.886	16440
914	16455
914.113	16527
914.226	16470
914.34	16478
914.453	16386
914.566	16500
914.68	16204
914.793	16348
914.906	16207
915.019	16097
915.132	16040
915.245	16101
915.358	16002
915.47	16063
915.583	16059
915.696	16040
915.809	16109
915.921	16204
916.034	15949
916.146	15899
916.259	15937
916.371	16021
916.483	15998
916.595	15861
916.708	15743
916.82	15873
916.932	15743
917.044	15778
917.156	15751
917.268	15701
917.38	15606
917.491	15682
917.603	15656
917.715	15648
917.826	15755
917.938	15587
918.049	15530
918.161	15641
918.272	15694
918.384	15671
918.495	15595
918.606	15454
918.717	15420
918.828	15374
918.939	15393
919.05	15321
919.161	15241
919.272	15157
919.383	15192
919.494	15439
919.604	15473
919.715	15321
919.826	15279
919.936	15256
920.047	15336
920.157	15374
920.267	15454
920.378	15382
920.488	15279
920.598	15477
920.708	15603
920.818	15397
920.928	15523
921.038	15641
921.148	15561
921.258	15321
921.368	15256
921.477	15104
921.587	15081
921.697	14975
921.806	15032
921.916	14823
922.025	14731
922.134	14731
922.244	14693
922.353	14746
922.462	14552
922.571	14469
922.68	14366
922.789	14366
922.898	14362
923.007	14313
923.116	14381
923.224	14248
923.333	14339
923.442	14237
923.55	14130
923.659	14191
923.767	14233
923.876	14103
923.984	14134
924.092	14035
924.201	14107
924.309	14031
924.417	13986
924.525	13913
924.633	13826
924.741	14629
924.849	13788
924.956	13818
925.064	13753
925.172	13689
925.279	13719
925.387	13788
925.494	13734
925.602	13807
925.709	13700
925.816	13647
925.924	13594
926.031	13776
926.138	13616
926.245	13658
926.352	13491
926.459	13620
926.566	13708
926.673	13548
926.779	13468
926.886	13419
926.993	13293
927.099	13213
927.206	13240
927.312	13225
927.419	13251
927.525	13164
927.631	13228
927.737	13114
927.843	13129
927.95	12993
928.056	13065
928.162	12993
928.267	13175
928.373	13708
928.479	13084
928.585	12916
928.69	13004
928.796	12932
928.901	12935
929.007	12779
929.112	12916
929.218	12875
929.323	12715
929.428	12734
929.533	12787
929.638	12692
929.743	12688
929.848	12779
929.953	12730
930.058	12563
930.163	12418
930.267	12433
930.372	12566
930.477	12448
930.581	12627
930.685	12475
930.79	12209
930.894	12323
930.998	12216
931.103	12315
931.207	12091
931.311	11973
931.415	11821
931.519	11726
931.623	11619
