Data from test_V78500241_3225.txt Node
Date: Fri Mar 25 16:04:08 CST 2022
User: usil
Spectrometer: V785-0024
Trigger mode: 0
Integration Time (sec): 4.000000E-1
Scans to average: 1
Nonlinearity correction enabled: false
Boxcar width: 0
Storing dark spectrum: false
XAxis mode: Wavelengths
Number of Pixels in Spectrum: 1024
>>>>>Begin Spectral Data<<<<<
801.071	28793
801.214	28828
801.356	28531
801.499	28550
801.641	28409
801.783	28367
801.926	28371
802.068	28485
802.211	28299
802.353	28257
802.496	28139
802.638	28090
802.78	28169
802.923	27975
803.065	27892
803.208	27972
803.35	28040
803.492	28215
803.635	28246
803.777	28299
803.919	28352
804.061	28660
804.204	28341
804.346	28272
804.488	28223
804.63	28360
804.773	28261
804.915	28337
805.057	28470
805.199	28268
805.341	28314
805.483	28535
805.626	28512
805.768	28341
805.91	28512
806.052	28573
806.194	28398
806.336	28588
806.478	28401
806.62	28557
806.762	28653
806.904	28691
807.046	29079
807.188	28930
807.33	28877
807.472	29014
807.614	28885
807.756	28911
807.898	28850
808.04	28774
808.182	28660
808.324	28843
808.465	28911
808.607	29006
808.749	29254
808.891	29318
809.033	29330
809.174	29197
809.316	29178
809.458	29223
809.6	29071
809.741	29273
809.883	29231
810.025	29566
810.166	29452
810.308	29455
810.45	29379
810.591	29265
810.733	29124
810.875	29162
811.016	29121
811.158	29239
811.299	29330
811.441	29349
811.582	29337
811.724	29227
811.865	29208
812.007	29147
812.148	29178
812.29	29220
812.431	29334
812.573	29478
812.714	29638
812.855	29748
812.997	29840
813.138	30015
813.279	29897
813.421	29691
813.562	29733
813.703	29440
813.845	29410
813.986	29113
814.127	28984
814.268	28915
814.41	28972
814.551	28927
814.692	28911
814.833	28831
814.974	28767
815.115	29003
815.256	28721
815.397	28862
815.539	28649
815.68	28710
815.821	28660
815.962	28755
816.103	28694
816.244	28641
816.385	28557
816.526	28360
816.666	28215
816.807	28196
816.948	28318
817.089	28314
817.23	28188
817.371	28276
817.512	28253
817.653	28207
817.793	28226
817.934	28230
818.075	28181
818.216	28223
818.356	28147
818.497	28192
818.638	27888
818.778	27983
818.919	28070
819.06	28147
819.2	28109
819.341	28188
819.481	28128
819.622	28363
819.762	28489
819.903	28538
820.043	28440
820.184	28417
820.324	28470
820.465	28329
820.605	28451
820.746	28375
820.886	28253
821.026	28268
821.167	28318
821.307	28379
821.447	28284
821.588	28154
821.728	27945
821.868	27808
822.008	27705
822.149	27766
822.289	27663
822.429	27519
822.569	27397
822.709	27458
822.849	27207
822.99	27340
823.13	27226
823.27	27218
823.41	27237
823.55	27024
823.69	27085
823.83	27058
823.97	27051
824.11	27017
824.25	26705
824.389	26792
824.529	26872
824.669	26891
824.809	27047
824.949	26944
825.089	27009
825.228	26960
825.368	26632
825.508	26636
825.648	26697
825.787	26727
825.927	26895
826.067	26701
826.206	26735
826.346	26861
826.485	26815
826.625	26781
826.765	26861
826.904	26686
827.044	26507
827.183	26465
827.323	26385
827.462	26545
827.601	26446
827.741	26461
827.88	26564
828.02	26461
828.159	26480
828.298	26511
828.437	26507
828.577	26370
828.716	26469
828.855	26381
828.994	26130
829.134	26115
829.273	26199
829.412	26138
829.551	26130
829.69	26119
829.829	26164
829.968	26237
830.107	26377
830.246	26187
830.385	26100
830.524	26016
830.663	25879
830.802	25837
830.941	25784
831.08	25681
831.219	25890
831.357	25826
831.496	26062
831.635	25780
831.774	25624
831.913	25875
832.051	25537
832.19	25655
832.329	25624
832.467	25506
832.606	25411
832.744	25426
832.883	25343
833.022	25327
833.16	25400
833.299	25457
833.437	25430
833.576	25491
833.714	25597
833.852	25457
833.991	25643
834.129	25548
834.267	25518
834.406	25479
834.544	25594
834.682	25571
834.821	25449
834.959	25628
835.097	25472
835.235	25586
835.373	25499
835.511	25476
835.65	25422
835.788	25335
835.926	25164
836.064	25099
836.202	25209
836.34	25274
836.478	25499
836.615	25171
836.753	25365
836.891	25343
837.029	25381
837.167	25217
837.305	25171
837.443	25316
837.58	25053
837.718	25396
837.856	25164
837.993	25099
838.131	25164
838.269	25015
838.406	25175
838.544	24966
838.681	24840
838.819	24795
838.956	24589
839.094	24650
839.231	24734
839.369	24719
839.506	25019
839.643	24924
839.781	24601
839.918	24642
840.055	24559
840.193	24589
840.33	24559
840.467	24532
840.604	24578
840.742	24837
840.879	24399
841.016	24540
841.153	24407
841.29	24578
841.427	24532
841.564	24547
841.701	24525
841.838	24532
841.975	24391
842.112	24315
842.249	24281
842.385	24266
842.522	24494
842.659	24311
842.796	24273
842.933	24338
843.069	24205
843.206	24148
843.343	24376
843.479	24342
843.616	24281
843.752	24117
843.889	23984
844.025	24216
844.162	24038
844.298	24163
844.435	24064
844.571	23999
844.708	24022
844.844	24300
844.98	24133
845.117	24152
845.253	24060
845.389	23920
845.525	24034
845.661	23965
845.798	23840
845.934	23920
846.07	23794
846.206	23950
846.342	23969
846.478	23729
846.614	23558
846.75	23478
846.886	23524
847.022	23589
847.158	23562
847.294	23505
847.429	23543
847.565	23505
847.701	23760
847.837	23250
847.972	23121
848.108	23364
848.244	23303
848.379	23136
848.515	23136
848.65	23025
848.786	23105
848.921	23117
849.057	23155
849.192	23208
849.328	23174
849.463	23204
849.598	23052
849.734	22991
849.869	22904
850.004	22850
850.14	22828
850.275	22911
850.41	22771
850.545	22790
850.68	22892
850.815	22805
850.95	22786
851.085	23117
851.22	22976
851.355	22915
851.49	22900
851.625	22850
851.76	22820
851.895	22771
852.03	22790
852.165	22900
852.299	22862
852.434	22797
852.569	22771
852.703	22927
852.838	22915
852.973	22938
853.107	22995
853.242	22729
853.376	22733
853.511	22527
853.645	22519
853.78	22683
853.914	22816
854.048	22672
854.183	22687
854.317	22748
854.451	22858
854.585	22607
854.72	22626
854.854	22831
854.988	22641
855.122	22797
855.256	22580
855.39	22573
855.524	22729
855.658	22759
855.792	22740
855.926	22744
856.06	22713
856.194	22725
856.327	22645
856.461	22656
856.595	22508
856.729	22535
856.862	22755
856.996	22694
857.13	22763
857.263	22729
857.397	22786
857.53	22584
857.664	22778
857.797	22797
857.931	22748
858.064	22725
858.197	22786
858.331	22717
858.464	22668
858.597	22561
858.731	22660
858.864	22542
858.997	22748
859.13	22710
859.263	22683
859.396	22717
859.529	22557
859.662	22641
859.795	22656
859.928	22698
860.061	22843
860.194	22999
860.327	22786
860.46	22797
860.592	22713
860.725	22778
860.858	22896
860.99	22538
861.123	22694
861.256	22634
861.388	22641
861.521	23353
861.653	22542
861.786	22382
861.918	22481
862.05	22569
862.183	22577
862.315	22702
862.447	22641
862.58	22668
862.712	22348
862.844	22341
862.976	22443
863.108	22550
863.24	22767
863.372	22223
863.504	22489
863.636	22329
863.768	22367
863.9	22348
864.032	22287
864.164	22409
864.296	22428
864.428	22546
864.559	22504
864.691	22470
864.823	22478
864.954	22485
865.086	22356
865.217	22360
865.349	22150
865.48	22356
865.612	22147
865.743	22390
865.875	22360
866.006	22344
866.137	22268
866.269	22238
866.4	22211
866.531	22257
866.662	22204
866.793	22207
866.924	22234
867.055	22314
867.186	22246
867.317	22124
867.448	22059
867.579	22303
867.71	22097
867.841	22238
867.972	22280
868.103	22249
868.233	22070
868.364	22249
868.495	22173
868.625	22443
868.756	22573
868.886	22344
869.017	22455
869.147	22523
869.278	22573
869.408	22424
869.539	22382
869.669	22653
869.799	22512
869.929	22519
870.06	22470
870.19	22736
870.32	22641
870.45	22869
870.58	22812
870.71	22934
870.84	22927
870.97	22877
871.1	22885
871.23	23022
871.36	22999
871.489	22805
871.619	23003
871.749	23147
871.879	23090
872.008	23193
872.138	22961
872.267	23029
872.397	22911
872.526	22957
872.656	22968
872.785	22877
872.915	23067
873.044	23200
873.173	23090
873.303	23067
873.432	23105
873.561	23246
873.69	23056
873.819	23010
873.948	23105
874.077	23166
874.206	23113
874.335	23041
874.464	23143
874.593	23307
874.722	23269
874.851	23269
874.979	23307
875.108	23299
875.237	23250
875.365	23193
875.494	23174
875.623	23254
875.751	23185
875.88	23254
876.008	23341
876.136	23505
876.265	23638
876.393	23802
876.521	23752
876.65	23832
876.778	23668
876.906	23630
877.034	23627
877.162	23611
877.29	23687
877.418	23509
877.546	23718
877.674	23630
877.802	23467
877.93	23528
878.058	23528
878.185	23524
878.313	23478
878.441	23505
878.568	23467
878.696	23642
878.824	23604
878.951	23627
879.079	23809
879.206	23973
879.333	23783
879.461	23505
879.588	23699
879.715	23821
879.842	23954
879.97	23752
880.097	23570
880.224	23391
880.351	23520
880.478	23463
880.605	23307
880.732	23372
880.859	23638
880.986	23376
881.112	23452
881.239	23216
881.366	23105
881.493	22987
881.619	23018
881.746	23010
881.872	22999
881.999	22892
882.125	22816
882.252	23162
882.378	23071
882.505	23003
882.631	22805
882.757	22694
882.883	22786
883.01	22721
883.136	22523
883.262	22531
883.388	22584
883.514	22637
883.64	22653
883.766	22519
883.892	22367
884.018	22462
884.143	22538
884.269	22683
884.395	22409
884.52	22322
884.646	22261
884.772	22223
884.897	22196
885.023	22265
885.148	22379
885.274	22428
885.399	22360
885.524	22181
885.65	22177
885.775	22310
885.9	22147
886.025	22291
886.15	22344
886.275	22207
886.4	22306
886.525	22169
886.65	22173
886.775	22207
886.9	22325
887.025	22436
887.149	22169
887.274	22044
887.399	21987
887.523	22044
887.648	21960
887.773	21918
887.897	22070
888.021	22131
888.146	21907
888.27	22173
888.395	22147
888.519	22044
888.643	22036
888.767	21994
888.891	21922
889.015	21846
889.139	21956
889.263	21930
889.387	21934
889.511	22059
889.635	21960
889.759	21835
889.883	21835
890.006	21888
890.13	21994
890.254	21774
890.377	21778
890.501	21583
890.624	21526
890.748	21580
890.871	21530
890.995	21428
891.118	21355
891.241	21355
891.364	21420
891.488	21351
891.611	21405
891.734	21374
891.857	21428
891.98	21317
892.103	21462
892.226	21336
892.349	21374
892.471	21165
892.594	21306
892.717	21264
892.839	21260
892.962	21485
893.085	21302
893.207	21355
893.33	21264
893.452	21252
893.575	21351
893.697	21310
893.819	21393
893.941	21447
894.064	21473
894.186	21188
894.308	21157
894.43	21367
894.552	21321
894.674	21488
894.796	21272
894.918	21100
895.04	21287
895.161	21241
895.283	21245
895.405	21176
895.526	21275
895.648	21272
895.769	21272
895.891	21195
896.012	21157
896.134	21317
896.255	21291
896.376	21241
896.498	21199
896.619	21256
896.74	21272
896.861	21279
896.982	21599
897.103	21709
897.224	21416
897.345	21355
897.466	21325
897.587	21458
897.708	21428
897.828	21530
897.949	21351
898.07	21176
898.19	21431
898.311	21405
898.431	21336
898.552	21355
898.672	21462
898.792	21485
898.913	21431
899.033	21340
899.153	21348
899.273	21039
899.393	21241
899.513	21188
899.633	21211
899.753	21287
899.873	21032
899.993	21112
900.113	21142
900.232	21268
900.352	21077
900.472	20963
900.591	20963
900.711	20868
900.83	20887
900.95	21024
901.069	20975
901.189	20876
901.308	20667
901.427	20442
901.546	20541
901.665	20648
901.784	20431
901.904	20404
902.023	20313
902.141	20058
902.26	20001
902.379	20096
902.498	19967
902.617	19883
902.735	20069
902.854	20103
902.973	19936
903.091	19670
903.21	19578
903.328	19632
903.446	19597
903.565	19575
903.683	19518
903.801	19426
903.919	19495
904.038	19373
904.156	19244
904.274	19266
904.392	19232
904.51	19160
904.627	19179
904.745	19190
904.863	19308
904.981	19031
905.098	18901
905.216	18939
905.334	18924
905.451	18966
905.569	18859
905.686	18776
905.803	18837
905.921	18711
906.038	18749
906.155	18658
906.272	18593
906.389	18547
906.506	18429
906.623	18498
906.74	18273
906.857	18277
906.974	18296
907.091	18395
907.208	18448
907.324	18369
907.441	18270
907.557	18083
907.674	18076
907.79	18121
907.907	18011
908.023	18091
908.139	18220
908.256	17961
908.372	17946
908.488	17931
908.604	17859
908.72	17847
908.836	17893
908.952	17805
909.068	17779
909.184	17927
909.3	17748
909.415	17855
909.531	17745
909.647	17501
909.762	17547
909.878	17524
909.993	17581
910.108	17467
910.224	17429
910.339	17433
910.454	17376
910.57	17296
910.685	17162
910.8	17512
910.915	17455
911.03	17326
911.145	17204
911.259	17105
911.374	17105
911.489	17010
911.604	16984
911.718	16904
911.833	16850
911.947	16710
912.062	16664
912.176	16748
912.291	16786
912.405	16862
912.519	17045
912.633	16995
912.748	16984
912.862	16759
912.976	16577
913.09	16588
913.204	16618
913.318	16615
913.431	16786
913.545	16736
913.659	16809
913.772	16603
913.886	16455
914	16459
914.113	16508
914.226	16538
914.34	16493
914.453	16409
914.566	16489
914.68	16314
914.793	16306
914.906	16116
915.019	15945
915.132	15987
915.245	15911
915.358	16074
915.47	16021
915.583	15994
915.696	16036
915.809	16124
915.921	16116
916.034	15937
916.146	15835
916.259	15903
916.371	15998
916.483	15835
916.595	15819
916.708	15816
916.82	15838
916.932	15831
917.044	15717
917.156	15686
917.268	15641
917.38	15637
917.491	15561
917.603	15667
917.715	15701
917.826	15705
917.938	15587
918.049	15363
918.161	15576
918.272	15762
918.384	15663
918.495	15469
918.606	15412
918.717	15306
918.828	15405
918.939	15405
919.05	15298
919.161	15382
919.272	15116
919.383	15226
919.494	15420
919.604	15618
919.715	15359
919.826	15173
919.936	15226
920.047	15504
920.157	15317
920.267	15462
920.378	15294
920.488	15214
920.598	15485
920.708	15580
920.818	15545
920.928	15408
921.038	15557
921.148	15553
921.258	15279
921.368	15230
921.477	15028
921.587	15062
921.697	14792
921.806	14994
921.916	14815
922.025	14731
922.134	14670
922.244	14682
922.353	14545
922.462	14575
922.571	14564
922.68	14389
922.789	14408
922.898	14339
923.007	14248
923.116	14282
923.224	14210
923.333	14256
923.442	14107
923.55	14039
923.659	14058
923.767	14172
923.876	14134
923.984	14187
924.092	14084
924.201	14012
924.309	13986
924.417	14046
924.525	13997
924.633	13906
924.741	14758
924.849	13624
924.956	13887
925.064	13700
925.172	13636
925.279	13670
925.387	13708
925.494	13616
925.602	13852
925.709	13712
925.816	13578
925.924	13559
926.031	13700
926.138	13651
926.245	13639
926.352	13636
926.459	13571
926.566	13727
926.673	13483
926.779	13392
926.886	13377
926.993	13187
927.099	13244
927.206	13179
927.312	13183
927.419	13209
927.525	13221
927.631	13149
927.737	13076
927.843	13118
927.95	12947
928.056	12958
928.162	13103
928.267	13046
928.373	13563
928.479	13069
928.585	12856
928.69	13076
928.796	13053
928.901	12882
929.007	12730
929.112	12932
929.218	12783
929.323	12817
929.428	12745
929.533	12829
929.638	12620
929.743	12650
929.848	12703
929.953	12601
930.058	12574
930.163	12414
930.267	12410
930.372	12532
930.477	12414
930.581	12601
930.685	12483
930.79	12281
930.894	12273
930.998	12254
931.103	12304
931.207	11958
931.311	11965
931.415	11851
931.519	11676
931.623	11619
