Data from test_V78500241_2556.txt Node
Date: Fri Mar 25 15:59:30 CST 2022
User: usil
Spectrometer: V785-0024
Trigger mode: 0
Integration Time (sec): 4.000000E-1
Scans to average: 1
Nonlinearity correction enabled: false
Boxcar width: 0
Storing dark spectrum: false
XAxis mode: Wavelengths
Number of Pixels in Spectrum: 1024
>>>>>Begin Spectral Data<<<<<
801.071	28691
801.214	28748
801.356	28504
801.499	28481
801.641	28318
801.783	28265
801.926	28363
802.068	28310
802.211	28253
802.353	28261
802.496	28040
802.638	28002
802.78	28032
802.923	27960
803.065	27835
803.208	28040
803.35	28067
803.492	28025
803.635	28344
803.777	28166
803.919	28280
804.061	28565
804.204	28409
804.346	28284
804.488	28257
804.63	28291
804.773	28310
804.915	28314
805.057	28432
805.199	28299
805.341	28325
805.483	28519
805.626	28466
805.768	28306
805.91	28409
806.052	28546
806.194	28478
806.336	28588
806.478	28481
806.62	28531
806.762	28702
806.904	28767
807.046	28854
807.188	28896
807.33	28961
807.472	29003
807.614	28786
807.756	28828
807.898	28694
808.04	28618
808.182	28698
808.324	28820
808.465	28915
808.607	28927
808.749	29044
808.891	29216
809.033	29322
809.174	29337
809.316	29239
809.458	29189
809.6	28961
809.741	29193
809.883	29185
810.025	29288
810.166	29463
810.308	29493
810.45	29330
810.591	29436
810.733	29193
810.875	29170
811.016	28953
811.158	28919
811.299	29254
811.441	29197
811.582	29322
811.724	29193
811.865	29083
812.007	29189
812.148	29105
812.29	29189
812.431	29330
812.573	29547
812.714	29604
812.855	29558
812.997	29676
813.138	29916
813.279	29904
813.421	29699
813.562	29600
813.703	29436
813.845	29254
813.986	29227
814.127	28927
814.268	28927
814.41	28957
814.551	28767
814.692	28930
814.833	28782
814.974	28828
815.115	28934
815.256	28698
815.397	28797
815.539	28733
815.68	28542
815.821	28653
815.962	28573
816.103	28653
816.244	28554
816.385	28424
816.526	28432
816.666	28215
816.807	28185
816.948	28310
817.089	28215
817.23	28268
817.371	28154
817.512	28154
817.653	28074
817.793	28078
817.934	28207
818.075	28158
818.216	28196
818.356	28257
818.497	27998
818.638	27968
818.778	28006
818.919	27983
819.06	27914
819.2	27975
819.341	28128
819.481	28196
819.622	28371
819.762	28462
819.903	28443
820.043	28341
820.184	28272
820.324	28299
820.465	28341
820.605	28204
820.746	28375
820.886	28192
821.026	28440
821.167	28223
821.307	28341
821.447	28109
821.588	28078
821.728	28128
821.868	27873
822.008	27720
822.149	27743
822.289	27614
822.429	27317
822.569	27317
822.709	27416
822.849	27150
822.99	27104
823.13	27154
823.27	27081
823.41	27043
823.55	26929
823.69	27043
823.83	26914
823.97	26952
824.11	26815
824.25	26636
824.389	26838
824.529	26872
824.669	26781
824.809	27001
824.949	26796
825.089	26998
825.228	26876
825.368	26689
825.508	26556
825.648	26682
825.787	26712
825.927	26697
826.067	26530
826.206	26777
826.346	26701
826.485	26804
826.625	26636
826.765	26819
826.904	26750
827.044	26552
827.183	26609
827.323	26313
827.462	26522
827.601	26549
827.741	26511
827.88	26339
828.02	26138
828.159	26339
828.298	26320
828.437	26431
828.577	26320
828.716	26488
828.855	26347
828.994	26111
829.134	26244
829.273	26233
829.412	26214
829.551	26069
829.69	26016
829.829	26115
829.968	26115
830.107	26115
830.246	26180
830.385	26122
830.524	25986
830.663	25925
830.802	25772
830.941	25655
831.08	25647
831.219	25811
831.357	25727
831.496	26005
831.635	25693
831.774	25639
831.913	25662
832.051	25403
832.19	25521
832.329	25521
832.467	25358
832.606	25419
832.744	25228
832.883	25263
833.022	25289
833.16	25407
833.299	25434
833.437	25479
833.576	25476
833.714	25396
833.852	25540
833.991	25457
834.129	25556
834.267	25460
834.406	25339
834.544	25540
834.682	25274
834.821	25411
834.959	25540
835.097	25369
835.235	25407
835.373	25339
835.511	25392
835.65	25289
835.788	25270
835.926	24992
836.064	25034
836.202	25168
836.34	25164
836.478	25339
836.615	25278
836.753	25244
836.891	25293
837.029	25266
837.167	25206
837.305	25270
837.443	25160
837.58	25034
837.718	25225
837.856	25156
837.993	25114
838.131	24958
838.269	24947
838.406	24973
838.544	24875
838.681	24787
838.819	24848
838.956	24517
839.094	24528
839.231	24677
839.369	24749
839.506	24871
839.643	24814
839.781	24593
839.918	24464
840.055	24429
840.193	24532
840.33	24559
840.467	24498
840.604	24441
840.742	24658
840.879	24380
841.016	24270
841.153	24289
841.29	24498
841.427	24376
841.564	24426
841.701	24391
841.838	24388
841.975	24361
842.112	24338
842.249	24330
842.385	24384
842.522	24460
842.659	24277
842.796	24232
842.933	24232
843.069	24144
843.206	24190
843.343	24213
843.479	24235
843.616	24144
843.752	23992
843.889	24034
844.025	24053
844.162	23973
844.298	23969
844.435	23977
844.571	23874
844.708	23965
844.844	24201
844.98	24114
845.117	24018
845.253	23885
845.389	23783
845.525	23855
845.661	23965
845.798	23764
845.934	23798
846.07	23649
846.206	23718
846.342	23737
846.478	23729
846.614	23356
846.75	23478
846.886	23414
847.022	23474
847.158	23406
847.294	23444
847.429	23547
847.565	23440
847.701	23722
847.837	23140
847.972	23147
848.108	23128
848.244	23162
848.379	23003
848.515	22995
848.65	23067
848.786	23056
848.921	23109
849.057	23200
849.192	23086
849.328	23113
849.463	23003
849.598	22957
849.734	23022
849.869	22957
850.004	22733
850.14	22805
850.275	22778
850.41	22755
850.545	22744
850.68	22850
850.815	22759
850.95	22694
851.085	22949
851.22	22881
851.355	22691
851.49	22778
851.625	22702
851.76	22793
851.895	22679
852.03	22668
852.165	22793
852.299	22854
852.434	22873
852.569	22854
852.703	22790
852.838	22809
852.973	22854
853.107	23018
853.242	22774
853.376	22565
853.511	22512
853.645	22584
853.78	22672
853.914	22599
854.048	22634
854.183	22584
854.317	22733
854.451	22782
854.585	22561
854.72	22481
854.854	22698
854.988	22584
855.122	22653
855.256	22398
855.39	22466
855.524	22634
855.658	22660
855.792	22577
855.926	22664
856.06	22554
856.194	22653
856.327	22462
856.461	22504
856.595	22519
856.729	22519
856.862	22713
856.996	22675
857.13	22675
857.263	22607
857.397	22748
857.53	22653
857.664	22679
857.797	22713
857.931	22679
858.064	22641
858.197	22790
858.331	22584
858.464	22584
858.597	22367
858.731	22474
858.864	22493
858.997	22565
859.13	22569
859.263	22691
859.396	22596
859.529	22462
859.662	22466
859.795	22573
859.928	22645
860.061	22828
860.194	22763
860.327	22569
860.46	22725
860.592	22656
860.725	22675
860.858	22698
860.99	22599
861.123	22653
861.256	22645
861.388	22546
861.521	23159
861.653	22443
861.786	22337
861.918	22428
862.05	22542
862.183	22557
862.315	22615
862.447	22611
862.58	22489
862.712	22322
862.844	22318
862.976	22462
863.108	22508
863.24	22771
863.372	22185
863.504	22375
863.636	22379
863.768	22234
863.9	22325
864.032	22253
864.164	22322
864.296	22417
864.428	22318
864.559	22478
864.691	22348
864.823	22398
864.954	22162
865.086	22215
865.217	22185
865.349	22109
865.48	22204
865.612	22226
865.743	22382
865.875	22101
866.006	22223
866.137	22086
866.269	22200
866.4	22173
866.531	22135
866.662	21979
866.793	22090
866.924	22101
867.055	22078
867.186	22135
867.317	22097
867.448	22002
867.579	22048
867.71	21941
867.841	21956
867.972	22204
868.103	21994
868.233	22105
868.364	22093
868.495	22143
868.625	22348
868.756	22516
868.886	22314
869.017	22276
869.147	22516
869.278	22466
869.408	22436
869.539	22352
869.669	22398
869.799	22363
869.929	22394
870.06	22497
870.19	22622
870.32	22493
870.45	22634
870.58	22805
870.71	22778
870.84	22835
870.97	22828
871.1	22797
871.23	22904
871.36	22915
871.489	22828
871.619	22900
871.749	22965
871.879	22961
872.008	23003
872.138	22900
872.267	23044
872.397	22774
872.526	22790
872.656	22801
872.785	22752
872.915	22965
873.044	23159
873.173	22965
873.303	23029
873.432	23018
873.561	23022
873.69	23025
873.819	23048
873.948	23067
874.077	22961
874.206	22892
874.335	22908
874.464	23064
874.593	23155
874.722	23181
874.851	23269
874.979	23174
875.108	23330
875.237	23178
875.365	23124
875.494	23132
875.623	23250
875.751	23208
875.88	23220
876.008	23307
876.136	23410
876.265	23535
876.393	23737
876.521	23638
876.65	23539
876.778	23512
876.906	23539
877.034	23478
877.162	23395
877.29	23516
877.418	23570
877.546	23524
877.674	23558
877.802	23551
877.93	23478
878.058	23490
878.185	23512
878.313	23444
878.441	23562
878.568	23417
878.696	23520
878.824	23531
878.951	23687
879.079	23554
879.206	23847
879.333	23581
879.461	23642
879.588	23562
879.715	23562
879.842	23767
879.97	23585
880.097	23387
880.224	23322
880.351	23273
880.478	23326
880.605	23292
880.732	23341
880.859	23611
880.986	23444
881.112	23337
881.239	23223
881.366	22980
881.493	23037
881.619	22923
881.746	22828
881.872	22828
881.999	22919
882.125	22930
882.252	22862
882.378	22831
882.505	23048
882.631	22679
882.757	22740
882.883	22538
883.01	22523
883.136	22607
883.262	22409
883.388	22371
883.514	22622
883.64	22523
883.766	22493
883.892	22386
884.018	22459
884.143	22303
884.269	22584
884.395	22200
884.52	22139
884.646	22226
884.772	22139
884.897	22090
885.023	22219
885.148	22261
885.274	22382
885.399	22284
885.524	22207
885.65	22162
885.775	22181
885.9	22318
886.025	22299
886.15	22230
886.275	22310
886.4	22048
886.525	22059
886.65	22032
886.775	22097
886.9	22280
887.025	22348
887.149	22090
887.274	21987
887.399	22029
887.523	21903
887.648	21899
887.773	21865
887.897	21884
888.021	22025
888.146	21850
888.27	22112
888.395	21975
888.519	22013
888.643	22002
888.767	21975
888.891	21876
889.015	21717
889.139	21857
889.263	21568
889.387	21884
889.511	22093
889.635	21892
889.759	21823
889.883	21660
890.006	21637
890.13	21789
890.254	21698
890.377	21622
890.501	21469
890.624	21485
890.748	21583
890.871	21393
890.995	21279
891.118	21268
891.241	21378
891.364	21264
891.488	21469
891.611	21374
891.734	21340
891.857	21218
891.98	21211
892.103	21291
892.226	21207
892.349	21218
892.471	21150
892.594	21169
892.717	21275
892.839	21218
892.962	21249
893.085	21279
893.207	21260
893.33	21165
893.452	21104
893.575	21260
893.697	21260
893.819	21348
893.941	21336
894.064	21245
894.186	21039
894.308	21074
894.43	21214
894.552	21492
894.674	21218
894.796	21119
894.918	21165
895.04	21131
895.161	21180
895.283	21180
895.405	21142
895.526	21325
895.648	21249
895.769	21233
895.891	21161
896.012	21378
896.134	21093
896.255	21214
896.376	21112
896.498	21192
896.619	21233
896.74	21138
896.861	21283
896.982	21477
897.103	21492
897.224	21408
897.345	21401
897.466	21325
897.587	21359
897.708	21542
897.828	21367
897.949	21340
898.07	21241
898.19	21294
898.311	21450
898.431	21287
898.552	21443
898.672	21272
898.792	21310
898.913	21439
899.033	21321
899.153	21169
899.273	21096
899.393	21070
899.513	21108
899.633	21043
899.753	21138
899.873	21047
899.993	21119
900.113	21001
900.232	20925
900.352	20937
900.472	20937
900.591	20762
900.711	20864
900.83	20864
900.95	20967
901.069	20842
901.189	20796
901.308	20488
901.427	20427
901.546	20427
901.665	20476
901.784	20434
901.904	20252
902.023	20210
902.141	19925
902.26	20058
902.379	19944
902.498	20039
902.617	19906
902.735	19871
902.854	19925
902.973	19814
903.091	19620
903.21	19571
903.328	19628
903.446	19354
903.565	19476
903.683	19369
903.801	19278
903.919	19331
904.038	19289
904.156	19228
904.274	19175
904.392	19023
904.51	19065
904.627	19133
904.745	19225
904.863	19221
904.981	18951
905.098	18806
905.216	18779
905.334	18833
905.451	18848
905.569	18688
905.686	18810
905.803	18700
905.921	18623
906.038	18726
906.155	18700
906.272	18464
906.389	18525
906.506	18376
906.623	18376
906.74	18262
906.857	18277
906.974	18247
907.091	18304
907.208	18460
907.324	18445
907.441	18209
907.557	18030
907.674	17988
907.79	17965
907.907	17958
908.023	18171
908.139	17999
908.256	18087
908.372	17874
908.488	17992
908.604	17843
908.72	17707
908.836	17722
908.952	17699
909.068	17741
909.184	17866
909.3	17836
909.415	17729
909.531	17718
909.647	17436
909.762	17516
909.878	17429
909.993	17360
910.108	17429
910.224	17459
910.339	17345
910.454	17360
910.57	17208
910.685	17193
910.8	17558
910.915	17414
911.03	17124
911.145	17071
911.259	17048
911.374	17025
911.489	17010
911.604	16869
911.718	16786
911.833	16877
911.947	16653
912.062	16626
912.176	16752
912.291	16816
912.405	16816
912.519	16987
912.633	16957
912.748	16816
912.862	16759
912.976	16618
913.09	16474
913.204	16512
913.318	16653
913.431	16592
913.545	16653
913.659	16626
913.772	16470
913.886	16367
914	16272
914.113	16558
914.226	16485
914.34	16386
914.453	16257
914.566	16447
914.68	16188
914.793	16204
914.906	15960
915.019	16006
915.132	15994
915.245	15884
915.358	15953
915.47	15895
915.583	15991
915.696	15975
915.809	16048
915.921	16021
916.034	15918
916.146	15861
916.259	15793
916.371	15899
916.483	15888
916.595	15667
916.708	15797
916.82	15819
916.932	15724
917.044	15732
917.156	15679
917.268	15587
917.38	15614
917.491	15591
917.603	15553
917.715	15701
917.826	15542
917.938	15500
918.049	15329
918.161	15568
918.272	15648
918.384	15606
918.495	15492
918.606	15340
918.717	15279
918.828	15291
918.939	15325
919.05	15279
919.161	15272
919.272	15104
919.383	15184
919.494	15218
919.604	15462
919.715	15222
919.826	15245
919.936	15283
920.047	15363
920.157	15298
920.267	15401
920.378	15329
920.488	15203
920.598	15370
920.708	15545
920.818	15370
920.928	15450
921.038	15504
921.148	15458
921.258	15211
921.368	15157
921.477	15028
921.587	14994
921.697	14842
921.806	14941
921.916	14800
922.025	14636
922.134	14629
922.244	14454
922.353	14678
922.462	14476
922.571	14434
922.68	14275
922.789	14294
922.898	14259
923.007	14248
923.116	14240
923.224	14263
923.333	14153
923.442	14103
923.55	14073
923.659	14130
923.767	14153
923.876	14035
923.984	14027
924.092	13932
924.201	14046
924.309	13913
924.417	13921
924.525	13826
924.633	13917
924.741	14861
924.849	13742
924.956	13833
925.064	13590
925.172	13556
925.279	13636
925.387	13662
925.494	13556
925.602	13723
925.709	13689
925.816	13533
925.924	13537
926.031	13624
926.138	13552
926.245	13575
926.352	13419
926.459	13582
926.566	13476
926.673	13426
926.779	13327
926.886	13373
926.993	13202
927.099	13152
927.206	13095
927.312	13050
927.419	13213
927.525	13118
927.631	13194
927.737	13034
927.843	13034
927.95	12821
928.056	13046
928.162	13042
928.267	12985
928.373	13552
928.479	13034
928.585	12802
928.69	13015
928.796	12977
928.901	12856
929.007	12677
929.112	12677
929.218	12707
929.323	12658
929.428	12654
929.533	12806
929.638	12677
929.743	12597
929.848	12738
929.953	12559
930.058	12479
930.163	12292
930.267	12346
930.372	12429
930.477	12243
930.581	12517
930.685	12372
930.79	12262
930.894	12216
930.998	12247
931.103	12391
931.207	12011
931.311	11870
931.415	11836
931.519	11634
931.623	11528
