Data from test_V78500241_3341.txt Node
Date: Fri Mar 25 16:04:56 CST 2022
User: usil
Spectrometer: V785-0024
Trigger mode: 0
Integration Time (sec): 4.000000E-1
Scans to average: 1
Nonlinearity correction enabled: false
Boxcar width: 0
Storing dark spectrum: false
XAxis mode: Wavelengths
Number of Pixels in Spectrum: 1024
>>>>>Begin Spectral Data<<<<<
801.071	28961
801.214	28927
801.356	28679
801.499	28573
801.641	28318
801.783	28531
801.926	28542
802.068	28474
802.211	28485
802.353	28424
802.496	28242
802.638	28097
802.78	28181
802.923	28166
803.065	28029
803.208	28067
803.35	28093
803.492	28329
803.635	28401
803.777	28303
803.919	28478
804.061	28790
804.204	28580
804.346	28466
804.488	28341
804.63	28424
804.773	28318
804.915	28538
805.057	28542
805.199	28382
805.341	28436
805.483	28687
805.626	28736
805.768	28440
805.91	28596
806.052	28516
806.194	28398
806.336	28809
806.478	28755
806.62	28588
806.762	28771
806.904	29006
807.046	29330
807.188	29022
807.33	29033
807.472	29102
807.614	29075
807.756	29010
807.898	28885
808.04	28881
808.182	28904
808.324	28991
808.465	29090
808.607	29185
808.749	29269
808.891	29402
809.033	29421
809.174	29406
809.316	29223
809.458	29216
809.6	29311
809.741	29459
809.883	29448
810.025	29535
810.166	29824
810.308	29638
810.45	29535
810.591	29535
810.733	29436
810.875	29395
811.016	29159
811.158	29060
811.299	29299
811.441	29455
811.582	29387
811.724	29303
811.865	29235
812.007	29398
812.148	29474
812.29	29303
812.431	29611
812.573	29585
812.714	29661
812.855	29813
812.997	29904
813.138	29980
813.279	30034
813.421	29794
813.562	29862
813.703	29657
813.845	29627
813.986	29307
814.127	29239
814.268	28957
814.41	29071
814.551	29006
814.692	29189
814.833	28934
814.974	28999
815.115	29117
815.256	28968
815.397	28862
815.539	28854
815.68	28892
815.821	28900
815.962	28923
816.103	28786
816.244	28668
816.385	28645
816.526	28668
816.666	28497
816.807	28181
816.948	28398
817.089	28474
817.23	28325
817.371	28363
817.512	28356
817.653	28249
817.793	28280
817.934	28291
818.075	28379
818.216	28440
818.356	28352
818.497	28215
818.638	28044
818.778	28135
818.919	28253
819.06	28105
819.2	28325
819.341	28333
819.481	28455
819.622	28523
819.762	28820
819.903	28611
820.043	28675
820.184	28554
820.324	28607
820.465	28645
820.605	28519
820.746	28577
820.886	28341
821.026	28341
821.167	28538
821.307	28500
821.447	28268
821.588	28242
821.728	28276
821.868	28112
822.008	27827
822.149	28010
822.289	27842
822.429	27618
822.569	27698
822.709	27538
822.849	27397
822.99	27325
823.13	27412
823.27	27233
823.41	27192
823.55	27058
823.69	27241
823.83	27214
823.97	27066
824.11	27039
824.25	26944
824.389	27096
824.529	27062
824.669	27017
824.809	27150
824.949	26963
825.089	27009
825.228	26979
825.368	26864
825.508	26982
825.648	26975
825.787	26746
825.927	26891
826.067	26823
826.206	26891
826.346	26921
826.485	27013
826.625	26880
826.765	27047
826.904	26967
827.044	26678
827.183	26727
827.323	26705
827.462	26678
827.601	26724
827.741	26537
827.88	26686
828.02	26621
828.159	26735
828.298	26731
828.437	26731
828.577	26583
828.716	26785
828.855	26526
828.994	26332
829.134	26351
829.273	26412
829.412	26210
829.551	26218
829.69	26480
829.829	26431
829.968	26267
830.107	26453
830.246	26343
830.385	26355
830.524	26206
830.663	26187
830.802	26016
830.941	25947
831.08	25959
831.219	26069
831.357	25966
831.496	26149
831.635	25906
831.774	25871
831.913	25742
832.051	25761
832.19	25734
832.329	25719
832.467	25609
832.606	25548
832.744	25552
832.883	25613
833.022	25449
833.16	25708
833.299	25594
833.437	25681
833.576	25628
833.714	25696
833.852	25685
833.991	25719
834.129	25788
834.267	25693
834.406	25689
834.544	25784
834.682	25837
834.821	25616
834.959	25807
835.097	25620
835.235	25788
835.373	25563
835.511	25620
835.65	25548
835.788	25479
835.926	25377
836.064	25346
836.202	25491
836.34	25438
836.478	25502
836.615	25441
836.753	25468
836.891	25392
837.029	25506
837.167	25312
837.305	25388
837.443	25324
837.58	25263
837.718	25354
837.856	25468
837.993	25198
838.131	25381
838.269	25168
838.406	25209
838.544	25088
838.681	24932
838.819	25023
838.956	24738
839.094	24806
839.231	24875
839.369	24837
839.506	25198
839.643	25095
839.781	24844
839.918	24707
840.055	24810
840.193	24787
840.33	24631
840.467	24722
840.604	24741
840.742	24901
840.879	24509
841.016	24540
841.153	24661
841.29	24623
841.427	24601
841.564	24730
841.701	24555
841.838	24658
841.975	24650
842.112	24585
842.249	24608
842.385	24330
842.522	24601
842.659	24532
842.796	24388
842.933	24441
843.069	24365
843.206	24407
843.343	24555
843.479	24448
843.616	24536
843.752	24201
843.889	24243
844.025	24464
844.162	24239
844.298	24369
844.435	24121
844.571	24201
844.708	24251
844.844	24289
844.98	24266
845.117	24338
845.253	24205
845.389	24041
845.525	24041
845.661	24117
845.798	23866
845.934	23973
846.07	23824
846.206	23973
846.342	24049
846.478	24030
846.614	23824
846.75	23600
846.886	23630
847.022	23703
847.158	23668
847.294	23786
847.429	23691
847.565	23596
847.701	23893
847.837	23322
847.972	23383
848.108	23585
848.244	23516
848.379	23395
848.515	23079
848.65	23242
848.786	23387
848.921	23322
849.057	23372
849.192	23391
849.328	23261
849.463	23372
849.598	23132
849.734	23140
849.869	23033
850.004	22995
850.14	23041
850.275	22999
850.41	23010
850.545	22923
850.68	22957
850.815	23003
850.95	23052
851.085	23075
851.22	23121
851.355	22980
851.49	23025
851.625	23022
851.76	23067
851.895	22980
852.03	22938
852.165	23014
852.299	23124
852.434	23113
852.569	23010
852.703	22919
852.838	23067
852.973	23181
853.107	23162
853.242	22961
853.376	22957
853.511	22649
853.645	22805
853.78	22889
853.914	22904
854.048	22774
854.183	22797
854.317	22900
854.451	23060
854.585	22889
854.72	22824
854.854	22934
854.988	22793
855.122	22740
855.256	22755
855.39	22752
855.524	22927
855.658	22862
855.792	22744
855.926	22847
856.06	22774
856.194	22946
856.327	22694
856.461	22790
856.595	22740
856.729	22850
856.862	22812
856.996	22835
857.13	22934
857.263	22862
857.397	22995
857.53	22763
857.664	22812
857.797	22927
857.931	22942
858.064	22786
858.197	22850
858.331	22938
858.464	22752
858.597	22683
858.731	22809
858.864	22729
858.997	22725
859.13	22805
859.263	22889
859.396	22999
859.529	22744
859.662	22736
859.795	22748
859.928	22748
860.061	22900
860.194	22999
860.327	23003
860.46	22930
860.592	22949
860.725	22961
860.858	22847
860.99	22843
861.123	22831
861.256	22694
861.388	22820
861.521	23600
861.653	22660
861.786	22573
861.918	22717
862.05	22736
862.183	22679
862.315	22812
862.447	22805
862.58	22702
862.712	22538
862.844	22516
862.976	22557
863.108	22634
863.24	23105
863.372	22474
863.504	22649
863.636	22668
863.768	22603
863.9	22516
864.032	22436
864.164	22519
864.296	22508
864.428	22694
864.559	22584
864.691	22512
864.823	22573
864.954	22497
865.086	22417
865.217	22531
865.349	22470
865.48	22474
865.612	22371
865.743	22478
865.875	22409
866.006	22295
866.137	22367
866.269	22367
866.4	22295
866.531	22322
866.662	22249
866.793	22325
866.924	22436
867.055	22280
867.186	22360
867.317	22356
867.448	22204
867.579	22284
867.71	22303
867.841	22207
867.972	22356
868.103	22303
868.233	22398
868.364	22356
868.495	22375
868.625	22561
868.756	22752
868.886	22462
869.017	22523
869.147	22649
869.278	22679
869.408	22706
869.539	22443
869.669	22664
869.799	22649
869.929	22816
870.06	22687
870.19	22854
870.32	22744
870.45	22930
870.58	22904
870.71	23083
870.84	23006
870.97	22984
871.1	22938
871.23	23143
871.36	23269
871.489	22987
871.619	23200
871.749	23181
871.879	23227
872.008	23280
872.138	23231
872.267	23117
872.397	23079
872.526	22965
872.656	22968
872.785	22953
872.915	23143
873.044	23269
873.173	23162
873.303	23250
873.432	23124
873.561	23284
873.69	23208
873.819	23102
873.948	23258
874.077	23151
874.206	23060
874.335	23174
874.464	23242
874.593	23474
874.722	23467
874.851	23455
874.979	23410
875.108	23353
875.237	23334
875.365	23410
875.494	23379
875.623	23463
875.751	23395
875.88	23528
876.008	23718
876.136	23520
876.265	23939
876.393	23863
876.521	23866
876.65	23920
876.778	23817
876.906	23611
877.034	23699
877.162	23802
877.29	23813
877.418	23733
877.546	23760
877.674	23680
877.802	23672
877.93	23634
878.058	23714
878.185	23539
878.313	23646
878.441	23726
878.568	23531
878.696	23657
878.824	23691
878.951	23908
879.079	23946
879.206	24038
879.333	23973
879.461	23870
879.588	23821
879.715	23988
879.842	24087
879.97	23805
880.097	23524
880.224	23619
880.351	23554
880.478	23486
880.605	23665
880.732	23714
880.859	23809
880.986	23596
881.112	23832
881.239	23326
881.366	23299
881.493	23250
881.619	23204
881.746	23094
881.872	23273
881.999	23075
882.125	22873
882.252	23048
882.378	23086
882.505	23193
882.631	23006
882.757	22850
882.883	22919
883.01	22793
883.136	22683
883.262	22637
883.388	22580
883.514	22702
883.64	22816
883.766	22752
883.892	22557
884.018	22599
884.143	22649
884.269	22706
884.395	22402
884.52	22485
884.646	22455
884.772	22306
884.897	22432
885.023	22367
885.148	22481
885.274	22599
885.399	22447
885.524	22459
885.65	22493
885.775	22341
885.9	22344
886.025	22512
886.15	22546
886.275	22344
886.4	22306
886.525	22371
886.65	22242
886.775	22257
886.9	22474
887.025	22615
887.149	22481
887.274	22299
887.399	22219
887.523	22287
887.648	22185
887.773	22234
887.897	22257
888.021	22242
888.146	22097
888.27	22238
888.395	22291
888.519	22333
888.643	22173
888.767	22265
888.891	22059
889.015	21979
889.139	22002
889.263	21884
889.387	22101
889.511	22234
889.635	22124
889.759	21903
889.883	21907
890.006	21831
890.13	22036
890.254	21888
890.377	21918
890.501	21835
890.624	21690
890.748	21724
890.871	21622
890.995	21648
891.118	21572
891.241	21663
891.364	21523
891.488	21610
891.611	21515
891.734	21477
891.857	21618
891.98	21507
892.103	21534
892.226	21450
892.349	21367
892.471	21249
892.594	21363
892.717	21500
892.839	21405
892.962	21420
893.085	21492
893.207	21473
893.33	21237
893.452	21462
893.575	21408
893.697	21374
893.819	21606
893.941	21523
894.064	21530
894.186	21401
894.308	21405
894.43	21367
894.552	21492
894.674	21500
894.796	21233
894.918	21401
895.04	21435
895.161	21382
895.283	21389
895.405	21412
895.526	21313
895.648	21389
895.769	21389
895.891	21435
896.012	21401
896.134	21359
896.255	21336
896.376	21416
896.498	21298
896.619	21389
896.74	21367
896.861	21332
896.982	21599
897.103	21880
897.224	21599
897.345	21618
897.466	21485
897.587	21500
897.708	21580
897.828	21610
897.949	21416
898.07	21466
898.19	21466
898.311	21671
898.431	21454
898.552	21583
898.672	21610
898.792	21538
898.913	21591
899.033	21454
899.153	21367
899.273	21245
899.393	21359
899.513	21188
899.633	21222
899.753	21355
899.873	21226
899.993	21222
900.113	21199
900.232	21203
900.352	21081
900.472	21131
900.591	21070
900.711	21211
900.83	20979
900.95	21135
901.069	21058
901.189	21013
901.308	20682
901.427	20579
901.546	20575
901.665	20579
901.784	20530
901.904	20438
902.023	20347
902.141	20195
902.26	20206
902.379	20180
902.498	20054
902.617	20084
902.735	20062
902.854	20065
902.973	20001
903.091	19837
903.21	19715
903.328	19655
903.446	19742
903.565	19529
903.683	19651
903.801	19445
903.919	19480
904.038	19472
904.156	19259
904.274	19377
904.392	19441
904.51	19343
904.627	19343
904.745	19301
904.863	19426
904.981	19160
905.098	18966
905.216	19118
905.334	19084
905.451	19038
905.569	18939
905.686	19076
905.803	18985
905.921	18688
906.038	18837
906.155	18798
906.272	18650
906.389	18783
906.506	18464
906.623	18433
906.74	18422
906.857	18315
906.974	18277
907.091	18521
907.208	18585
907.324	18353
907.441	18410
907.557	18178
907.674	18319
907.79	18133
907.907	18121
908.023	18296
908.139	18182
908.256	18076
908.372	18110
908.488	18110
908.604	17980
908.72	17882
908.836	17870
908.952	17977
909.068	17904
909.184	18106
909.3	17889
909.415	17954
909.531	17916
909.647	17760
909.762	17509
909.878	17665
909.993	17634
910.108	17646
910.224	17589
910.339	17570
910.454	17444
910.57	17497
910.685	17379
910.8	17623
910.915	17661
911.03	17364
911.145	17239
911.259	17288
911.374	17307
911.489	17140
911.604	17162
911.718	16896
911.833	16919
911.947	16915
912.062	16721
912.176	16946
912.291	16900
912.405	16911
912.519	17124
912.633	17220
912.748	16881
912.862	16835
912.976	16668
913.09	16592
913.204	16744
913.318	16733
913.431	16767
913.545	16793
913.659	16809
913.772	16744
913.886	16466
914	16592
914.113	16615
914.226	16706
914.34	16611
914.453	16382
914.566	16535
914.68	16421
914.793	16382
914.906	16230
915.019	16112
915.132	16010
915.245	16105
915.358	16147
915.47	16093
915.583	16120
915.696	16071
915.809	16173
915.921	16196
916.034	16044
916.146	15994
916.259	15983
916.371	15934
916.483	16082
916.595	15915
916.708	15956
916.82	15857
916.932	15869
917.044	15884
917.156	15789
917.268	15675
917.38	15797
917.491	15644
917.603	15671
917.715	15701
917.826	15892
917.938	15652
918.049	15549
918.161	15705
918.272	15724
918.384	15713
918.495	15580
918.606	15504
918.717	15511
918.828	15458
918.939	15545
919.05	15351
919.161	15382
919.272	15245
919.383	15230
919.494	15485
919.604	15618
919.715	15435
919.826	15287
919.936	15386
920.047	15530
920.157	15370
920.267	15534
920.378	15469
920.488	15370
920.598	15660
920.708	15728
920.818	15580
920.928	15572
921.038	15690
921.148	15614
921.258	15317
921.368	15245
921.477	15089
921.587	15032
921.697	14994
921.806	15104
921.916	14941
922.025	14849
922.134	14785
922.244	14693
922.353	14765
922.462	14625
922.571	14568
922.68	14431
922.789	14324
922.898	14389
923.007	14324
923.116	14408
923.224	14362
923.333	14377
923.442	14199
923.55	14248
923.659	14157
923.767	14263
923.876	14138
923.984	14161
924.092	14065
924.201	14126
924.309	14115
924.417	14130
924.525	13986
924.633	14016
924.741	14948
924.849	13742
924.956	13993
925.064	13890
925.172	13674
925.279	13696
925.387	13742
925.494	13632
925.602	13860
925.709	13830
925.816	13639
925.924	13643
926.031	13833
926.138	13731
926.245	13666
926.352	13609
926.459	13647
926.566	13723
926.673	13590
926.779	13525
926.886	13510
926.993	13354
927.099	13247
927.206	13202
927.312	13133
927.419	13217
927.525	13244
927.631	13270
927.737	13171
927.843	13088
927.95	13046
928.056	13099
928.162	13187
928.267	13122
928.373	13647
928.479	13107
928.585	12894
928.69	13023
928.796	13031
928.901	12909
929.007	12829
929.112	12932
929.218	12875
929.323	12821
929.428	12772
929.533	12970
929.638	12764
929.743	12726
929.848	12817
929.953	12787
930.058	12563
930.163	12338
930.267	12445
930.372	12589
930.477	12395
930.581	12730
930.685	12490
930.79	12346
930.894	12357
930.998	12251
931.103	12521
931.207	12102
931.311	12076
931.415	11863
931.519	11668
931.623	11630
