Data from test_V78500241_391.txt Node
Date: Fri Mar 25 15:44:30 CST 2022
User: usil
Spectrometer: V785-0024
Trigger mode: 0
Integration Time (sec): 4.000000E-1
Scans to average: 1
Nonlinearity correction enabled: false
Boxcar width: 0
Storing dark spectrum: false
XAxis mode: Wavelengths
Number of Pixels in Spectrum: 1024
>>>>>Begin Spectral Data<<<<<
801.071	29528
801.214	29436
801.356	29159
801.499	29197
801.641	28991
801.783	29018
801.926	29010
802.068	29006
802.211	28782
802.353	28904
802.496	28755
802.638	28683
802.78	28603
802.923	28744
803.065	28634
803.208	28748
803.35	28736
803.492	28923
803.635	28919
803.777	28664
803.919	28934
804.061	29166
804.204	28923
804.346	28675
804.488	28957
804.63	28900
804.773	28740
804.915	28942
805.057	28999
805.199	28923
805.341	29041
805.483	29109
805.626	29052
805.768	28854
805.91	28995
806.052	29067
806.194	28999
806.336	29227
806.478	28968
806.62	29067
806.762	29181
806.904	29364
807.046	29444
807.188	29509
807.33	29493
807.472	29452
807.614	29383
807.756	29379
807.898	29341
808.04	29151
808.182	29311
808.324	29356
808.465	29261
808.607	29440
808.749	29703
808.891	29722
809.033	29790
809.174	29916
809.316	29661
809.458	29840
809.6	29668
809.741	29764
809.883	29714
810.025	29904
810.166	29874
810.308	30022
810.45	29977
810.591	29931
810.733	29752
810.875	29775
811.016	29642
811.158	29592
811.299	29722
811.441	29893
811.582	29912
811.724	29710
811.865	29661
812.007	29691
812.148	29695
812.29	29554
812.431	29786
812.573	30053
812.714	30148
812.855	30258
812.997	30361
813.138	30414
813.279	30460
813.421	30327
813.562	30125
813.703	30015
813.845	29889
813.986	29581
814.127	29341
814.268	29341
814.41	29543
814.551	29478
814.692	29265
814.833	29307
814.974	29273
815.115	29337
815.256	29296
815.397	29242
815.539	29242
815.68	29121
815.821	29052
815.962	29128
816.103	29113
816.244	28927
816.385	28828
816.526	28809
816.666	28713
816.807	28615
816.948	28622
817.089	28694
817.23	28653
817.371	28656
817.512	28725
817.653	28554
817.793	28554
817.934	28607
818.075	28637
818.216	28618
818.356	28455
818.497	28538
818.638	28257
818.778	28333
818.919	28299
819.06	28432
819.2	28363
819.341	28584
819.481	28500
819.622	28793
819.762	28881
819.903	28687
820.043	28706
820.184	28645
820.324	28588
820.465	28763
820.605	28759
820.746	28816
820.886	28417
821.026	28660
821.167	28668
821.307	28615
821.447	28538
821.588	28538
821.728	28287
821.868	28090
822.008	28010
822.149	27903
822.289	27998
822.429	27766
822.569	27644
822.709	27610
822.849	27519
822.99	27534
823.13	27458
823.27	27435
823.41	27279
823.55	27176
823.69	27233
823.83	27306
823.97	27249
824.11	27180
824.25	27131
824.389	27085
824.529	27184
824.669	27310
824.809	27249
824.949	27272
825.089	27142
825.228	27066
825.368	27039
825.508	27005
825.648	26982
825.787	26842
825.927	27096
826.067	26952
826.206	26944
826.346	27135
826.485	27112
826.625	26967
826.765	26990
826.904	27020
827.044	26697
827.183	26758
827.323	26731
827.462	26773
827.601	26674
827.741	26708
827.88	26800
828.02	26476
828.159	26659
828.298	26689
828.437	26670
828.577	26625
828.716	26686
828.855	26514
828.994	26389
829.134	26275
829.273	26434
829.412	26332
829.551	26278
829.69	26404
829.829	26362
829.968	26499
830.107	26434
830.246	26320
830.385	26202
830.524	26088
830.663	26092
830.802	26096
830.941	26043
831.08	25890
831.219	25982
831.357	25917
831.496	26191
831.635	25879
831.774	25818
831.913	25822
832.051	25689
832.19	25712
832.329	25723
832.467	25715
832.606	25430
832.744	25575
832.883	25670
833.022	25525
833.16	25571
833.299	25521
833.437	25491
833.576	25605
833.714	25651
833.852	25765
833.991	25708
834.129	25677
834.267	25571
834.406	25563
834.544	25495
834.682	25594
834.821	25544
834.959	25807
835.097	25483
835.235	25525
835.373	25491
835.511	25601
835.65	25472
835.788	25483
835.926	25312
836.064	25141
836.202	25289
836.34	25392
836.478	25476
836.615	25403
836.753	25282
836.891	25514
837.029	25529
837.167	25263
837.305	25285
837.443	25301
837.58	25175
837.718	25266
837.856	25263
837.993	25126
838.131	25137
838.269	25008
838.406	25190
838.544	24928
838.681	24745
838.819	24871
838.956	24627
839.094	24639
839.231	24719
839.369	24814
839.506	25080
839.643	24890
839.781	24681
839.918	24627
840.055	24696
840.193	24700
840.33	24570
840.467	24582
840.604	24585
840.742	24798
840.879	24448
841.016	24483
841.153	24490
841.29	24593
841.427	24536
841.564	24544
841.701	24509
841.838	24388
841.975	24445
842.112	24536
842.249	24327
842.385	24315
842.522	24399
842.659	24376
842.796	24262
842.933	24323
843.069	24186
843.206	24057
843.343	24247
843.479	24155
843.616	24315
843.752	24022
843.889	24045
844.025	24182
844.162	24030
844.298	24182
844.435	23954
844.571	23843
844.708	24194
844.844	24136
844.98	24152
845.117	24072
845.253	23813
845.389	23889
845.525	23916
845.661	23729
845.798	23832
845.934	23714
846.07	23634
846.206	23710
846.342	23874
846.478	23642
846.614	23554
846.75	23307
846.886	23448
847.022	23512
847.158	23493
847.294	23414
847.429	23448
847.565	23459
847.701	23684
847.837	23216
847.972	23162
848.108	23311
848.244	23246
848.379	23025
848.515	22980
848.65	22900
848.786	23105
848.921	23094
849.057	23098
849.192	23060
849.328	23044
849.463	23064
849.598	22965
849.734	22949
849.869	22854
850.004	22748
850.14	22733
850.275	22725
850.41	22729
850.545	22672
850.68	22694
850.815	22641
850.95	22698
851.085	22980
851.22	22968
851.355	22672
851.49	22702
851.625	22687
851.76	22721
851.895	22653
852.03	22550
852.165	22660
852.299	22831
852.434	22790
852.569	22839
852.703	22713
852.838	22634
852.973	22805
853.107	22790
853.242	22702
853.376	22474
853.511	22557
853.645	22573
853.78	22615
853.914	22531
854.048	22508
854.183	22474
854.317	22599
854.451	22691
854.585	22561
854.72	22478
854.854	22630
854.988	22485
855.122	22569
855.256	22451
855.39	22584
855.524	22611
855.658	22596
855.792	22615
855.926	22500
856.06	22497
856.194	22672
856.327	22485
856.461	22421
856.595	22455
856.729	22462
856.862	22615
856.996	22554
857.13	22493
857.263	22535
857.397	22485
857.53	22466
857.664	22622
857.797	22535
857.931	22634
858.064	22542
858.197	22618
858.331	22489
858.464	22322
858.597	22322
858.731	22470
858.864	22417
858.997	22478
859.13	22542
859.263	22516
859.396	22565
859.529	22512
859.662	22497
859.795	22451
859.928	22535
860.061	22687
860.194	22645
860.327	22421
860.46	22599
860.592	22599
860.725	22786
860.858	22717
860.99	22459
861.123	22527
861.256	22329
861.388	22413
861.521	23090
861.653	22455
861.786	22318
861.918	22371
862.05	22356
862.183	22394
862.315	22489
862.447	22455
862.58	22550
862.712	22303
862.844	22143
862.976	22257
863.108	22128
863.24	22675
863.372	22109
863.504	22265
863.636	22181
863.768	22158
863.9	22154
864.032	22067
864.164	22223
864.296	22200
864.428	22223
864.559	22234
864.691	22181
864.823	22238
864.954	22124
865.086	22204
865.217	22154
865.349	22078
865.48	21991
865.612	22036
865.743	22234
865.875	22120
866.006	21998
866.137	22055
866.269	22032
866.4	22082
866.531	21994
866.662	21899
866.793	21937
866.924	21964
867.055	22059
867.186	22021
867.317	21895
867.448	21831
867.579	21861
867.71	21892
867.841	21934
867.972	21926
868.103	22109
868.233	22067
868.364	21953
868.495	21937
868.625	22207
868.756	22265
868.886	22162
869.017	22185
869.147	22234
869.278	22318
869.408	22242
869.539	22272
869.669	22211
869.799	22162
869.929	22238
870.06	22402
870.19	22531
870.32	22470
870.45	22580
870.58	22550
870.71	22729
870.84	22622
870.97	22561
871.1	22542
871.23	22759
871.36	22839
871.489	22736
871.619	22713
871.749	22702
871.879	22908
872.008	22854
872.138	22755
872.267	22793
872.397	22710
872.526	22645
872.656	22584
872.785	22641
872.915	22736
873.044	22835
873.173	22934
873.303	22847
873.432	22774
873.561	22949
873.69	22759
873.819	22828
873.948	22866
874.077	22923
874.206	22713
874.335	22786
874.464	22885
874.593	23010
874.722	23029
874.851	23094
874.979	23121
875.108	23018
875.237	22972
875.365	22938
875.494	22934
875.623	23083
875.751	23071
875.88	23064
876.008	23109
876.136	23231
876.265	23509
876.393	23505
876.521	23463
876.65	23444
876.778	23395
876.906	23402
877.034	23436
877.162	23356
877.29	23254
877.418	23379
877.546	23425
877.674	23284
877.802	23307
877.93	23360
878.058	23231
878.185	23334
878.313	23288
878.441	23307
878.568	23189
878.696	23261
878.824	23254
878.951	23539
879.079	23528
879.206	23630
879.333	23516
879.461	23493
879.588	23478
879.715	23425
879.842	23665
879.97	23402
880.097	23166
880.224	23185
880.351	23159
880.478	23269
880.605	23128
880.732	23189
880.859	23452
880.986	23162
881.112	23109
881.239	22949
881.366	22885
881.493	22831
881.619	22580
881.746	22816
881.872	22763
881.999	22736
882.125	22706
882.252	22721
882.378	22626
882.505	22801
882.631	22538
882.757	22481
882.883	22489
883.01	22451
883.136	22409
883.262	22265
883.388	22287
883.514	22409
883.64	22493
883.766	22394
883.892	22211
884.018	22329
884.143	22409
884.269	22424
884.395	22059
884.52	22173
884.646	21998
884.772	22082
884.897	22070
885.023	22105
885.148	22226
885.274	22219
885.399	22109
885.524	22032
885.65	22200
885.775	22013
885.9	21934
886.025	22242
886.15	22128
886.275	21907
886.4	21960
886.525	22021
886.65	22124
886.775	21968
886.9	22109
887.025	22063
887.149	22006
887.274	21816
887.399	21797
887.523	21717
887.648	21842
887.773	21701
887.897	22044
888.021	21793
888.146	21709
888.27	21994
888.395	21949
888.519	21778
888.643	21899
888.767	21884
888.891	21701
889.015	21481
889.139	21736
889.263	21595
889.387	21789
889.511	21770
889.635	21800
889.759	21663
889.883	21473
890.006	21526
890.13	21652
890.254	21564
890.377	21492
890.501	21313
890.624	21397
890.748	21237
890.871	21241
890.995	20979
891.118	21096
891.241	21199
891.364	21264
891.488	21313
891.611	21169
891.734	21233
891.857	21176
891.98	21116
892.103	21211
892.226	21154
892.349	21218
892.471	20880
892.594	20971
892.717	21058
892.839	20971
892.962	21047
893.085	21096
893.207	21043
893.33	20838
893.452	21039
893.575	21150
893.697	20986
893.819	21173
893.941	21176
894.064	21237
894.186	21020
894.308	20937
894.43	21154
894.552	21085
894.674	21135
894.796	20906
894.918	20876
895.04	20979
895.161	21157
895.283	21074
895.405	21074
895.526	21047
895.648	21161
895.769	21058
895.891	20937
896.012	21104
896.134	21066
896.255	21017
896.376	20929
896.498	20998
896.619	21062
896.74	20998
896.861	21100
896.982	21313
897.103	21439
897.224	21363
897.345	21173
897.466	21252
897.587	21245
897.708	21317
897.828	21226
897.949	21203
898.07	20925
898.19	21066
898.311	21378
898.431	21085
898.552	21256
898.672	21207
898.792	21332
898.913	21245
899.033	21013
899.153	21017
899.273	20921
899.393	20891
899.513	21081
899.633	20944
899.753	21039
899.873	20891
899.993	20941
900.113	20804
900.232	20842
900.352	20883
900.472	20777
900.591	20682
900.711	20773
900.83	20602
900.95	20735
901.069	20602
901.189	20648
901.308	20355
901.427	20332
901.546	20183
901.665	20218
901.784	20362
901.904	20119
902.023	19978
902.141	19887
902.26	19849
902.379	19814
902.498	19753
902.617	19620
902.735	19753
902.854	19704
902.973	19655
903.091	19426
903.21	19400
903.328	19426
903.446	19263
903.565	19221
903.683	19206
903.801	19046
903.919	19247
904.038	19141
904.156	19065
904.274	19152
904.392	18928
904.51	18913
904.627	18993
904.745	18939
904.863	19084
904.981	18757
905.098	18604
905.216	18673
905.334	18559
905.451	18692
905.569	18654
905.686	18677
905.803	18654
905.921	18479
906.038	18574
906.155	18460
906.272	18395
906.389	18441
906.506	18171
906.623	18136
906.74	18194
906.857	18060
906.974	17946
907.091	18129
907.208	18235
907.324	18148
907.441	18095
907.557	17942
907.674	17870
907.79	17824
907.907	17794
908.023	17843
908.139	17863
908.256	17775
908.372	17668
908.488	17687
908.604	17558
908.72	17520
908.836	17516
908.952	17433
909.068	17600
909.184	17611
909.3	17566
909.415	17566
909.531	17452
909.647	17303
909.762	17223
909.878	17239
909.993	17235
910.108	17261
910.224	17151
910.339	17174
910.454	17083
910.57	16987
910.685	16923
910.8	17311
910.915	17208
911.03	17025
911.145	16801
911.259	16771
911.374	16752
911.489	16729
911.604	16668
911.718	16592
911.833	16611
911.947	16497
912.062	16398
912.176	16561
912.291	16618
912.405	16607
912.519	16797
912.633	16679
912.748	16523
912.862	16436
912.976	16287
913.09	16280
913.204	16280
913.318	16341
913.431	16542
913.545	16489
913.659	16447
913.772	16314
913.886	16272
914	16196
914.113	16242
914.226	16211
914.34	16188
914.453	16067
914.566	16196
914.68	16029
914.793	16010
914.906	15911
915.019	15679
915.132	15739
915.245	15755
915.358	15819
915.47	15793
915.583	15682
915.696	15709
915.809	15869
915.921	15873
916.034	15724
916.146	15675
916.259	15614
916.371	15724
916.483	15686
916.595	15564
916.708	15492
916.82	15515
916.932	15477
917.044	15492
917.156	15420
917.268	15287
917.38	15393
917.491	15325
917.603	15291
917.715	15458
917.826	15466
917.938	15256
918.049	15169
918.161	15279
918.272	15416
918.384	15424
918.495	15321
918.606	15192
918.717	15074
918.828	15169
918.939	15104
919.05	15005
919.161	15058
919.272	14834
919.383	14956
919.494	15188
919.604	15287
919.715	15009
919.826	14975
919.936	14921
920.047	15104
920.157	15142
920.267	15150
920.378	15108
920.488	15009
920.598	15195
920.708	15359
920.818	15195
920.928	15218
921.038	15336
921.148	15233
921.258	14944
921.368	14906
921.477	14823
921.587	14792
921.697	14613
921.806	14815
921.916	14693
922.025	14571
922.134	14362
922.244	14301
922.353	14336
922.462	14404
922.571	14278
922.68	14001
922.789	14016
922.898	13982
923.007	13860
923.116	14046
923.224	14054
923.333	13875
923.442	13986
923.55	13738
923.659	13921
923.767	13928
923.876	13715
923.984	13849
924.092	13704
924.201	13712
924.309	13734
924.417	13803
924.525	13662
924.633	13582
924.741	14606
924.849	13468
924.956	13639
925.064	13384
925.172	13419
925.279	13373
925.387	13430
925.494	13464
925.602	13552
925.709	13377
925.816	13297
925.924	13358
926.031	13331
926.138	13304
926.245	13487
926.352	13225
926.459	13297
926.566	13403
926.673	13251
926.779	13175
926.886	13149
926.993	12996
927.099	13034
927.206	12905
927.312	12901
927.419	12989
927.525	12920
927.631	13023
927.737	12791
927.843	12833
927.95	12669
928.056	12764
928.162	12734
928.267	12787
928.373	13392
928.479	12817
928.585	12582
928.69	12673
928.796	12863
928.901	12601
929.007	12502
929.112	12578
929.218	12593
929.323	12441
929.428	12483
929.533	12593
929.638	12369
929.743	12448
929.848	12475
929.953	12441
930.058	12422
930.163	12140
930.267	12197
930.372	12266
930.477	12182
930.581	12357
930.685	12213
930.79	12060
930.894	12171
930.998	12003
931.103	12220
931.207	11733
931.311	11726
931.415	11619
931.519	11402
931.623	11417
