Data from test_V78500241_1744.txt Node
Date: Fri Mar 25 15:53:52 CST 2022
User: usil
Spectrometer: V785-0024
Trigger mode: 0
Integration Time (sec): 4.000000E-1
Scans to average: 1
Nonlinearity correction enabled: false
Boxcar width: 0
Storing dark spectrum: false
XAxis mode: Wavelengths
Number of Pixels in Spectrum: 1024
>>>>>Begin Spectral Data<<<<<
801.071	28596
801.214	28584
801.356	28561
801.499	28379
801.641	28310
801.783	28299
801.926	28242
802.068	28211
802.211	28105
802.353	28131
802.496	27888
802.638	28010
802.78	27930
802.923	27778
803.065	27808
803.208	27838
803.35	27960
803.492	28040
803.635	28067
803.777	28029
803.919	28207
804.061	28512
804.204	28116
804.346	28021
804.488	28025
804.63	28147
804.773	28002
804.915	28246
805.057	28097
805.199	28109
805.341	28219
805.483	28432
805.626	28185
805.768	28101
805.91	28367
806.052	28356
806.194	28067
806.336	28519
806.478	28341
806.62	28291
806.762	28584
806.904	28736
807.046	28778
807.188	28782
807.33	28869
807.472	28797
807.614	28641
807.756	28733
807.898	28554
808.04	28607
808.182	28394
808.324	28580
808.465	28611
808.607	28847
808.749	28968
808.891	29029
809.033	29174
809.174	28869
809.316	28915
809.458	29071
809.6	28911
809.741	28968
809.883	29094
810.025	29250
810.166	29330
810.308	29414
810.45	29189
810.591	29128
810.733	29079
810.875	28915
811.016	28843
811.158	28877
811.299	29033
811.441	29109
811.582	29060
811.724	29022
811.865	28968
812.007	29018
812.148	28915
812.29	29136
812.431	29121
812.573	29391
812.714	29341
812.855	29600
812.997	29512
813.138	29737
813.279	29767
813.421	29554
813.562	29307
813.703	29406
813.845	29223
813.986	29052
814.127	28767
814.268	28729
814.41	28725
814.551	28660
814.692	28717
814.833	28672
814.974	28565
815.115	28691
815.256	28523
815.397	28569
815.539	28436
815.68	28459
815.821	28409
815.962	28436
816.103	28512
816.244	28371
816.385	28280
816.526	28299
816.666	28200
816.807	27842
816.948	28059
817.089	28017
817.23	27914
817.371	28048
817.512	27994
817.653	27983
817.793	27949
817.934	27914
818.075	28013
818.216	28025
818.356	28013
818.497	27865
818.638	27679
818.778	27873
818.919	27804
819.06	27892
819.2	27895
819.341	27968
819.481	28055
819.622	28067
819.762	28371
819.903	28120
820.043	28112
820.184	28246
820.324	28086
820.465	28070
820.605	28162
820.746	28131
820.886	28040
821.026	28109
821.167	28188
821.307	28131
821.447	28181
821.588	27903
821.728	27842
821.868	27641
822.008	27485
822.149	27374
822.289	27370
822.429	27222
822.569	27074
822.709	27135
822.849	27051
822.99	27024
823.13	26986
823.27	26906
823.41	26697
823.55	26686
823.69	26807
823.83	26910
823.97	26792
824.11	26621
824.25	26609
824.389	26754
824.529	26819
824.669	26731
824.809	26739
824.949	26758
825.089	26785
825.228	26613
825.368	26473
825.508	26526
825.648	26499
825.787	26644
825.927	26571
826.067	26602
826.206	26461
826.346	26617
826.485	26583
826.625	26446
826.765	26781
826.904	26571
827.044	26362
827.183	26244
827.323	26183
827.462	26457
827.601	26240
827.741	26221
827.88	26237
828.02	26149
828.159	26088
828.298	26202
828.437	26385
828.577	26107
828.716	26294
828.855	26183
828.994	25860
829.134	26088
829.273	25917
829.412	25955
829.551	25951
829.69	25890
829.829	25841
829.968	25963
830.107	25936
830.246	26035
830.385	25814
830.524	25803
830.663	25693
830.802	25677
830.941	25643
831.08	25460
831.219	25635
831.357	25681
831.496	25647
831.635	25601
831.774	25373
831.913	25426
832.051	25358
832.19	25377
832.329	25388
832.467	25255
832.606	25266
832.744	25152
832.883	25141
833.022	25061
833.16	25221
833.299	25103
833.437	25324
833.576	25327
833.714	25206
833.852	25221
833.991	25422
834.129	25327
834.267	25362
834.406	25388
834.544	25327
834.682	25137
834.821	25259
834.959	25373
835.097	25206
835.235	25285
835.373	25225
835.511	25400
835.65	25171
835.788	25110
835.926	24985
836.064	24909
836.202	24947
836.34	25061
836.478	25129
836.615	25076
836.753	25004
836.891	25133
837.029	24939
837.167	24939
837.305	25122
837.443	24973
837.58	24932
837.718	24806
837.856	24863
837.993	24878
838.131	24848
838.269	24829
838.406	24821
838.544	24768
838.681	24547
838.819	24502
838.956	24380
839.094	24384
839.231	24540
839.369	24604
839.506	24764
839.643	24696
839.781	24441
839.918	24399
840.055	24509
840.193	24388
840.33	24213
840.467	24334
840.604	24319
840.742	24566
840.879	24194
841.016	24201
841.153	24114
841.29	24300
841.427	24346
841.564	24319
841.701	24281
841.838	24235
841.975	24140
842.112	24060
842.249	24083
842.385	24079
842.522	24235
842.659	24114
842.796	24095
842.933	24045
843.069	24030
843.206	23988
843.343	24003
843.479	24076
843.616	23935
843.752	23851
843.889	23790
844.025	23931
844.162	23783
844.298	23893
844.435	23893
844.571	23786
844.708	23726
844.844	23866
844.98	23939
845.117	23916
845.253	23714
845.389	23531
845.525	23718
845.661	23699
845.798	23501
845.934	23737
846.07	23657
846.206	23649
846.342	23687
846.478	23493
846.614	23322
846.75	23128
846.886	23307
847.022	23417
847.158	23383
847.294	23307
847.429	23318
847.565	23155
847.701	23505
847.837	22991
847.972	22949
848.108	23140
848.244	23048
848.379	22828
848.515	22767
848.65	22862
848.786	22793
848.921	22946
849.057	22843
849.192	22911
849.328	22831
849.463	22828
849.598	22866
849.734	22759
849.869	22729
850.004	22500
850.14	22698
850.275	22725
850.41	22599
850.545	22527
850.68	22561
850.815	22679
850.95	22474
851.085	22778
851.22	22733
851.355	22577
851.49	22519
851.625	22550
851.76	22523
851.895	22535
852.03	22687
852.165	22641
852.299	22679
852.434	22611
852.569	22546
852.703	22653
852.838	22618
852.973	22828
853.107	22786
853.242	22554
853.376	22402
853.511	22421
853.645	22569
853.78	22500
853.914	22451
854.048	22481
854.183	22459
854.317	22516
854.451	22672
854.585	22360
854.72	22409
854.854	22508
854.988	22375
855.122	22417
855.256	22363
855.39	22455
855.524	22512
855.658	22386
855.792	22489
855.926	22531
856.06	22432
856.194	22557
856.327	22360
856.461	22363
856.595	22325
856.729	22440
856.862	22561
856.996	22516
857.13	22531
857.263	22577
857.397	22546
857.53	22516
857.664	22504
857.797	22466
857.931	22519
858.064	22447
858.197	22630
858.331	22329
858.464	22325
858.597	22261
858.731	22432
858.864	22215
858.997	22459
859.13	22352
859.263	22451
859.396	22500
859.529	22394
859.662	22394
859.795	22337
859.928	22417
860.061	22611
860.194	22752
860.327	22440
860.46	22390
860.592	22462
860.725	22481
860.858	22569
860.99	22459
861.123	22322
861.256	22371
861.388	22424
861.521	23220
861.653	22310
861.786	22215
861.918	22226
862.05	22303
862.183	22394
862.315	22299
862.447	22451
862.58	22436
862.712	22112
862.844	22112
862.976	22230
863.108	22101
863.24	22497
863.372	22120
863.504	22105
863.636	22154
863.768	22234
863.9	22158
864.032	22101
864.164	22101
864.296	22124
864.428	22154
864.559	22059
864.691	22051
864.823	22040
864.954	22032
865.086	22101
865.217	21975
865.349	21953
865.48	22078
865.612	21926
865.743	22090
865.875	22036
866.006	21903
866.137	22082
866.269	22044
866.4	21968
866.531	21846
866.662	21915
866.793	21945
866.924	21960
867.055	22010
867.186	21934
867.317	21854
867.448	21907
867.579	21869
867.71	21857
867.841	21865
867.972	21892
868.103	21911
868.233	21899
868.364	22032
868.495	21972
868.625	21922
868.756	22322
868.886	22139
869.017	22265
869.147	22261
869.278	22310
869.408	22329
869.539	22257
869.669	22230
869.799	22139
869.929	22207
870.06	22230
870.19	22512
870.32	22379
870.45	22531
870.58	22580
870.71	22675
870.84	22592
870.97	22577
871.1	22535
871.23	22672
871.36	22736
871.489	22641
871.619	22786
871.749	22763
871.879	22748
872.008	22786
872.138	22809
872.267	22653
872.397	22637
872.526	22538
872.656	22702
872.785	22698
872.915	22748
873.044	22820
873.173	22805
873.303	22733
873.432	22858
873.561	22839
873.69	22812
873.819	22710
873.948	22877
874.077	22752
874.206	22736
874.335	22790
874.464	22771
874.593	23079
874.722	22980
874.851	23136
874.979	23003
875.108	23025
875.237	22934
875.365	22835
875.494	22942
875.623	23094
875.751	22957
875.88	23014
876.008	23079
876.136	23181
876.265	23368
876.393	23398
876.521	23497
876.65	23562
876.778	23379
876.906	23402
877.034	23197
877.162	23421
877.29	23315
877.418	23273
877.546	23471
877.674	23425
877.802	23368
877.93	23330
878.058	23254
878.185	23277
878.313	23318
878.441	23398
878.568	23102
878.696	23311
878.824	23250
878.951	23448
879.079	23509
879.206	23745
879.333	23463
879.461	23421
879.588	23455
879.715	23452
879.842	23646
879.97	23322
880.097	23155
880.224	23216
880.351	23265
880.478	23162
880.605	23242
880.732	23128
880.859	23433
880.986	23140
881.112	23231
881.239	22942
881.366	22923
881.493	22885
881.619	22691
881.746	22752
881.872	22801
881.999	22778
882.125	22512
882.252	22721
882.378	22649
882.505	22828
882.631	22645
882.757	22451
882.883	22455
883.01	22462
883.136	22310
883.262	22211
883.388	22303
883.514	22417
883.64	22379
883.766	22394
883.892	22101
884.018	22207
884.143	22261
884.269	22318
884.395	22135
884.52	22063
884.646	21983
884.772	22116
884.897	21960
885.023	22021
885.148	21968
885.274	22185
885.399	22147
885.524	21907
885.65	21975
885.775	22067
885.9	21964
886.025	22135
886.15	22124
886.275	21998
886.4	21949
886.525	22010
886.65	21979
886.775	21857
886.9	22234
887.025	22188
887.149	21953
887.274	21884
887.399	21823
887.523	21899
887.648	21732
887.773	21739
887.897	21838
888.021	21728
888.146	21816
888.27	21816
888.395	21873
888.519	21838
888.643	21819
888.767	21819
888.891	21675
889.015	21671
889.139	21629
889.263	21580
889.387	21587
889.511	21701
889.635	21667
889.759	21462
889.883	21538
890.006	21667
890.13	21701
890.254	21473
890.377	21450
890.501	21249
890.624	21241
890.748	21424
890.871	21252
890.995	21085
891.118	21085
891.241	21283
891.364	21176
891.488	21165
891.611	21096
891.734	21047
891.857	21241
891.98	21169
892.103	21043
892.226	21085
892.349	21085
892.471	20952
892.594	21009
892.717	21032
892.839	20937
892.962	21112
893.085	21127
893.207	20994
893.33	20891
893.452	20956
893.575	20963
893.697	20937
893.819	21127
893.941	21298
894.064	21108
894.186	20944
894.308	20891
894.43	21005
894.552	21096
894.674	21043
894.796	20834
894.918	20998
895.04	20941
895.161	20941
895.283	21039
895.405	20960
895.526	21051
895.648	21036
895.769	21047
895.891	20941
896.012	21005
896.134	21081
896.255	21077
896.376	20944
896.498	20967
896.619	21020
896.74	21055
896.861	21001
896.982	21306
897.103	21462
897.224	21195
897.345	21138
897.466	21062
897.587	21272
897.708	21275
897.828	21249
897.949	21093
898.07	21005
898.19	21230
898.311	21283
898.431	21138
898.552	21192
898.672	21207
898.792	21184
898.913	21237
899.033	21169
899.153	20857
899.273	20998
899.393	20891
899.513	21036
899.633	20944
899.753	20895
899.873	20933
899.993	20925
900.113	20925
900.232	20979
900.352	20823
900.472	20735
900.591	20739
900.711	20765
900.83	20682
900.95	20811
901.069	20758
901.189	20648
901.308	20442
901.427	20305
901.546	20248
901.665	20328
901.784	20191
901.904	20233
902.023	20077
902.141	19887
902.26	19928
902.379	19871
902.498	19746
902.617	19693
902.735	19791
902.854	19799
902.973	19677
903.091	19426
903.21	19460
903.328	19487
903.446	19335
903.565	19255
903.683	19259
903.801	19072
903.919	19221
904.038	19027
904.156	19042
904.274	19053
904.392	19004
904.51	18985
904.627	18958
904.745	19053
904.863	19008
904.981	18833
905.098	18631
905.216	18555
905.334	18768
905.451	18589
905.569	18681
905.686	18673
905.803	18582
905.921	18426
906.038	18486
906.155	18384
906.272	18391
906.389	18441
906.506	18144
906.623	18228
906.74	18106
906.857	18072
906.974	18049
907.091	18273
907.208	18350
907.324	18110
907.441	18053
907.557	17965
907.674	17946
907.79	17779
907.907	17920
908.023	17866
908.139	17878
908.256	17855
908.372	17748
908.488	17779
908.604	17680
908.72	17596
908.836	17577
908.952	17577
909.068	17623
909.184	17912
909.3	17596
909.415	17524
909.531	17543
909.647	17242
909.762	17284
909.878	17147
909.993	17341
910.108	17178
910.224	17311
910.339	17250
910.454	17140
910.57	17178
910.685	16991
910.8	17337
910.915	17265
911.03	17029
911.145	16889
911.259	16885
911.374	16885
911.489	16710
911.604	16702
911.718	16592
911.833	16618
911.947	16580
912.062	16508
912.176	16710
912.291	16660
912.405	16687
912.519	16942
912.633	16873
912.748	16584
912.862	16603
912.976	16485
913.09	16375
913.204	16409
913.318	16363
913.431	16466
913.545	16489
913.659	16466
913.772	16322
913.886	16337
914	16196
914.113	16367
914.226	16284
914.34	16333
914.453	16166
914.566	16246
914.68	16135
914.793	16093
914.906	15846
915.019	15823
915.132	15816
915.245	15812
915.358	15892
915.47	15793
915.583	15816
915.696	15793
915.809	15884
915.921	15880
916.034	15732
916.146	15709
916.259	15724
916.371	15720
916.483	15743
916.595	15648
916.708	15564
916.82	15606
916.932	15603
917.044	15507
917.156	15454
917.268	15374
917.38	15420
917.491	15450
917.603	15344
917.715	15549
917.826	15462
917.938	15401
918.049	15264
918.161	15279
918.272	15374
918.384	15431
918.495	15336
918.606	15192
918.717	15188
918.828	15070
918.939	15169
919.05	15066
919.161	15165
919.272	14853
919.383	15032
919.494	15291
919.604	15348
919.715	15195
919.826	15116
919.936	15142
920.047	15199
920.157	15161
920.267	15344
920.378	15146
920.488	15104
920.598	15214
920.708	15504
920.818	15348
920.928	15165
921.038	15302
921.148	15336
921.258	15123
921.368	15032
921.477	14826
921.587	14731
921.697	14769
921.806	14887
921.916	14648
922.025	14533
922.134	14499
922.244	14484
922.353	14549
922.462	14393
922.571	14267
922.68	14111
922.789	14065
922.898	14161
923.007	13986
923.116	14145
923.224	14111
923.333	14100
923.442	13917
923.55	13833
923.659	13936
923.767	14005
923.876	13947
923.984	13940
924.092	13913
924.201	13887
924.309	13909
924.417	13803
924.525	13837
924.633	13757
924.741	14484
924.849	13605
924.956	13723
925.064	13556
925.172	13533
925.279	13445
925.387	13559
925.494	13480
925.602	13567
925.709	13491
925.816	13392
925.924	13510
926.031	13529
926.138	13487
926.245	13575
926.352	13384
926.459	13449
926.566	13460
926.673	13301
926.779	13247
926.886	13236
926.993	13103
927.099	13042
927.206	12985
927.312	13008
927.419	13065
927.525	13057
927.631	13076
927.737	12973
927.843	12859
927.95	12772
928.056	12852
928.162	12924
928.267	12909
928.373	13495
928.479	12901
928.585	12734
928.69	12829
928.796	12814
928.901	12730
929.007	12578
929.112	12764
929.218	12551
929.323	12540
929.428	12559
929.533	12665
929.638	12494
929.743	12464
929.848	12486
929.953	12517
930.058	12395
930.163	12213
930.267	12315
930.372	12311
930.477	12106
930.581	12380
930.685	12235
930.79	12057
930.894	12144
930.998	12003
931.103	12277
931.207	11836
931.311	11775
931.415	11661
931.519	11482
931.623	11467
