Data from test_V78500241_899.txt Node
Date: Fri Mar 25 15:48:01 CST 2022
User: usil
Spectrometer: V785-0024
Trigger mode: 0
Integration Time (sec): 4.000000E-1
Scans to average: 1
Nonlinearity correction enabled: false
Boxcar width: 0
Storing dark spectrum: false
XAxis mode: Wavelengths
Number of Pixels in Spectrum: 1024
>>>>>Begin Spectral Data<<<<<
801.071	27987
801.214	27945
801.356	27846
801.499	27816
801.641	27717
801.783	27641
801.926	27747
802.068	27652
802.211	27523
802.353	27382
802.496	27310
802.638	27302
802.78	27294
802.923	27340
803.065	27131
803.208	27287
803.35	27302
803.492	27424
803.635	27507
803.777	27401
803.919	27523
804.061	27865
804.204	27576
804.346	27378
804.488	27260
804.63	27557
804.773	27416
804.915	27530
805.057	27553
805.199	27545
805.341	27622
805.483	27595
805.626	27599
805.768	27481
805.91	27648
806.052	27496
806.194	27462
806.336	27785
806.478	27454
806.62	27701
806.762	27701
806.904	27945
807.046	28215
807.188	28093
807.33	28021
807.472	27972
807.614	28040
807.756	27903
807.898	27907
808.04	27892
808.182	27838
808.324	27953
808.465	27937
808.607	28040
808.749	28303
808.891	28386
809.033	28371
809.174	28295
809.316	28337
809.458	28120
809.6	28356
809.741	28470
809.883	28481
810.025	28599
810.166	28428
810.308	28531
810.45	28531
810.591	28546
810.733	28310
810.875	28139
811.016	28284
811.158	28169
811.299	28531
811.441	28527
811.582	28504
811.724	28249
811.865	28306
812.007	28257
812.148	28166
812.29	28344
812.431	28421
812.573	28801
812.714	28782
812.855	28752
812.997	28908
813.138	28968
813.279	29014
813.421	28771
813.562	28790
813.703	28603
813.845	28459
813.986	28280
814.127	28097
814.268	27998
814.41	28067
814.551	27972
814.692	28036
814.833	27949
814.974	27789
815.115	27949
815.256	27797
815.397	27838
815.539	27911
815.68	27720
815.821	27633
815.962	27850
816.103	27705
816.244	27534
816.385	27545
816.526	27614
816.666	27469
816.807	27237
816.948	27393
817.089	27523
817.23	27310
817.371	27393
817.512	27355
817.653	27291
817.793	27211
817.934	27119
818.075	27302
818.216	27245
818.356	27192
818.497	27131
818.638	26925
818.778	27127
818.919	26979
819.06	27070
819.2	27291
819.341	27207
819.481	27192
819.622	27454
819.762	27629
819.903	27420
820.043	27561
820.184	27367
820.324	27344
820.465	27504
820.605	27401
820.746	27226
820.886	27374
821.026	27268
821.167	27306
821.307	27534
821.447	27344
821.588	27135
821.728	27173
821.868	27043
822.008	26773
822.149	26902
822.289	26785
822.429	26507
822.569	26533
822.709	26381
822.849	26286
822.99	26324
823.13	26187
823.27	26092
823.41	26210
823.55	26001
823.69	25982
823.83	26100
823.97	26020
824.11	25814
824.25	25826
824.389	25868
824.529	25997
824.669	25944
824.809	26016
824.949	26027
825.089	26065
825.228	26005
825.368	25769
825.508	25879
825.648	25689
825.787	25731
825.927	25833
826.067	25685
826.206	25780
826.346	25780
826.485	25761
826.625	25875
826.765	25776
826.904	25932
827.044	25525
827.183	25502
827.323	25369
827.462	25597
827.601	25559
827.741	25479
827.88	25533
828.02	25346
828.159	25438
828.298	25350
828.437	25529
828.577	25472
828.716	25460
828.855	25308
828.994	25137
829.134	25225
829.273	25225
829.412	25179
829.551	25145
829.69	25194
829.829	25091
829.968	25225
830.107	25343
830.246	25160
830.385	25175
830.524	25031
830.663	25061
830.802	24894
830.941	24772
831.08	24757
831.219	24863
831.357	24806
831.496	25057
831.635	24711
831.774	24707
831.913	24688
832.051	24612
832.19	24578
832.329	24627
832.467	24445
832.606	24422
832.744	24429
832.883	24422
833.022	24513
833.16	24342
833.299	24578
833.437	24547
833.576	24521
833.714	24593
833.852	24551
833.991	24604
834.129	24578
834.267	24559
834.406	24555
834.544	24498
834.682	24536
834.821	24471
834.959	24623
835.097	24502
835.235	24426
835.373	24593
835.511	24570
835.65	24304
835.788	24334
835.926	24197
836.064	24232
836.202	24235
836.34	24258
836.478	24429
836.615	24342
836.753	24315
836.891	24300
837.029	24437
837.167	24239
837.305	24251
837.443	24239
837.58	24243
837.718	24197
837.856	24155
837.993	24102
838.131	24216
838.269	23999
838.406	24190
838.544	24038
838.681	23832
838.819	23764
838.956	23665
839.094	23619
839.231	23722
839.369	23748
839.506	23984
839.643	23920
839.781	23680
839.918	23459
840.055	23661
840.193	23699
840.33	23589
840.467	23623
840.604	23657
840.742	23988
840.879	23486
841.016	23490
841.153	23467
841.29	23630
841.427	23524
841.564	23509
841.701	23619
841.838	23516
841.975	23539
842.112	23474
842.249	23337
842.385	23326
842.522	23501
842.659	23482
842.796	23128
842.933	23296
843.069	23296
843.206	23212
843.343	23326
843.479	23341
843.616	23296
843.752	22991
843.889	23014
844.025	23181
844.162	23041
844.298	23216
844.435	23102
844.571	22961
844.708	23094
844.844	23197
844.98	23265
845.117	23071
845.253	23079
845.389	22896
845.525	22987
845.661	22957
845.798	22748
845.934	22797
846.07	22843
846.206	22839
846.342	22885
846.478	22824
846.614	22641
846.75	22557
846.886	22607
847.022	22603
847.158	22516
847.294	22626
847.429	22546
847.565	22489
847.701	22702
847.837	22337
847.972	22344
848.108	22333
848.244	22363
848.379	22196
848.515	22097
848.65	22067
848.786	22044
848.921	22124
849.057	22299
849.192	22242
849.328	22215
849.463	22090
849.598	22021
849.734	21975
849.869	21994
850.004	21838
850.14	21819
850.275	21930
850.41	21819
850.545	21880
850.68	21880
850.815	21930
850.95	21941
851.085	21987
851.22	22128
851.355	21918
851.49	21911
851.625	21785
851.76	21956
851.895	21869
852.03	21800
852.165	21895
852.299	21918
852.434	22006
852.569	21880
852.703	21892
852.838	21983
852.973	21907
853.107	22032
853.242	21797
853.376	21705
853.511	21591
853.645	21637
853.78	21873
853.914	21751
854.048	21648
854.183	21743
854.317	21713
854.451	22051
854.585	21789
854.72	21743
854.854	21709
854.988	21534
855.122	21759
855.256	21462
855.39	21804
855.524	21766
855.658	21724
855.792	21671
855.926	21823
856.06	21770
856.194	21869
856.327	21618
856.461	21625
856.595	21660
856.729	21720
856.862	21728
856.996	21610
857.13	21759
857.263	21876
857.397	21812
857.53	21736
857.664	21717
857.797	21797
857.931	21808
858.064	21751
858.197	21892
858.331	21667
858.464	21789
858.597	21576
858.731	21591
858.864	21717
858.997	21690
859.13	21895
859.263	21701
859.396	21804
859.529	21724
859.662	21564
859.795	21591
859.928	21884
860.061	21869
860.194	21895
860.327	21778
860.46	21770
860.592	21819
860.725	21827
860.858	21842
860.99	21774
861.123	21736
861.256	21663
861.388	21747
861.521	22249
861.653	21618
861.786	21568
861.918	21515
862.05	21648
862.183	21603
862.315	21682
862.447	21652
862.58	21576
862.712	21492
862.844	21325
862.976	21473
863.108	21416
863.24	21766
863.372	21211
863.504	21454
863.636	21488
863.768	21561
863.9	21401
864.032	21367
864.164	21302
864.296	21496
864.428	21443
864.559	21386
864.691	21561
864.823	21386
864.954	21275
865.086	21370
865.217	21264
865.349	21291
865.48	21287
865.612	21416
865.743	21561
865.875	21439
866.006	21226
866.137	21351
866.269	21294
866.4	21321
866.531	21142
866.662	21310
866.793	21218
866.924	21329
867.055	21268
867.186	21226
867.317	21150
867.448	21039
867.579	21192
867.71	21104
867.841	21081
867.972	21272
868.103	21173
868.233	21188
868.364	21325
868.495	21386
868.625	21325
868.756	21606
868.886	21435
869.017	21492
869.147	21507
869.278	21485
869.408	21564
869.539	21469
869.669	21610
869.799	21496
869.929	21557
870.06	21610
870.19	21747
870.32	21808
870.45	21808
870.58	21785
870.71	22101
870.84	21918
870.97	21956
871.1	21880
871.23	22010
871.36	22112
871.489	21998
871.619	22105
871.749	22135
871.879	22074
872.008	22154
872.138	22124
872.267	22158
872.397	22025
872.526	21953
872.656	21854
872.785	21922
872.915	22139
873.044	22211
873.173	22059
873.303	22215
873.432	22249
873.561	22143
873.69	22169
873.819	22032
873.948	22135
874.077	22154
874.206	22074
874.335	22105
874.464	22287
874.593	22299
874.722	22379
874.851	22295
874.979	22382
875.108	22299
875.237	22284
875.365	22082
875.494	22318
875.623	22367
875.751	22295
875.88	22413
876.008	22360
876.136	22462
876.265	22672
876.393	22812
876.521	22752
876.65	22850
876.778	22588
876.906	22694
877.034	22546
877.162	22733
877.29	22611
877.418	22649
877.546	22729
877.674	22706
877.802	22622
877.93	22630
878.058	22626
878.185	22424
878.313	22725
878.441	22744
878.568	22451
878.696	22577
878.824	22599
878.951	22725
879.079	22824
879.206	23003
879.333	22812
879.461	22748
879.588	22645
879.715	22653
879.842	22900
879.97	22793
880.097	22557
880.224	22538
880.351	22630
880.478	22565
880.605	22516
880.732	22588
880.859	22679
880.986	22489
881.112	22531
881.239	22459
881.366	22276
881.493	22207
881.619	22116
881.746	22124
881.872	22082
881.999	22036
882.125	21994
882.252	22017
882.378	22010
882.505	22154
882.631	21968
882.757	21743
882.883	21884
883.01	21728
883.136	21690
883.262	21656
883.388	21572
883.514	21774
883.64	21709
883.766	21709
883.892	21504
884.018	21587
884.143	21701
884.269	21728
884.395	21450
884.52	21401
884.646	21466
884.772	21233
884.897	21344
885.023	21313
885.148	21500
885.274	21515
885.399	21504
885.524	21275
885.65	21283
885.775	21439
885.9	21313
886.025	21386
886.15	21428
886.275	21359
886.4	21386
886.525	21249
886.65	21340
886.775	21325
886.9	21397
887.025	21656
887.149	21374
887.274	21287
887.399	21237
887.523	21165
887.648	21020
887.773	21051
887.897	21237
888.021	21169
888.146	21108
888.27	21222
888.395	21161
888.519	21142
888.643	21138
888.767	21211
888.891	20979
889.015	21074
889.139	21074
889.263	20982
889.387	21085
889.511	21169
889.635	20914
889.759	20883
889.883	20948
890.006	20883
890.13	20986
890.254	20914
890.377	20891
890.501	20807
890.624	20629
890.748	20682
890.871	20511
890.995	20484
891.118	20484
891.241	20526
891.364	20549
891.488	20594
891.611	20598
891.734	20575
891.857	20568
891.98	20499
892.103	20594
892.226	20530
892.349	20427
892.471	20256
892.594	20393
892.717	20423
892.839	20396
892.962	20389
893.085	20446
893.207	20488
893.33	20240
893.452	20419
893.575	20469
893.697	20317
893.819	20469
893.941	20476
894.064	20594
894.186	20381
894.308	20282
894.43	20469
894.552	20511
894.674	20431
894.796	20347
894.918	20317
895.04	20278
895.161	20602
895.283	20499
895.405	20400
895.526	20374
895.648	20320
895.769	20503
895.891	20351
896.012	20488
896.134	20522
896.255	20377
896.376	20358
896.498	20442
896.619	20389
896.74	20434
896.861	20511
896.982	20670
897.103	20765
897.224	20724
897.345	20682
897.466	20765
897.587	20590
897.708	20720
897.828	20689
897.949	20651
898.07	20427
898.19	20621
898.311	20735
898.431	20556
898.552	20674
898.672	20693
898.792	20785
898.913	20613
899.033	20571
899.153	20374
899.273	20237
899.393	20476
899.513	20313
899.633	20396
899.753	20404
899.873	20301
899.993	20389
900.113	20324
900.232	20317
900.352	20298
900.472	20065
900.591	20100
900.711	20119
900.83	20122
900.95	20210
901.069	20229
901.189	20054
901.308	19864
901.427	19772
901.546	19769
901.665	19723
901.784	19635
901.904	19597
902.023	19419
902.141	19346
902.26	19266
902.379	19388
902.498	19285
902.617	19133
902.735	19304
902.854	19168
902.973	19061
903.091	18939
903.21	18897
903.328	18935
903.446	18840
903.565	18661
903.683	18730
903.801	18574
903.919	18703
904.038	18593
904.156	18418
904.274	18509
904.392	18365
904.51	18540
904.627	18410
904.745	18521
904.863	18559
904.981	18235
905.098	18182
905.216	18125
905.334	18076
905.451	18087
905.569	18110
905.686	18205
905.803	18190
905.921	17942
906.038	18034
906.155	17904
906.272	17748
906.389	17843
906.506	17680
906.623	17680
906.74	17653
906.857	17558
906.974	17554
907.091	17668
907.208	17939
907.324	17646
907.441	17543
907.557	17322
907.674	17395
907.79	17345
907.907	17353
908.023	17448
908.139	17376
908.256	17372
908.372	17269
908.488	17220
908.604	17090
908.72	17060
908.836	17003
908.952	17006
909.068	17086
909.184	17140
909.3	17064
909.415	17162
909.531	17056
909.647	16850
909.762	16801
909.878	16801
909.993	16843
910.108	16733
910.224	16793
910.339	16778
910.454	16729
910.57	16611
910.685	16500
910.8	16805
910.915	16881
911.03	16588
911.145	16333
911.259	16348
911.374	16375
911.489	16398
911.604	16158
911.718	16135
911.833	16131
911.947	16101
912.062	15876
912.176	16105
912.291	16139
912.405	16265
912.519	16291
912.633	16253
912.748	16109
912.862	16112
912.976	16002
913.09	15819
913.204	15941
913.318	15975
913.431	15953
913.545	16124
913.659	16059
913.772	15766
913.886	15831
914	15800
914.113	15835
914.226	15827
914.34	15819
914.453	15675
914.566	15713
914.68	15648
914.793	15656
914.906	15389
915.019	15329
915.132	15279
915.245	15355
915.358	15397
915.47	15378
915.583	15291
915.696	15405
915.809	15408
915.921	15469
916.034	15260
916.146	15256
916.259	15272
916.371	15283
916.483	15310
916.595	15138
916.708	15279
916.82	15154
916.932	15131
917.044	15146
917.156	15089
917.268	14994
917.38	15009
917.491	14849
917.603	15028
917.715	15013
917.826	15135
917.938	14956
918.049	14819
918.161	14925
918.272	15024
918.384	15028
918.495	14861
918.606	14754
918.717	14678
918.828	14765
918.939	14788
919.05	14670
919.161	14773
919.272	14488
919.383	14598
919.494	14739
919.604	14899
919.715	14663
919.826	14625
919.936	14655
920.047	14724
920.157	14663
920.267	14899
920.378	14663
920.488	14606
920.598	14887
920.708	14990
920.818	14868
920.928	14758
921.038	14975
921.148	14925
921.258	14670
921.368	14568
921.477	14415
921.587	14309
921.697	14301
921.806	14370
921.916	14210
922.025	14100
922.134	14088
922.244	13997
922.353	14046
922.462	13932
922.571	13887
922.68	13662
922.789	13761
922.898	13685
923.007	13674
923.116	13738
923.224	13670
923.333	13620
923.442	13616
923.55	13594
923.659	13548
923.767	13597
923.876	13480
923.984	13441
924.092	13324
924.201	13616
924.309	13411
924.417	13419
924.525	13434
924.633	13381
924.741	14309
924.849	13179
924.956	13282
925.064	13110
925.172	13084
925.279	13209
925.387	13122
925.494	13187
925.602	13206
925.709	13183
925.816	13050
925.924	13122
926.031	13061
926.138	12973
926.245	13095
926.352	13027
926.459	13053
926.566	13179
926.673	13057
926.779	12856
926.886	12840
926.993	12711
927.099	12730
927.206	12719
927.312	12665
927.419	12817
927.525	12753
927.631	12620
927.737	12547
927.843	12502
927.95	12361
928.056	12547
928.162	12506
928.267	12555
928.373	13103
928.479	12544
928.585	12410
928.69	12471
928.796	12563
928.901	12388
929.007	12213
929.112	12308
929.218	12372
929.323	12319
929.428	12262
929.533	12304
929.638	12133
929.743	12133
929.848	12232
929.953	12159
930.058	12053
930.163	11923
930.267	11927
930.372	12041
930.477	11866
930.581	12087
930.685	11931
930.79	11786
930.894	11771
930.998	11794
931.103	11832
931.207	11501
931.311	11433
931.415	11246
931.519	11231
931.623	11124
