Data from test_V78500241_330.txt Node
Date: Fri Mar 25 15:44:05 CST 2022
User: usil
Spectrometer: V785-0024
Trigger mode: 0
Integration Time (sec): 4.000000E-1
Scans to average: 1
Nonlinearity correction enabled: false
Boxcar width: 0
Storing dark spectrum: false
XAxis mode: Wavelengths
Number of Pixels in Spectrum: 1024
>>>>>Begin Spectral Data<<<<<
801.071	29931
801.214	29817
801.356	29493
801.499	29520
801.641	29463
801.783	29558
801.926	29528
802.068	29368
802.211	29334
802.353	29292
802.496	29174
802.638	29105
802.78	29037
802.923	28995
803.065	29029
803.208	29003
803.35	29170
803.492	29223
803.635	29322
803.777	29227
803.919	29296
804.061	29642
804.204	29303
804.346	29303
804.488	29197
804.63	29387
804.773	29204
804.915	29322
805.057	29448
805.199	29395
805.341	29570
805.483	29467
805.626	29417
805.768	29345
805.91	29364
806.052	29478
806.194	29353
806.336	29448
806.478	29566
806.62	29608
806.762	29558
806.904	29748
807.046	29973
807.188	29912
807.33	29680
807.472	29946
807.614	29809
807.756	29794
807.898	29630
808.04	29665
808.182	29687
808.324	29668
808.465	29680
808.607	29862
808.749	30144
808.891	30060
809.033	30091
809.174	30087
809.316	30057
809.458	30091
809.6	30007
809.741	30201
809.883	30144
810.025	30464
810.166	30304
810.308	30475
810.45	30384
810.591	30239
810.733	30144
810.875	30011
811.016	30011
811.158	29965
811.299	30266
811.441	30304
811.582	30148
811.724	30190
811.865	29988
812.007	30148
812.148	30079
812.29	30102
812.431	30243
812.573	30391
812.714	30437
812.855	30722
812.997	30825
813.138	30856
813.279	30779
813.421	30593
813.562	30574
813.703	30521
813.845	30289
813.986	30041
814.127	29718
814.268	29760
814.41	29920
814.551	29672
814.692	29870
814.833	29649
814.974	29589
815.115	29836
815.256	29512
815.397	29581
815.539	29638
815.68	29524
815.821	29402
815.962	29497
816.103	29558
816.244	29364
816.385	29353
816.526	29334
816.666	29071
816.807	28972
816.948	29079
817.089	29128
817.23	29018
817.371	28911
817.512	29083
817.653	28995
817.793	28911
817.934	28965
818.075	28999
818.216	28987
818.356	29064
818.497	28763
818.638	28675
818.778	28675
818.919	28717
819.06	28858
819.2	28824
819.341	28961
819.481	28938
819.622	29052
819.762	29208
819.903	29121
820.043	29140
820.184	29102
820.324	29178
820.465	29136
820.605	29083
820.746	29102
820.886	28869
821.026	29048
821.167	28930
821.307	29105
821.447	29006
821.588	28828
821.728	28752
821.868	28645
822.008	28375
822.149	28322
822.289	28287
822.429	28154
822.569	27994
822.709	27991
822.849	27892
822.99	27903
823.13	27873
823.27	27922
823.41	27641
823.55	27595
823.69	27861
823.83	27663
823.97	27675
824.11	27389
824.25	27412
824.389	27488
824.529	27652
824.669	27386
824.809	27667
824.949	27694
825.089	27671
825.228	27553
825.368	27359
825.508	27386
825.648	27393
825.787	27450
825.927	27393
826.067	27382
826.206	27317
826.346	27256
826.485	27435
826.625	27386
826.765	27462
826.904	27370
827.044	27089
827.183	27039
827.323	26990
827.462	27135
827.601	27055
827.741	26971
827.88	27024
828.02	26967
828.159	27077
828.298	26990
828.437	27150
828.577	26899
828.716	27055
828.855	26948
828.994	26815
829.134	26785
829.273	26682
829.412	26663
829.551	26701
829.69	26754
829.829	26830
829.968	26765
830.107	26902
830.246	26644
830.385	26636
830.524	26507
830.663	26419
830.802	26370
830.941	26233
831.08	26252
831.219	26195
831.357	26370
831.496	26415
831.635	26313
831.774	26145
831.913	26237
832.051	26164
832.19	26183
832.329	26035
832.467	26020
832.606	25871
832.744	25830
832.883	25917
833.022	25852
833.16	25921
833.299	25803
833.437	25894
833.576	25951
833.714	26050
833.852	25974
833.991	26012
834.129	25841
834.267	25898
834.406	25963
834.544	25959
834.682	26016
834.821	25864
834.959	26103
835.097	25742
835.235	25986
835.373	25932
835.511	25803
835.65	25750
835.788	25727
835.926	25750
836.064	25578
836.202	25575
836.34	25753
836.478	25788
836.615	25723
836.753	25780
836.891	25742
837.029	25643
837.167	25525
837.305	25670
837.443	25601
837.58	25502
837.718	25590
837.856	25651
837.993	25495
838.131	25487
838.269	25411
838.406	25445
838.544	25324
838.681	25114
838.819	25088
838.956	24909
839.094	24791
839.231	25069
839.369	25137
839.506	25312
839.643	25084
839.781	25023
839.918	24863
840.055	24954
840.193	24886
840.33	24749
840.467	24924
840.604	24920
840.742	25175
840.879	24772
841.016	24806
841.153	24738
841.29	24973
841.427	24848
841.564	24722
841.701	24768
841.838	24837
841.975	24593
842.112	24745
842.249	24776
842.385	24551
842.522	24711
842.659	24772
842.796	24604
842.933	24616
843.069	24418
843.206	24479
843.343	24574
843.479	24620
843.616	24464
843.752	24369
843.889	24182
844.025	24403
844.162	24205
844.298	24441
844.435	24327
844.571	24315
844.708	24289
844.844	24475
844.98	24311
845.117	24403
845.253	24228
845.389	24140
845.525	24186
845.661	24091
845.798	24003
845.934	24201
846.07	24018
846.206	24110
846.342	24079
846.478	24041
846.614	23775
846.75	23668
846.886	23676
847.022	23729
847.158	23722
847.294	23752
847.429	23707
847.565	23539
847.701	23939
847.837	23414
847.972	23433
848.108	23528
848.244	23539
848.379	23372
848.515	23349
848.65	23208
848.786	23200
848.921	23216
849.057	23421
849.192	23353
849.328	23345
849.463	23288
849.598	23204
849.734	23193
849.869	23200
850.004	23064
850.14	23022
850.275	23124
850.41	23014
850.545	22896
850.68	22976
850.815	23022
850.95	23044
851.085	23136
851.22	23132
851.355	23056
851.49	23025
851.625	22984
851.76	23006
851.895	22915
852.03	22919
852.165	22999
852.299	23037
852.434	23048
852.569	22976
852.703	22957
852.838	23022
852.973	23159
853.107	22953
853.242	22908
853.376	22885
853.511	22672
853.645	22790
853.78	22858
853.914	22752
854.048	22771
854.183	22831
854.317	22790
854.451	22889
854.585	22763
854.72	22835
854.854	22790
854.988	22687
855.122	22824
855.256	22626
855.39	22755
855.524	22805
855.658	22900
855.792	22824
855.926	22649
856.06	22820
856.194	22866
856.327	22816
856.461	22744
856.595	22786
856.729	22778
856.862	22911
856.996	22843
857.13	22957
857.263	22801
857.397	22896
857.53	22919
857.664	22790
857.797	23014
857.931	22900
858.064	22866
858.197	22801
858.331	22858
858.464	22637
858.597	22569
858.731	22649
858.864	22786
858.997	22717
859.13	22675
859.263	22786
859.396	22828
859.529	22755
859.662	22744
859.795	22706
859.928	22713
860.061	22824
860.194	22923
860.327	22740
860.46	22771
860.592	22873
860.725	22824
860.858	22862
860.99	22797
861.123	22694
861.256	22679
861.388	22733
861.521	23516
861.653	22694
861.786	22584
861.918	22504
862.05	22767
862.183	22736
862.315	22736
862.447	22782
862.58	22679
862.712	22428
862.844	22478
862.976	22675
863.108	22417
863.24	22934
863.372	22398
863.504	22451
863.636	22382
863.768	22500
863.9	22489
864.032	22337
864.164	22348
864.296	22375
864.428	22603
864.559	22478
864.691	22451
864.823	22341
864.954	22432
865.086	22474
865.217	22344
865.349	22207
865.48	22325
865.612	22272
865.743	22413
865.875	22341
866.006	22322
866.137	22341
866.269	22310
866.4	22322
866.531	22291
866.662	22280
866.793	22120
866.924	22333
867.055	22124
867.186	22272
867.317	22166
867.448	22181
867.579	22112
867.71	22169
867.841	22230
867.972	22230
868.103	22181
868.233	22238
868.364	22253
868.495	22112
868.625	22500
868.756	22577
868.886	22341
869.017	22417
869.147	22626
869.278	22599
869.408	22535
869.539	22569
869.669	22455
869.799	22497
869.929	22649
870.06	22542
870.19	22835
870.32	22740
870.45	22774
870.58	22839
870.71	22919
870.84	22896
870.97	22919
871.1	22786
871.23	23102
871.36	22942
871.489	23006
871.619	23014
871.749	22972
871.879	23056
872.008	23174
872.138	22946
872.267	22999
872.397	22965
872.526	22831
872.656	22824
872.785	22786
872.915	23018
873.044	23094
873.173	23060
873.303	23151
873.432	23178
873.561	23147
873.69	23086
873.819	23083
873.948	23170
874.077	23067
874.206	23052
874.335	23223
874.464	23227
874.593	23337
874.722	23223
874.851	23254
874.979	23330
875.108	23372
875.237	23178
875.365	23292
875.494	23242
875.623	23341
875.751	23360
875.88	23231
876.008	23436
876.136	23471
876.265	23649
876.393	23703
876.521	23748
876.65	23710
876.778	23726
876.906	23566
877.034	23604
877.162	23570
877.29	23570
877.418	23558
877.546	23649
877.674	23615
877.802	23691
877.93	23733
878.058	23672
878.185	23680
878.313	23596
878.441	23630
878.568	23417
878.696	23474
878.824	23729
878.951	23680
879.079	23882
879.206	24018
879.333	23707
879.461	23646
879.588	23695
879.715	23733
879.842	23878
879.97	23824
880.097	23524
880.224	23429
880.351	23353
880.478	23398
880.605	23512
880.732	23414
880.859	23638
880.986	23444
881.112	23539
881.239	23277
881.366	23136
881.493	23216
881.619	22957
881.746	23102
881.872	23037
881.999	23056
882.125	22930
882.252	22949
882.378	22972
882.505	23117
882.631	22869
882.757	22710
882.883	22752
883.01	22710
883.136	22592
883.262	22592
883.388	22611
883.514	22634
883.64	22660
883.766	22538
883.892	22462
884.018	22557
884.143	22637
884.269	22672
884.395	22272
884.52	22295
884.646	22299
884.772	22253
884.897	22272
885.023	22303
885.148	22398
885.274	22447
885.399	22470
885.524	22375
885.65	22185
885.775	22303
885.9	22337
886.025	22367
886.15	22440
886.275	22265
886.4	22238
886.525	22299
886.65	22169
886.775	22230
886.9	22341
887.025	22379
887.149	22299
887.274	22158
887.399	21945
887.523	22036
887.648	22032
887.773	21937
887.897	22207
888.021	22131
888.146	21873
888.27	22131
888.395	22185
888.519	22181
888.643	22090
888.767	22135
888.891	21884
889.015	21823
889.139	21838
889.263	21781
889.387	21937
889.511	21975
889.635	21975
889.759	21899
889.883	21766
890.006	21808
890.13	21953
890.254	21724
890.377	21694
890.501	21679
890.624	21530
890.748	21614
890.871	21500
890.995	21462
891.118	21317
891.241	21336
891.364	21336
891.488	21367
891.611	21428
891.734	21447
891.857	21473
891.98	21351
892.103	21435
892.226	21367
892.349	21283
892.471	21135
892.594	21241
892.717	21374
892.839	21287
892.962	21306
893.085	21214
893.207	21291
893.33	21199
893.452	21245
893.575	21370
893.697	21329
893.819	21378
893.941	21378
894.064	21306
894.186	21184
894.308	21176
894.43	21412
894.552	21336
894.674	21420
894.796	21207
894.918	21218
895.04	21203
895.161	21207
895.283	21268
895.405	21135
895.526	21317
895.648	21100
895.769	21363
895.891	21294
896.012	21245
896.134	21192
896.255	21302
896.376	21192
896.498	21256
896.619	21340
896.74	21176
896.861	21408
896.982	21564
897.103	21660
897.224	21553
897.345	21526
897.466	21424
897.587	21534
897.708	21633
897.828	21496
897.949	21378
898.07	21264
898.19	21405
898.311	21545
898.431	21393
898.552	21473
898.672	21469
898.792	21374
898.913	21454
899.033	21348
899.153	21222
899.273	21093
899.393	21195
899.513	21142
899.633	21161
899.753	21214
899.873	21066
899.993	21066
900.113	21233
900.232	21131
900.352	21051
900.472	20982
900.591	20868
900.711	20941
900.83	20834
900.95	21055
901.069	21070
901.189	20746
901.308	20571
901.427	20446
901.546	20415
901.665	20526
901.784	20473
901.904	20294
902.023	20176
902.141	20081
902.26	19921
902.379	20035
902.498	19951
902.617	19989
902.735	20035
902.854	19909
902.973	19887
903.091	19700
903.21	19655
903.328	19559
903.446	19628
903.565	19453
903.683	19525
903.801	19289
903.919	19240
904.038	19213
904.156	19293
904.274	19263
904.392	19080
904.51	19129
904.627	19160
904.745	19228
904.863	19217
904.981	18909
905.098	18757
905.216	18741
905.334	18817
905.451	18806
905.569	18753
905.686	18875
905.803	18707
905.921	18437
906.038	18700
906.155	18700
906.272	18631
906.389	18544
906.506	18410
906.623	18452
906.74	18391
906.857	18117
906.974	18266
907.091	18403
907.208	18475
907.324	18247
907.441	18243
907.557	17965
907.674	18140
907.79	17992
907.907	18030
908.023	17931
908.139	18114
908.256	18034
908.372	17855
908.488	17961
908.604	17786
908.72	17672
908.836	17821
908.952	17627
909.068	17680
909.184	17748
909.3	17771
909.415	17779
909.531	17680
909.647	17532
909.762	17524
909.878	17414
909.993	17402
910.108	17372
910.224	17315
910.339	17414
910.454	17269
910.57	17261
910.685	17117
910.8	17463
910.915	17402
911.03	17170
911.145	17010
911.259	16995
911.374	16961
911.489	16854
911.604	16744
911.718	16725
911.833	16660
911.947	16615
912.062	16500
912.176	16698
912.291	16786
912.405	16755
912.519	16862
912.633	16866
912.748	16687
912.862	16634
912.976	16531
913.09	16367
913.204	16462
913.318	16512
913.431	16645
913.545	16755
913.659	16584
913.772	16481
913.886	16291
914	16253
914.113	16386
914.226	16341
914.34	16333
914.453	16185
914.566	16287
914.68	16226
914.793	16131
914.906	16025
915.019	15865
915.132	15831
915.245	15854
915.358	15869
915.47	15842
915.583	15888
915.696	15899
915.809	16044
915.921	16112
916.034	15728
916.146	15759
916.259	15732
916.371	15930
916.483	15846
916.595	15679
916.708	15789
916.82	15732
916.932	15671
917.044	15663
917.156	15435
917.268	15553
917.38	15599
917.491	15530
917.603	15447
917.715	15614
917.826	15591
917.938	15370
918.049	15367
918.161	15386
918.272	15587
918.384	15576
918.495	15420
918.606	15321
918.717	15112
918.828	15180
918.939	15252
919.05	15154
919.161	15104
919.272	14998
919.383	15161
919.494	15302
919.604	15397
919.715	15135
919.826	15074
919.936	15097
920.047	15279
920.157	15157
920.267	15306
920.378	15150
920.488	15180
920.598	15268
920.708	15469
920.818	15340
920.928	15256
921.038	15450
921.148	15454
921.258	15085
921.368	14887
921.477	14868
921.587	14902
921.697	14800
921.806	14891
921.916	14667
922.025	14613
922.134	14556
922.244	14393
922.353	14518
922.462	14415
922.571	14339
922.68	14210
922.789	14202
922.898	14195
923.007	14164
923.116	14195
923.224	14180
923.333	14126
923.442	13978
923.55	13921
923.659	13997
923.767	14008
923.876	13959
923.984	13883
924.092	13894
924.201	13921
924.309	13890
924.417	13849
924.525	13696
924.633	13841
924.741	14511
924.849	13567
924.956	13791
925.064	13590
925.172	13464
925.279	13476
925.387	13594
925.494	13537
925.602	13651
925.709	13525
925.816	13396
925.924	13578
926.031	13502
926.138	13449
926.245	13548
926.352	13297
926.459	13499
926.566	13506
926.673	13377
926.779	13213
926.886	13244
926.993	13152
927.099	13080
927.206	13008
927.312	12962
927.419	13069
927.525	12951
927.631	13110
927.737	12996
927.843	12745
927.95	12802
928.056	12867
928.162	12848
928.267	12958
928.373	13480
928.479	12932
928.585	12734
928.69	12802
928.796	12833
928.901	12703
929.007	12494
929.112	12646
929.218	12692
929.323	12692
929.428	12623
929.533	12764
929.638	12521
929.743	12502
929.848	12479
929.953	12532
930.058	12452
930.163	12262
930.267	12323
930.372	12441
930.477	12186
930.581	12460
930.685	12254
930.79	12049
930.894	12155
930.998	12049
931.103	12194
931.207	11840
931.311	11729
931.415	11695
931.519	11497
931.623	11471
