Data from test_V78500241_3631.txt Node
Date: Fri Mar 25 16:06:57 CST 2022
User: usil
Spectrometer: V785-0024
Trigger mode: 0
Integration Time (sec): 4.000000E-1
Scans to average: 1
Nonlinearity correction enabled: false
Boxcar width: 0
Storing dark spectrum: false
XAxis mode: Wavelengths
Number of Pixels in Spectrum: 1024
>>>>>Begin Spectral Data<<<<<
801.071	28557
801.214	28535
801.356	28409
801.499	28360
801.641	28226
801.783	28078
801.926	28200
802.068	28200
802.211	28143
802.353	28188
802.496	27987
802.638	27918
802.78	27755
802.923	27850
803.065	27739
803.208	27831
803.35	27865
803.492	28059
803.635	28029
803.777	27949
803.919	28131
804.061	28375
804.204	28257
804.346	28204
804.488	28067
804.63	28105
804.773	28067
804.915	28120
805.057	28428
805.199	28215
805.341	28204
805.483	28360
805.626	28348
805.768	28249
805.91	28185
806.052	28215
806.194	28219
806.336	28557
806.478	28352
806.62	28318
806.762	28287
806.904	28668
807.046	28843
807.188	28493
807.33	28675
807.472	28923
807.614	28812
807.756	28801
807.898	28637
808.04	28565
808.182	28493
808.324	28554
808.465	28828
808.607	28687
808.749	28930
808.891	28972
809.033	29151
809.174	29086
809.316	28972
809.458	28984
809.6	28927
809.741	29067
809.883	29200
810.025	29261
810.166	29387
810.308	29322
810.45	29178
810.591	29094
810.733	29121
810.875	29086
811.016	28934
811.158	28869
811.299	29083
811.441	29162
811.582	28999
811.724	28900
811.865	28828
812.007	29025
812.148	28934
812.29	29102
812.431	29155
812.573	29311
812.714	29444
812.855	29455
812.997	29589
813.138	29847
813.279	29676
813.421	29611
813.562	29429
813.703	29193
813.845	29208
813.986	29025
814.127	28679
814.268	28660
814.41	28645
814.551	28672
814.692	28596
814.833	28729
814.974	28622
815.115	28725
815.256	28538
815.397	28554
815.539	28493
815.68	28523
815.821	28466
815.962	28649
816.103	28516
816.244	28329
816.385	28371
816.526	28360
816.666	28173
816.807	27922
816.948	28032
817.089	28169
817.23	27975
817.371	28036
817.512	28036
817.653	28036
817.793	28006
817.934	28074
818.075	28048
818.216	28067
818.356	27888
818.497	27892
818.638	27759
818.778	27728
818.919	27850
819.06	28032
819.2	27850
819.341	28082
819.481	27994
819.622	28139
819.762	28196
819.903	28314
820.043	28265
820.184	28055
820.324	28150
820.465	28128
820.605	28070
820.746	28029
820.886	28067
821.026	28067
821.167	28059
821.307	28139
821.447	28048
821.588	27979
821.728	27747
821.868	27682
822.008	27443
822.149	27526
822.289	27568
822.429	27226
822.569	27245
822.709	27203
822.849	27051
822.99	27051
823.13	26910
823.27	27028
823.41	26754
823.55	26735
823.69	26925
823.83	26845
823.97	26937
824.11	26568
824.25	26712
824.389	26583
824.529	26735
824.669	26560
824.809	26788
824.949	26701
825.089	26807
825.228	26609
825.368	26526
825.508	26564
825.648	26552
825.787	26526
825.927	26667
826.067	26450
826.206	26522
826.346	26522
826.485	26602
826.625	26560
826.765	26632
826.904	26537
827.044	26298
827.183	26339
827.323	26305
827.462	26362
827.601	26328
827.741	26221
827.88	26347
828.02	26081
828.159	26210
828.298	26298
828.437	26355
828.577	26290
828.716	26282
828.855	26161
828.994	26020
829.134	25925
829.273	26043
829.412	25868
829.551	25833
829.69	25932
829.829	26039
829.968	25963
830.107	25890
830.246	25871
830.385	25864
830.524	25887
830.663	25647
830.802	25655
830.941	25605
831.08	25419
831.219	25613
831.357	25514
831.496	25738
831.635	25590
831.774	25422
831.913	25388
832.051	25293
832.19	25244
832.329	25468
832.467	25175
832.606	25175
832.744	25091
832.883	25266
833.022	25381
833.16	25221
833.299	25118
833.437	25266
833.576	25381
833.714	25354
833.852	25373
833.991	25411
834.129	25377
834.267	25445
834.406	25221
834.544	25339
834.682	25324
834.821	25259
834.959	25476
835.097	25221
835.235	25278
835.373	25346
835.511	25175
835.65	25202
835.788	25228
835.926	24973
836.064	24970
836.202	25004
836.34	25209
836.478	25240
836.615	25122
836.753	25099
836.891	25217
837.029	25194
837.167	24951
837.305	24947
837.443	24848
837.58	25015
837.718	24920
837.856	25004
837.993	25004
838.131	24856
838.269	24787
838.406	24875
838.544	24863
838.681	24483
838.819	24486
838.956	24414
839.094	24460
839.231	24346
839.369	24620
839.506	24821
839.643	24700
839.781	24418
839.918	24414
840.055	24486
840.193	24327
840.33	24357
840.467	24334
840.604	24361
840.742	24589
840.879	24140
841.016	24232
841.153	24155
841.29	24350
841.427	24304
841.564	24365
841.701	24216
841.838	24270
841.975	24064
842.112	24296
842.249	24049
842.385	24133
842.522	24372
842.659	24060
842.796	24068
842.933	24155
843.069	23992
843.206	24038
843.343	23958
843.479	24007
843.616	24060
843.752	23866
843.889	23996
844.025	23969
844.162	23794
844.298	23901
844.435	23813
844.571	23840
844.708	23855
844.844	24129
844.98	23935
845.117	23980
845.253	23767
845.389	23676
845.525	23718
845.661	23729
845.798	23615
845.934	23699
846.07	23577
846.206	23634
846.342	23649
846.478	23535
846.614	23379
846.75	23174
846.886	23372
847.022	23296
847.158	23216
847.294	23383
847.429	23474
847.565	23216
847.701	23592
847.837	23090
847.972	22984
848.108	23052
848.244	22995
848.379	22869
848.515	22911
848.65	22767
848.786	22881
848.921	22908
849.057	22896
849.192	22972
849.328	22972
849.463	22900
849.598	22755
849.734	22729
849.869	22740
850.004	22645
850.14	22691
850.275	22573
850.41	22611
850.545	22516
850.68	22599
850.815	22748
850.95	22736
851.085	22892
851.22	22767
851.355	22618
851.49	22679
851.625	22706
851.76	22573
851.895	22645
852.03	22554
852.165	22653
852.299	22683
852.434	22660
852.569	22706
852.703	22519
852.838	22611
852.973	22710
853.107	22736
853.242	22478
853.376	22504
853.511	22310
853.645	22424
853.78	22603
853.914	22519
854.048	22356
854.183	22428
854.317	22546
854.451	22645
854.585	22474
854.72	22367
854.854	22493
854.988	22394
855.122	22485
855.256	22417
855.39	22443
855.524	22527
855.658	22550
855.792	22565
855.926	22485
856.06	22424
856.194	22493
856.327	22573
856.461	22443
856.595	22375
856.729	22493
856.862	22584
856.996	22447
857.13	22512
857.263	22386
857.397	22637
857.53	22527
857.664	22550
857.797	22603
857.931	22592
858.064	22504
858.197	22637
858.331	22603
858.464	22459
858.597	22371
858.731	22337
858.864	22413
858.997	22344
859.13	22440
859.263	22573
859.396	22500
859.529	22478
859.662	22230
859.795	22554
859.928	22409
860.061	22527
860.194	22653
860.327	22622
860.46	22588
860.592	22694
860.725	22653
860.858	22637
860.99	22500
861.123	22337
861.256	22295
861.388	22451
861.521	23140
861.653	22265
861.786	22306
861.918	22402
862.05	22421
862.183	22371
862.315	22398
862.447	22451
862.58	22333
862.712	22128
862.844	22185
862.976	22188
863.108	22223
863.24	22698
863.372	22097
863.504	22097
863.636	22181
863.768	22177
863.9	22131
864.032	22067
864.164	22082
864.296	22112
864.428	22196
864.559	22253
864.691	22154
864.823	22124
864.954	22086
865.086	21998
865.217	22131
865.349	22017
865.48	21960
865.612	22070
865.743	22257
865.875	21945
866.006	22093
866.137	21998
866.269	22188
866.4	22051
866.531	21994
866.662	21915
866.793	22036
866.924	21899
867.055	22021
867.186	21964
867.317	21998
867.448	21842
867.579	21907
867.71	21869
867.841	21781
867.972	22032
868.103	21911
868.233	21972
868.364	21953
868.495	22143
868.625	22325
868.756	22284
868.886	22173
869.017	22192
869.147	22310
869.278	22230
869.408	22238
869.539	22158
869.669	22314
869.799	22196
869.929	22322
870.06	22261
870.19	22531
870.32	22508
870.45	22565
870.58	22630
870.71	22725
870.84	22641
870.97	22675
871.1	22615
871.23	22854
871.36	22805
871.489	22710
871.619	22767
871.749	22957
871.879	22873
872.008	22923
872.138	22942
872.267	22797
872.397	22721
872.526	22641
872.656	22729
872.785	22596
872.915	23010
873.044	22812
873.173	22873
873.303	22820
873.432	22919
873.561	22797
873.69	22835
873.819	22885
873.948	22980
874.077	22843
874.206	22733
874.335	22938
874.464	23033
874.593	23094
874.722	23006
874.851	23060
874.979	23178
875.108	23102
875.237	23117
875.365	22953
875.494	23010
875.623	23151
875.751	23014
875.88	23071
876.008	23113
876.136	23216
876.265	23524
876.393	23623
876.521	23509
876.65	23543
876.778	23410
876.906	23364
877.034	23322
877.162	23429
877.29	23364
877.418	23376
877.546	23471
877.674	23436
877.802	23360
877.93	23212
878.058	23360
878.185	23322
878.313	23360
878.441	23368
878.568	23277
878.696	23315
878.824	23376
878.951	23474
879.079	23531
879.206	23748
879.333	23505
879.461	23478
879.588	23463
879.715	23395
879.842	23676
879.97	23482
880.097	23242
880.224	23151
880.351	23341
880.478	23208
880.605	23246
880.732	23235
880.859	23490
880.986	23246
881.112	23239
881.239	23064
881.366	22957
881.493	22938
881.619	22771
881.746	22790
881.872	22710
881.999	22691
882.125	22561
882.252	22744
882.378	22584
882.505	22930
882.631	22664
882.757	22481
882.883	22584
883.01	22451
883.136	22474
883.262	22310
883.388	22348
883.514	22557
883.64	22516
883.766	22382
883.892	22211
884.018	22230
884.143	22375
884.269	22443
884.395	22162
884.52	21968
884.646	22162
884.772	22078
884.897	21975
885.023	22116
885.148	22070
885.274	22310
885.399	22188
885.524	22074
885.65	22044
885.775	22013
885.9	22101
886.025	22169
886.15	22131
886.275	22032
886.4	21937
886.525	22093
886.65	21953
886.775	21907
886.9	22162
887.025	22265
887.149	22162
887.274	21915
887.399	21823
887.523	21880
887.648	21762
887.773	21724
887.897	21865
888.021	22006
888.146	21713
888.27	21956
888.395	21892
888.519	21732
888.643	21846
888.767	21922
888.891	21808
889.015	21648
889.139	21644
889.263	21671
889.387	21732
889.511	21728
889.635	21888
889.759	21641
889.883	21603
890.006	21717
890.13	21785
890.254	21583
890.377	21534
890.501	21386
890.624	21332
890.748	21519
890.871	21287
890.995	21207
891.118	21089
891.241	21199
891.364	21161
891.488	21317
891.611	21176
891.734	21176
891.857	21310
891.98	21173
892.103	21237
892.226	21256
892.349	21142
892.471	20963
892.594	21108
892.717	21062
892.839	21096
892.962	21169
893.085	21119
893.207	21192
893.33	20986
893.452	21077
893.575	21062
893.697	21089
893.819	21252
893.941	21272
894.064	21154
894.186	21123
894.308	20979
894.43	21100
894.552	21188
894.674	21252
894.796	20960
894.918	21009
895.04	21096
895.161	21131
895.283	21013
895.405	21005
895.526	21047
895.648	20941
895.769	21104
895.891	21119
896.012	21055
896.134	21062
896.255	20963
896.376	21085
896.498	21020
896.619	21104
896.74	21085
896.861	21104
896.982	21268
897.103	21587
897.224	21249
897.345	21336
897.466	21203
897.587	21249
897.708	21424
897.828	21310
897.949	21291
898.07	21093
898.19	21214
898.311	21310
898.431	21249
898.552	21370
898.672	21256
898.792	21245
898.913	21188
899.033	21112
899.153	20906
899.273	20815
899.393	21028
899.513	20933
899.633	21089
899.753	21039
899.873	20918
899.993	21017
900.113	20971
900.232	20864
900.352	20845
900.472	20857
900.591	20651
900.711	20716
900.83	20743
900.95	20910
901.069	20872
901.189	20613
901.308	20389
901.427	20275
901.546	20431
901.665	20476
901.784	20324
901.904	20282
902.023	20020
902.141	19944
902.26	19811
902.379	19906
902.498	19944
902.617	19719
902.735	19822
902.854	19841
902.973	19776
903.091	19499
903.21	19590
903.328	19521
903.446	19445
903.565	19365
903.683	19304
903.801	19145
903.919	19190
904.038	19247
904.156	19053
904.274	19129
904.392	19023
904.51	19088
904.627	18985
904.745	19110
904.863	19187
904.981	18825
905.098	18627
905.216	18719
905.334	18783
905.451	18791
905.569	18719
905.686	18764
905.803	18673
905.921	18509
906.038	18551
906.155	18471
906.272	18422
906.389	18506
906.506	18213
906.623	18133
906.74	18216
906.857	18159
906.974	18167
907.091	18190
907.208	18251
907.324	18296
907.441	18125
907.557	17996
907.674	18015
907.79	17882
907.907	17885
908.023	17935
908.139	17855
908.256	17828
908.372	17805
908.488	17874
908.604	17714
908.72	17646
908.836	17672
908.952	17627
909.068	17657
909.184	17707
909.3	17703
909.415	17646
909.531	17630
909.647	17490
909.762	17307
909.878	17391
909.993	17334
910.108	17353
910.224	17239
910.339	17288
910.454	17189
910.57	17162
910.685	17090
910.8	17345
910.915	17223
911.03	17102
911.145	16999
911.259	16949
911.374	16881
911.489	16771
911.604	16812
911.718	16615
911.833	16702
911.947	16645
912.062	16493
912.176	16577
912.291	16599
912.405	16573
912.519	16797
912.633	16873
912.748	16645
912.862	16660
912.976	16546
913.09	16360
913.204	16409
913.318	16519
913.431	16622
913.545	16615
913.659	16584
913.772	16504
913.886	16234
914	16265
914.113	16459
914.226	16413
914.34	16314
914.453	16196
914.566	16295
914.68	16143
914.793	16223
914.906	15945
915.019	15899
915.132	15759
915.245	15895
915.358	15895
915.47	15800
915.583	15869
915.696	15884
915.809	15960
915.921	15907
916.034	15880
916.146	15751
916.259	15751
916.371	15941
916.483	15781
916.595	15682
916.708	15576
916.82	15637
916.932	15679
917.044	15656
917.156	15515
917.268	15405
917.38	15485
917.491	15450
917.603	15450
917.715	15477
917.826	15614
917.938	15431
918.049	15332
918.161	15386
918.272	15580
918.384	15485
918.495	15443
918.606	15359
918.717	15173
918.828	15173
918.939	15203
919.05	15062
919.161	15222
919.272	15093
919.383	15081
919.494	15184
919.604	15393
919.715	15157
919.826	15051
919.936	15195
920.047	15226
920.157	15032
920.267	15348
920.378	15146
920.488	15043
920.598	15351
920.708	15386
920.818	15207
920.928	15241
921.038	15511
921.148	15420
921.258	15097
921.368	15104
921.477	14895
921.587	14979
921.697	14785
921.806	14819
921.916	14655
922.025	14667
922.134	14583
922.244	14473
922.353	14590
922.462	14427
922.571	14370
922.68	14092
922.789	14183
922.898	14142
923.007	14183
923.116	14218
923.224	14168
923.333	14107
923.442	14005
923.55	14005
923.659	14073
923.767	14024
923.876	13822
923.984	14054
924.092	13868
924.201	13868
924.309	13860
924.417	13833
924.525	13753
924.633	13818
924.741	14739
924.849	13620
924.956	13791
925.064	13571
925.172	13563
925.279	13590
925.387	13552
925.494	13609
925.602	13605
925.709	13594
925.816	13495
925.924	13476
926.031	13544
926.138	13521
926.245	13559
926.352	13430
926.459	13575
926.566	13590
926.673	13407
926.779	13358
926.886	13236
926.993	13099
927.099	13156
927.206	13084
927.312	13095
927.419	13187
927.525	13168
927.631	13103
927.737	13023
927.843	13000
927.95	12852
928.056	12977
928.162	12939
928.267	13034
928.373	13518
928.479	13000
928.585	12856
928.69	12920
928.796	12993
928.901	12798
929.007	12658
929.112	12760
929.218	12715
929.323	12650
929.428	12574
929.533	12753
929.638	12635
929.743	12536
929.848	12646
929.953	12589
930.058	12486
930.163	12304
930.267	12369
930.372	12456
930.477	12186
930.581	12479
930.685	12369
930.79	12220
930.894	12243
930.998	12254
931.103	12232
931.207	12015
931.311	11874
931.415	11771
931.519	11684
931.623	11566
