Data from test_V78500241_2774.txt Node
Date: Fri Mar 25 16:01:01 CST 2022
User: usil
Spectrometer: V785-0024
Trigger mode: 0
Integration Time (sec): 4.000000E-1
Scans to average: 1
Nonlinearity correction enabled: false
Boxcar width: 0
Storing dark spectrum: false
XAxis mode: Wavelengths
Number of Pixels in Spectrum: 1024
>>>>>Begin Spectral Data<<<<<
801.071	29113
801.214	29200
801.356	28934
801.499	28820
801.641	28675
801.783	28820
801.926	28782
802.068	28778
802.211	28706
802.353	28687
802.496	28493
802.638	28474
802.78	28618
802.923	28394
803.065	28447
803.208	28497
803.35	28478
803.492	28561
803.635	28710
803.777	28618
803.919	28816
804.061	29075
804.204	28888
804.346	28763
804.488	28653
804.63	28778
804.773	28630
804.915	28736
805.057	28877
805.199	28698
805.341	28759
805.483	29102
805.626	28942
805.768	28736
805.91	29064
806.052	29003
806.194	28763
806.336	29102
806.478	29033
806.62	28961
806.762	29029
806.904	29296
807.046	29414
807.188	29372
807.33	29360
807.472	29497
807.614	29277
807.756	29322
807.898	29223
808.04	29189
808.182	29239
808.324	29277
808.465	29330
808.607	29429
808.749	29604
808.891	29680
809.033	29798
809.174	29756
809.316	29558
809.458	29680
809.6	29649
809.741	29790
809.883	29714
810.025	29901
810.166	29988
810.308	29969
810.45	29882
810.591	29741
810.733	29699
810.875	29653
811.016	29577
811.158	29596
811.299	29851
811.441	29893
811.582	29885
811.724	29714
811.865	29687
812.007	29531
812.148	29642
812.29	29573
812.431	29760
812.573	30049
812.714	30201
812.855	30178
812.997	30346
813.138	30327
813.279	30471
813.421	30216
813.562	30178
813.703	30087
813.845	29798
813.986	29611
814.127	29531
814.268	29463
814.41	29433
814.551	29452
814.692	29543
814.833	29345
814.974	29337
815.115	29505
815.256	29273
815.397	29231
815.539	29284
815.68	29155
815.821	29086
815.962	29299
816.103	29258
816.244	29185
816.385	28953
816.526	28946
816.666	28824
816.807	28687
816.948	28854
817.089	28744
817.23	28702
817.371	28546
817.512	28637
817.653	28786
817.793	28634
817.934	28603
818.075	28713
818.216	28820
818.356	28702
818.497	28535
818.638	28333
818.778	28379
818.919	28405
819.06	28455
819.2	28748
819.341	28698
819.481	28710
819.622	28793
819.762	29014
819.903	29010
820.043	28824
820.184	28881
820.324	28904
820.465	28873
820.605	29029
820.746	28934
820.886	28626
821.026	28816
821.167	28668
821.307	28710
821.447	28763
821.588	28607
821.728	28481
821.868	28337
822.008	28135
822.149	28215
822.289	28139
822.429	27876
822.569	27831
822.709	27857
822.849	27831
822.99	27720
823.13	27679
823.27	27736
823.41	27450
823.55	27374
823.69	27587
823.83	27641
823.97	27447
824.11	27374
824.25	27363
824.389	27405
824.529	27549
824.669	27439
824.809	27485
824.949	27317
825.089	27485
825.228	27405
825.368	27336
825.508	27348
825.648	27268
825.787	27367
825.927	27382
826.067	27214
826.206	27226
826.346	27230
826.485	27336
826.625	27386
826.765	27435
826.904	27378
827.044	27096
827.183	26948
827.323	26910
827.462	27039
827.601	27100
827.741	27047
827.88	26971
828.02	27020
828.159	26982
828.298	27093
828.437	26960
828.577	26883
828.716	27112
828.855	26872
828.994	26762
829.134	26712
829.273	26819
829.412	26644
829.551	26545
829.69	26670
829.829	26533
829.968	26743
830.107	26693
830.246	26697
830.385	26625
830.524	26606
830.663	26404
830.802	26366
830.941	26336
831.08	26305
831.219	26370
831.357	26199
831.496	26469
831.635	26282
831.774	26107
831.913	26065
832.051	25997
832.19	26016
832.329	26153
832.467	26027
832.606	25959
832.744	25868
832.883	25989
833.022	25894
833.16	26050
833.299	26058
833.437	26005
833.576	25982
833.714	25986
833.852	26039
833.991	26027
834.129	26119
834.267	25993
834.406	25951
834.544	25974
834.682	25890
834.821	25989
834.959	26278
835.097	25993
835.235	26073
835.373	26111
835.511	26035
835.65	25871
835.788	25795
835.926	25685
836.064	25609
836.202	25708
836.34	25746
836.478	25978
836.615	25887
836.753	25887
836.891	25700
837.029	25841
837.167	25753
837.305	25841
837.443	25715
837.58	25647
837.718	25704
837.856	25700
837.993	25613
838.131	25506
838.269	25438
838.406	25510
838.544	25476
838.681	25343
838.819	25343
838.956	25202
839.094	25145
839.231	25141
839.369	25171
839.506	25514
839.643	25384
839.781	25171
839.918	25027
840.055	25099
840.193	25141
840.33	24909
840.467	25050
840.604	25126
840.742	25259
840.879	24817
841.016	24943
841.153	24840
841.29	25046
841.427	24962
841.564	25141
841.701	25110
841.838	25008
841.975	24943
842.112	24734
842.249	24871
842.385	24844
842.522	25122
842.659	24859
842.796	24848
842.933	24833
843.069	24703
843.206	24570
843.343	24878
843.479	24692
843.616	24772
843.752	24608
843.889	24604
844.025	24631
844.162	24669
844.298	24654
844.435	24544
844.571	24486
844.708	24585
844.844	24768
844.98	24753
845.117	24661
845.253	24547
845.389	24441
845.525	24544
845.661	24486
845.798	24338
845.934	24308
846.07	24197
846.206	24380
846.342	24376
846.478	24273
846.614	24064
846.75	24030
846.886	23973
847.022	24057
847.158	24022
847.294	23935
847.429	23973
847.565	24026
847.701	24266
847.837	23752
847.972	23710
848.108	23809
848.244	23783
848.379	23474
848.515	23535
848.65	23600
848.786	23478
848.921	23596
849.057	23726
849.192	23623
849.328	23657
849.463	23608
849.598	23493
849.734	23570
849.869	23425
850.004	23311
850.14	23364
850.275	23379
850.41	23356
850.545	23299
850.68	23341
850.815	23353
850.95	23379
851.085	23467
851.22	23383
851.355	23364
851.49	23364
851.625	23242
851.76	23265
851.895	23231
852.03	23227
852.165	23311
852.299	23311
852.434	23474
852.569	23254
852.703	23299
852.838	23467
852.973	23448
853.107	23425
853.242	23296
853.376	23147
853.511	22991
853.645	23151
853.78	23288
853.914	23231
854.048	23151
854.183	23162
854.317	23296
854.451	23376
854.585	22999
854.72	23216
854.854	23307
854.988	23086
855.122	23113
855.256	23090
855.39	23200
855.524	23212
855.658	23223
855.792	23261
855.926	23280
856.06	23113
856.194	23239
856.327	23147
856.461	23022
856.595	23060
856.729	23155
856.862	23242
856.996	23102
857.13	23162
857.263	23170
857.397	23372
857.53	23132
857.664	23284
857.797	23121
857.931	23277
858.064	23193
858.197	23334
858.331	23170
858.464	22995
858.597	23029
858.731	23159
858.864	23060
858.997	23079
859.13	23109
859.263	23189
859.396	23273
859.529	23109
859.662	23033
859.795	23181
859.928	23086
860.061	23288
860.194	23261
860.327	23193
860.46	23204
860.592	23239
860.725	23284
860.858	23254
860.99	23090
861.123	22999
861.256	22980
861.388	23189
861.521	23840
861.653	23006
861.786	22915
861.918	22957
862.05	22854
862.183	23090
862.315	23109
862.447	23136
862.58	23090
862.712	22946
862.844	22904
862.976	22911
863.108	22889
863.24	23337
863.372	22923
863.504	22843
863.636	22778
863.768	22938
863.9	22896
864.032	22934
864.164	22976
864.296	22896
864.428	22904
864.559	22889
864.691	23003
864.823	22797
864.954	22755
865.086	22858
865.217	22733
865.349	22630
865.48	22736
865.612	22683
865.743	22816
865.875	22740
866.006	22535
866.137	22782
866.269	22736
866.4	22710
866.531	22607
866.662	22546
866.793	22786
866.924	22679
867.055	22592
867.186	22630
867.317	22603
867.448	22470
867.579	22645
867.71	22519
867.841	22497
867.972	22740
868.103	22554
868.233	22710
868.364	22679
868.495	22675
868.625	22892
868.756	22991
868.886	22881
869.017	22911
869.147	23044
869.278	23025
869.408	22892
869.539	22942
869.669	23033
869.799	22946
869.929	22930
870.06	22949
870.19	23204
870.32	23155
870.45	23288
870.58	23391
870.71	23387
870.84	23531
870.97	23250
871.1	23273
871.23	23433
871.36	23440
871.489	23322
871.619	23444
871.749	23429
871.879	23535
872.008	23653
872.138	23493
872.267	23547
872.397	23303
872.526	23277
872.656	23311
872.785	23353
872.915	23528
873.044	23486
873.173	23486
873.303	23516
873.432	23585
873.561	23707
873.69	23570
873.819	23467
873.948	23589
874.077	23570
874.206	23436
874.335	23429
874.464	23642
874.593	23771
874.722	23699
874.851	23786
874.979	23661
875.108	23889
875.237	23726
875.365	23547
875.494	23726
875.623	23847
875.751	23608
875.88	23649
876.008	23882
876.136	23855
876.265	24060
876.393	24228
876.521	24197
876.65	24220
876.778	24091
876.906	24155
877.034	23893
877.162	24072
877.29	23969
877.418	24011
877.546	24064
877.674	24018
877.802	24110
877.93	24022
878.058	24007
878.185	23969
878.313	23920
878.441	23885
878.568	23893
878.696	23942
878.824	24079
878.951	24083
879.079	24057
879.206	24338
879.333	24155
879.461	24140
879.588	24171
879.715	24224
879.842	24247
879.97	24133
880.097	23817
880.224	23889
880.351	23893
880.478	23805
880.605	23824
880.732	23817
880.859	24140
880.986	23866
881.112	23863
881.239	23752
881.366	23604
881.493	23433
881.619	23459
881.746	23592
881.872	23345
881.999	23455
882.125	23414
882.252	23417
882.378	23345
882.505	23539
882.631	23303
882.757	23090
882.883	23166
883.01	23067
883.136	23113
883.262	22927
883.388	22934
883.514	23048
883.64	23071
883.766	23086
883.892	22892
884.018	22942
884.143	22972
884.269	23044
884.395	22835
884.52	22660
884.646	22733
884.772	22649
884.897	22588
885.023	22740
885.148	22748
885.274	22706
885.399	22721
885.524	22740
885.65	22729
885.775	22706
885.9	22660
886.025	22847
886.15	22805
886.275	22675
886.4	22653
886.525	22508
886.65	22645
886.775	22634
886.9	22755
887.025	22748
887.149	22653
887.274	22459
887.399	22474
887.523	22500
887.648	22421
887.773	22329
887.897	22375
888.021	22493
888.146	22390
888.27	22485
888.395	22569
888.519	22538
888.643	22413
888.767	22584
888.891	22363
889.015	22333
889.139	22375
889.263	22230
889.387	22268
889.511	22455
889.635	22360
889.759	22185
889.883	22090
890.006	22177
890.13	22329
890.254	22070
890.377	22169
890.501	22036
890.624	21949
890.748	22086
890.871	21831
890.995	21671
891.118	21587
891.241	21682
891.364	21728
891.488	22025
891.611	21736
891.734	21724
891.857	21797
891.98	21751
892.103	21888
892.226	21724
892.349	21778
892.471	21530
892.594	21603
892.717	21637
892.839	21583
892.962	21717
893.085	21652
893.207	21561
893.33	21610
893.452	21572
893.575	21557
893.697	21671
893.819	21827
893.941	21918
894.064	21854
894.186	21507
894.308	21481
894.43	21694
894.552	21759
894.674	21789
894.796	21511
894.918	21542
895.04	21648
895.161	21781
895.283	21675
895.405	21705
895.526	21515
895.648	21549
895.769	21671
895.891	21709
896.012	21709
896.134	21755
896.255	21629
896.376	21462
896.498	21622
896.619	21526
896.74	21576
896.861	21663
896.982	21884
897.103	22086
897.224	21895
897.345	21876
897.466	21717
897.587	21998
897.708	22006
897.828	21835
897.949	21800
898.07	21633
898.19	21675
898.311	21842
898.431	21644
898.552	21751
898.672	21895
898.792	21876
898.913	21724
899.033	21724
899.153	21545
899.273	21507
899.393	21511
899.513	21534
899.633	21496
899.753	21557
899.873	21469
899.993	21439
900.113	21500
900.232	21603
900.352	21466
900.472	21420
900.591	21397
900.711	21370
900.83	21310
900.95	21294
901.069	21310
901.189	21203
901.308	20910
901.427	20857
901.546	20811
901.665	20819
901.784	20906
901.904	20674
902.023	20659
902.141	20446
902.26	20442
902.379	20484
902.498	20298
902.617	20374
902.735	20366
902.854	20317
902.973	20191
903.091	20065
903.21	20058
903.328	19864
903.446	19913
903.565	19826
903.683	19807
903.801	19689
903.919	19715
904.038	19700
904.156	19518
904.274	19567
904.392	19411
904.51	19460
904.627	19407
904.745	19525
904.863	19635
904.981	19244
905.098	19194
905.216	19145
905.334	19282
905.451	19152
905.569	19110
905.686	19274
905.803	19168
905.921	18962
906.038	19012
906.155	19076
906.272	18783
906.389	18837
906.506	18688
906.623	18738
906.74	18768
906.857	18608
906.974	18665
907.091	18757
907.208	18825
907.324	18741
907.441	18589
907.557	18445
907.674	18483
907.79	18334
907.907	18460
908.023	18418
908.139	18414
908.256	18410
908.372	18285
908.488	18266
908.604	18254
908.72	18182
908.836	18129
908.952	18182
909.068	18209
909.184	18209
909.3	18057
909.415	18110
909.531	18098
909.647	17927
909.762	17802
909.878	17775
909.993	17847
910.108	17775
910.224	17836
910.339	17771
910.454	17668
910.57	17646
910.685	17623
910.8	17710
910.915	17802
911.03	17710
911.145	17478
911.259	17459
911.374	17410
911.489	17429
911.604	17242
911.718	17166
911.833	17208
911.947	17128
912.062	16930
912.176	17200
912.291	17155
912.405	17174
912.519	17398
912.633	17307
912.748	17117
912.862	17151
912.976	16843
913.09	16858
913.204	16877
913.318	16953
913.431	17060
913.545	17014
913.659	16991
913.772	16843
913.886	16755
914	16805
914.113	16793
914.226	16790
914.34	16706
914.453	16637
914.566	16774
914.68	16729
914.793	16618
914.906	16337
915.019	16295
915.132	16185
915.245	16390
915.358	16325
915.47	16318
915.583	16303
915.696	16238
915.809	16341
915.921	16409
916.034	16253
916.146	16215
916.259	16051
916.371	16253
916.483	16196
916.595	16120
916.708	16185
916.82	16112
916.932	16158
917.044	16044
917.156	16025
917.268	15895
917.38	15876
917.491	15930
917.603	15903
917.715	15975
917.826	15930
917.938	15865
918.049	15804
918.161	15857
918.272	15930
918.384	15983
918.495	15781
918.606	15641
918.717	15564
918.828	15564
918.939	15622
919.05	15488
919.161	15553
919.272	15435
919.383	15458
919.494	15660
919.604	15899
919.715	15637
919.826	15580
919.936	15534
920.047	15622
920.157	15549
920.267	15819
920.378	15580
920.488	15511
920.598	15793
920.708	15884
920.818	15743
920.928	15584
921.038	15785
921.148	15755
921.258	15568
921.368	15450
921.477	15367
921.587	15249
921.697	15199
921.806	15268
921.916	15108
922.025	14998
922.134	14986
922.244	14845
922.353	14933
922.462	14792
922.571	14731
922.68	14530
922.789	14537
922.898	14579
923.007	14457
923.116	14552
923.224	14556
923.333	14549
923.442	14355
923.55	14374
923.659	14450
923.767	14556
923.876	14305
923.984	14457
924.092	14278
924.201	14305
924.309	14218
924.417	14263
924.525	14206
924.633	14202
924.741	15146
924.849	14043
924.956	14153
925.064	14039
925.172	13856
925.279	13811
925.387	13978
925.494	13978
925.602	13986
925.709	13894
925.816	13719
925.924	13830
926.031	14016
926.138	13830
926.245	13822
926.352	13807
926.459	13982
926.566	13959
926.673	13864
926.779	13708
926.886	13685
926.993	13499
927.099	13388
927.206	13430
927.312	13407
927.419	13506
927.525	13365
927.631	13495
927.737	13331
927.843	13327
927.95	13247
928.056	13202
928.162	13320
928.267	13339
928.373	13864
928.479	13289
928.585	13053
928.69	13190
928.796	13217
928.901	13160
929.007	12947
929.112	13012
929.218	13118
929.323	13065
929.428	12947
929.533	13053
929.638	12856
929.743	12962
929.848	12905
929.953	12890
930.058	12825
930.163	12616
930.267	12642
930.372	12669
930.477	12559
930.581	12798
930.685	12677
930.79	12494
930.894	12555
930.998	12479
931.103	12585
931.207	12194
931.311	12182
931.415	11977
931.519	11821
931.623	11771
