Data from test_V78500241_3481.txt Node
Date: Fri Mar 25 16:05:54 CST 2022
User: usil
Spectrometer: V785-0024
Trigger mode: 0
Integration Time (sec): 4.000000E-1
Scans to average: 1
Nonlinearity correction enabled: false
Boxcar width: 0
Storing dark spectrum: false
XAxis mode: Wavelengths
Number of Pixels in Spectrum: 1024
>>>>>Begin Spectral Data<<<<<
801.071	29022
801.214	29075
801.356	28729
801.499	28763
801.641	28592
801.783	28698
801.926	28797
802.068	28736
802.211	28675
802.353	28672
802.496	28360
802.638	28554
802.78	28261
802.923	28394
803.065	28390
803.208	28390
803.35	28462
803.492	28550
803.635	28679
803.777	28489
803.919	28702
804.061	28965
804.204	28637
804.346	28664
804.488	28622
804.63	28634
804.773	28687
804.915	28790
805.057	28733
805.199	28527
805.341	28672
805.483	28938
805.626	28866
805.768	28812
805.91	28744
806.052	28892
806.194	28843
806.336	28965
806.478	28965
806.62	28892
806.762	29052
806.904	29143
807.046	29554
807.188	29375
807.33	29356
807.472	29265
807.614	29296
807.756	29341
807.898	29143
808.04	29075
808.182	29239
808.324	29151
808.465	29269
808.607	29284
808.749	29554
808.891	29615
809.033	29539
809.174	29646
809.316	29577
809.458	29524
809.6	29463
809.741	29668
809.883	29733
810.025	29840
810.166	29904
810.308	29859
810.45	29707
810.591	29775
810.733	29691
810.875	29615
811.016	29558
811.158	29471
811.299	29608
811.441	29661
811.582	29813
811.724	29623
811.865	29531
812.007	29562
812.148	29699
812.29	29585
812.431	29748
812.573	29901
812.714	29912
812.855	30087
812.997	30186
813.138	30346
813.279	30182
813.421	30049
813.562	29965
813.703	29897
813.845	29741
813.986	29531
814.127	29292
814.268	29433
814.41	29254
814.551	29258
814.692	29364
814.833	29246
814.974	29151
815.115	29414
815.256	29128
815.397	29178
815.539	29143
815.68	28965
815.821	29029
815.962	29220
816.103	28999
816.244	28934
816.385	28858
816.526	28866
816.666	28744
816.807	28527
816.948	28721
817.089	28767
817.23	28577
817.371	28561
817.512	28596
817.653	28580
817.793	28451
817.934	28615
818.075	28611
818.216	28546
818.356	28615
818.497	28573
818.638	28474
818.778	28523
818.919	28421
819.06	28401
819.2	28622
819.341	28546
819.481	28523
819.622	28820
819.762	28995
819.903	29003
820.043	28786
820.184	28839
820.324	28698
820.465	28919
820.605	28691
820.746	28839
820.886	28694
821.026	28729
821.167	28790
821.307	28824
821.447	28748
821.588	28649
821.728	28447
821.868	28379
822.008	28207
822.149	28139
822.289	28257
822.429	27831
822.569	27774
822.709	27785
822.849	27690
822.99	27667
823.13	27705
823.27	27534
823.41	27439
823.55	27370
823.69	27549
823.83	27416
823.97	27477
824.11	27298
824.25	27230
824.389	27359
824.529	27412
824.669	27264
824.809	27431
824.949	27363
825.089	27348
825.228	27272
825.368	27192
825.508	27161
825.648	27184
825.787	27252
825.927	27245
826.067	27169
826.206	27249
826.346	27306
826.485	27264
826.625	27199
826.765	27340
826.904	27222
827.044	27043
827.183	26921
827.323	26952
827.462	26986
827.601	27051
827.741	26918
827.88	26944
828.02	26769
828.159	26876
828.298	26883
828.437	26990
828.577	26823
828.716	26940
828.855	26773
828.994	26697
829.134	26689
829.273	26659
829.412	26579
829.551	26522
829.69	26632
829.829	26602
829.968	26678
830.107	26701
830.246	26522
830.385	26598
830.524	26640
830.663	26385
830.802	26298
830.941	26111
831.08	26195
831.219	26324
831.357	26183
831.496	26381
831.635	26290
831.774	26119
831.913	26142
832.051	26005
832.19	25906
832.329	26027
832.467	25841
832.606	25894
832.744	25826
832.883	25742
833.022	25811
833.16	25902
833.299	25966
833.437	25925
833.576	25940
833.714	25947
833.852	25970
833.991	25936
834.129	26008
834.267	26081
834.406	25978
834.544	26073
834.682	25963
834.821	25947
834.959	26024
835.097	25970
835.235	25913
835.373	25811
835.511	25883
835.65	25746
835.788	25837
835.926	25635
836.064	25422
836.202	25696
836.34	25753
836.478	25776
836.615	25799
836.753	25731
836.891	25883
837.029	25719
837.167	25776
837.305	25708
837.443	25567
837.58	25540
837.718	25639
837.856	25658
837.993	25586
838.131	25563
838.269	25499
838.406	25324
838.544	25438
838.681	25259
838.819	25221
838.956	25080
839.094	25084
839.231	25050
839.369	25217
839.506	25434
839.643	25308
839.781	24897
839.918	24985
840.055	25038
840.193	24996
840.33	24992
840.467	24943
840.604	25114
840.742	25171
840.879	24665
841.016	24871
841.153	24814
841.29	25133
841.427	24852
841.564	24928
841.701	24890
841.838	24909
841.975	24886
842.112	24772
842.249	24654
842.385	24692
842.522	24943
842.659	24757
842.796	24681
842.933	24715
843.069	24585
843.206	24707
843.343	24692
843.479	24806
843.616	24715
843.752	24460
843.889	24582
844.025	24661
844.162	24483
844.298	24498
844.435	24494
844.571	24441
844.708	24494
844.844	24589
844.98	24525
845.117	24616
845.253	24494
845.389	24292
845.525	24407
845.661	24384
845.798	24197
845.934	24136
846.07	24262
846.206	24235
846.342	24353
846.478	24220
846.614	24114
846.75	23958
846.886	23950
847.022	24076
847.158	23939
847.294	24038
847.429	23946
847.565	23775
847.701	24178
847.837	23551
847.972	23566
848.108	23737
848.244	23718
848.379	23630
848.515	23440
848.65	23482
848.786	23558
848.921	23562
849.057	23531
849.192	23608
849.328	23501
849.463	23493
849.598	23379
849.734	23360
849.869	23463
850.004	23269
850.14	23341
850.275	23395
850.41	23136
850.545	23368
850.68	23189
850.815	23318
850.95	23265
851.085	23356
851.22	23471
851.355	23322
851.49	23254
851.625	23231
851.76	23299
851.895	23254
852.03	23349
852.165	23376
852.299	23360
852.434	23349
852.569	23372
852.703	23292
852.838	23318
852.973	23322
853.107	23360
853.242	23147
853.376	23124
853.511	23010
853.645	23102
853.78	23200
853.914	23029
854.048	23170
854.183	23083
854.317	23178
854.451	23147
854.585	23109
854.72	22984
854.854	23204
854.988	23200
855.122	23174
855.256	22934
855.39	23109
855.524	23242
855.658	23193
855.792	23147
855.926	23151
856.06	23094
856.194	23151
856.327	23067
856.461	23052
856.595	23018
856.729	23090
856.862	23258
856.996	23143
857.13	23117
857.263	23200
857.397	23208
857.53	23041
857.664	23067
857.797	23269
857.931	23136
858.064	23181
858.197	23178
858.331	23140
858.464	23048
858.597	23022
858.731	22987
858.864	23022
858.997	23025
859.13	23121
859.263	23155
859.396	23140
859.529	23079
859.662	23083
859.795	23037
859.928	23102
860.061	23212
860.194	23318
860.327	23235
860.46	23124
860.592	23254
860.725	23254
860.858	23197
860.99	23121
861.123	23044
861.256	22957
861.388	23086
861.521	23741
861.653	22984
861.786	22748
861.918	23010
862.05	22915
862.183	22911
862.315	22930
862.447	23041
862.58	23025
862.712	22904
862.844	22653
862.976	22889
863.108	22953
863.24	23117
863.372	22641
863.504	22782
863.636	22831
863.768	22896
863.9	22816
864.032	22713
864.164	22786
864.296	22839
864.428	22904
864.559	22847
864.691	22854
864.823	22698
864.954	22843
865.086	22687
865.217	22721
865.349	22573
865.48	22649
865.612	22736
865.743	22706
865.875	22660
866.006	22611
866.137	22675
866.269	22611
866.4	22577
866.531	22645
866.662	22649
866.793	22588
866.924	22653
867.055	22508
867.186	22664
867.317	22675
867.448	22550
867.579	22500
867.71	22466
867.841	22592
867.972	22596
868.103	22546
868.233	22649
868.364	22565
868.495	22519
868.625	22809
868.756	22995
868.886	22672
869.017	22850
869.147	22900
869.278	22824
869.408	22820
869.539	22877
869.669	22934
869.799	22828
869.929	22980
870.06	22965
870.19	23128
870.32	23105
870.45	23197
870.58	23121
870.71	23277
870.84	23334
870.97	23162
871.1	23284
871.23	23463
871.36	23368
871.489	23341
871.619	23307
871.749	23425
871.879	23452
872.008	23573
872.138	23486
872.267	23383
872.397	23235
872.526	23098
872.656	23334
872.785	23185
872.915	23452
873.044	23501
873.173	23406
873.303	23433
873.432	23406
873.561	23573
873.69	23410
873.819	23467
873.948	23528
874.077	23520
874.206	23353
874.335	23429
874.464	23554
874.593	23611
874.722	23592
874.851	23562
874.979	23585
875.108	23596
875.237	23535
875.365	23573
875.494	23676
875.623	23771
875.751	23608
875.88	23752
876.008	23630
876.136	23866
876.265	24106
876.393	24079
876.521	24182
876.65	24068
876.778	24030
876.906	24003
877.034	23961
877.162	24072
877.29	23874
877.418	24045
877.546	24072
877.674	23935
877.802	23828
877.93	23916
878.058	23961
878.185	23752
878.313	23904
878.441	23931
878.568	23809
878.696	24015
878.824	24083
878.951	24140
879.079	24091
879.206	24323
879.333	24060
879.461	24007
879.588	23980
879.715	24174
879.842	24403
879.97	23996
880.097	23771
880.224	23843
880.351	23836
880.478	23885
880.605	23771
880.732	23870
880.859	24045
880.986	23748
881.112	23882
881.239	23630
881.366	23478
881.493	23493
881.619	23493
881.746	23486
881.872	23337
881.999	23303
882.125	23235
882.252	23440
882.378	23334
882.505	23463
882.631	23193
882.757	23174
882.883	22957
883.01	23098
883.136	22976
883.262	22873
883.388	22767
883.514	22873
883.64	23033
883.766	22919
883.892	22816
884.018	22850
884.143	22828
884.269	22957
884.395	22866
884.52	22713
884.646	22702
884.772	22607
884.897	22557
885.023	22668
885.148	22713
885.274	22729
885.399	22717
885.524	22664
885.65	22675
885.775	22637
885.9	22675
886.025	22599
886.15	22542
886.275	22577
886.4	22599
886.525	22672
886.65	22603
886.775	22466
886.9	22649
887.025	22820
887.149	22588
887.274	22497
887.399	22424
887.523	22276
887.648	22276
887.773	22337
887.897	22535
888.021	22295
888.146	22295
888.27	22478
888.395	22512
888.519	22417
888.643	22379
888.767	22466
888.891	22314
889.015	22162
889.139	22272
889.263	22177
889.387	22276
889.511	22352
889.635	22287
889.759	22147
889.883	22181
890.006	22223
890.13	22390
890.254	22124
890.377	22246
890.501	21800
890.624	21827
890.748	21960
890.871	21816
890.995	21641
891.118	21580
891.241	21789
891.364	21774
891.488	21789
891.611	21770
891.734	21755
891.857	21629
891.98	21720
892.103	21766
892.226	21770
892.349	21648
892.471	21530
892.594	21515
892.717	21781
892.839	21679
892.962	21580
893.085	21564
893.207	21591
893.33	21488
893.452	21534
893.575	21755
893.697	21557
893.819	21789
893.941	21831
894.064	21751
894.186	21519
894.308	21580
894.43	21797
894.552	21705
894.674	21667
894.796	21511
894.918	21595
895.04	21454
895.161	21717
895.283	21553
895.405	21447
895.526	21603
895.648	21500
895.769	21652
895.891	21576
896.012	21686
896.134	21675
896.255	21580
896.376	21526
896.498	21561
896.619	21660
896.74	21454
896.861	21682
896.982	21937
897.103	22120
897.224	21781
897.345	21698
897.466	21705
897.587	21827
897.708	21857
897.828	21800
897.949	21720
898.07	21526
898.19	21736
898.311	21682
898.431	21747
898.552	21781
898.672	21926
898.792	21789
898.913	21785
899.033	21625
899.153	21557
899.273	21507
899.393	21496
899.513	21477
899.633	21603
899.753	21397
899.873	21408
899.993	21500
900.113	21435
900.232	21447
900.352	21348
900.472	21272
900.591	21226
900.711	21214
900.83	21256
900.95	21233
901.069	21317
901.189	21036
901.308	20872
901.427	20758
901.546	20754
901.665	20811
901.784	20891
901.904	20708
902.023	20473
902.141	20514
902.26	20427
902.379	20347
902.498	20271
902.617	20267
902.735	20355
902.854	20389
902.973	20138
903.091	20043
903.21	20001
903.328	19822
903.446	19799
903.565	19761
903.683	19803
903.801	19594
903.919	19601
904.038	19586
904.156	19499
904.274	19601
904.392	19426
904.51	19514
904.627	19487
904.745	19483
904.863	19544
904.981	19228
905.098	19259
905.216	19183
905.334	19129
905.451	19171
905.569	19148
905.686	19160
905.803	19183
905.921	19061
906.038	19050
906.155	19046
906.272	18924
906.389	18833
906.506	18700
906.623	18620
906.74	18635
906.857	18627
906.974	18479
907.091	18787
907.208	18863
907.324	18669
907.441	18601
907.557	18467
907.674	18395
907.79	18262
907.907	18308
908.023	18365
908.139	18369
908.256	18353
908.372	18273
908.488	18330
908.604	18228
908.72	18038
908.836	18190
908.952	18190
909.068	18102
909.184	18243
909.3	18144
909.415	18190
909.531	18049
909.647	17821
909.762	17752
909.878	17813
909.993	17695
910.108	17729
910.224	17824
910.339	17737
910.454	17726
910.57	17585
910.685	17486
910.8	17802
910.915	17733
911.03	17573
911.145	17387
911.259	17379
911.374	17322
911.489	17208
911.604	17250
911.718	17086
911.833	17235
911.947	17109
912.062	16911
912.176	17033
912.291	17151
912.405	17071
912.519	17383
912.633	17277
912.748	17128
912.862	17094
912.976	16938
913.09	16900
913.204	16847
913.318	16862
913.431	16995
913.545	17033
913.659	16995
913.772	16797
913.886	16721
914	16672
914.113	16771
914.226	16862
914.34	16706
914.453	16538
914.566	16793
914.68	16599
914.793	16516
914.906	16280
915.019	16249
915.132	16188
915.245	16223
915.358	16295
915.47	16268
915.583	16242
915.696	16295
915.809	16337
915.921	16405
916.034	16154
916.146	16200
916.259	16044
916.371	16162
916.483	16261
916.595	16002
916.708	16128
916.82	16143
916.932	16059
917.044	16029
917.156	15972
917.268	15922
917.38	15922
917.491	15789
917.603	15774
917.715	15850
917.826	15922
917.938	15816
918.049	15759
918.161	15785
918.272	15895
918.384	15937
918.495	15667
918.606	15568
918.717	15526
918.828	15614
918.939	15610
919.05	15553
919.161	15629
919.272	15405
919.383	15367
919.494	15629
919.604	15739
919.715	15663
919.826	15428
919.936	15488
920.047	15667
920.157	15599
920.267	15667
920.378	15504
920.488	15458
920.598	15717
920.708	15789
920.818	15751
920.928	15545
921.038	15816
921.148	15762
921.258	15424
921.368	15378
921.477	15329
921.587	15294
921.697	15169
921.806	15272
921.916	15097
922.025	14975
922.134	14952
922.244	14842
922.353	14982
922.462	14743
922.571	14678
922.68	14575
922.789	14507
922.898	14545
923.007	14507
923.116	14594
923.224	14484
923.333	14537
923.442	14366
923.55	14476
923.659	14370
923.767	14366
923.876	14328
923.984	14362
924.092	14244
924.201	14237
924.309	14225
924.417	14229
924.525	14168
924.633	14221
924.741	14891
924.849	14062
924.956	14081
925.064	13963
925.172	13890
925.279	13959
925.387	13887
925.494	13970
925.602	13928
925.709	13887
925.816	13788
925.924	13731
926.031	13868
926.138	13799
926.245	13902
926.352	13689
926.459	13837
926.566	13795
926.673	13647
926.779	13658
926.886	13601
926.993	13476
927.099	13415
927.206	13339
927.312	13422
927.419	13426
927.525	13331
927.631	13358
927.737	13278
927.843	13247
927.95	13160
928.056	13202
928.162	13110
928.267	13225
928.373	13818
928.479	13282
928.585	13072
928.69	13217
928.796	13137
928.901	13015
929.007	12897
929.112	12989
929.218	12939
929.323	13008
929.428	12909
929.533	13034
929.638	12817
929.743	12905
929.848	12867
929.953	12844
930.058	12814
930.163	12608
930.267	12551
930.372	12753
930.477	12578
930.581	12787
930.685	12654
930.79	12437
930.894	12513
930.998	12422
931.103	12566
931.207	12182
931.311	12079
931.415	12030
931.519	11813
931.623	11855
