Data from test_V78500241_2818.txt Node
Date: Fri Mar 25 16:01:19 CST 2022
User: usil
Spectrometer: V785-0024
Trigger mode: 0
Integration Time (sec): 4.000000E-1
Scans to average: 1
Nonlinearity correction enabled: false
Boxcar width: 0
Storing dark spectrum: false
XAxis mode: Wavelengths
Number of Pixels in Spectrum: 1024
>>>>>Begin Spectral Data<<<<<
801.071	29086
801.214	28946
801.356	28672
801.499	28668
801.641	28557
801.783	28615
801.926	28641
802.068	28672
802.211	28519
802.353	28500
802.496	28249
802.638	28295
802.78	28207
802.923	28204
803.065	28204
803.208	28295
803.35	28322
803.492	28424
803.635	28599
803.777	28344
803.919	28546
804.061	28831
804.204	28618
804.346	28401
804.488	28527
804.63	28596
804.773	28447
804.915	28660
805.057	28645
805.199	28519
805.341	28649
805.483	28668
805.626	28504
805.768	28580
805.91	28831
806.052	28786
806.194	28664
806.336	28801
806.478	28706
806.62	28767
806.762	28892
806.904	28881
807.046	29429
807.188	29189
807.33	29159
807.472	29330
807.614	29117
807.756	29178
807.898	29159
808.04	28919
808.182	28972
808.324	29018
808.465	29254
808.607	29254
808.749	29402
808.891	29459
809.033	29642
809.174	29585
809.316	29326
809.458	29463
809.6	29353
809.741	29600
809.883	29592
810.025	29771
810.166	29745
810.308	29729
810.45	29638
810.591	29604
810.733	29444
810.875	29566
811.016	29337
811.158	29395
811.299	29433
811.441	29649
811.582	29661
811.724	29558
811.865	29509
812.007	29425
812.148	29414
812.29	29535
812.431	29577
812.573	29828
812.714	29893
812.855	29996
812.997	30041
813.138	30163
813.279	30087
813.421	29980
813.562	29779
813.703	29836
813.845	29634
813.986	29375
814.127	29258
814.268	29193
814.41	29189
814.551	29258
814.692	29227
814.833	29223
814.974	29067
815.115	29166
815.256	28942
815.397	28991
815.539	29079
815.68	28915
815.821	29018
815.962	29064
816.103	28946
816.244	28771
816.385	28626
816.526	28729
816.666	28565
816.807	28462
816.948	28459
817.089	28508
817.23	28519
817.371	28508
817.512	28382
817.653	28485
817.793	28531
817.934	28485
818.075	28493
818.216	28455
818.356	28478
818.497	28390
818.638	28200
818.778	28291
818.919	28386
819.06	28390
819.2	28462
819.341	28440
819.481	28546
819.622	28630
819.762	28953
819.903	28828
820.043	28755
820.184	28679
820.324	28615
820.465	28725
820.605	28596
820.746	28451
820.886	28466
821.026	28672
821.167	28542
821.307	28710
821.447	28618
821.588	28470
821.728	28238
821.868	28154
822.008	28032
822.149	27964
822.289	27930
822.429	27511
822.569	27644
822.709	27652
822.849	27439
822.99	27355
823.13	27469
823.27	27302
823.41	27344
823.55	27127
823.69	27439
823.83	27249
823.97	27214
824.11	27036
824.25	27119
824.389	27096
824.529	27150
824.669	27096
824.809	27275
824.949	27154
825.089	27298
825.228	27173
825.368	26952
825.508	27055
825.648	27074
825.787	27127
825.927	27032
826.067	27062
826.206	27047
826.346	27100
826.485	27123
826.625	26906
826.765	27123
826.904	27089
827.044	26769
827.183	26746
827.323	26727
827.462	26720
827.601	26731
827.741	26762
827.88	26849
828.02	26587
828.159	26792
828.298	26834
828.437	26887
828.577	26617
828.716	26842
828.855	26655
828.994	26431
829.134	26457
829.273	26560
829.412	26469
829.551	26404
829.69	26552
829.829	26396
829.968	26438
830.107	26571
830.246	26575
830.385	26431
830.524	26313
830.663	26199
830.802	26218
830.941	25963
831.08	26024
831.219	26195
831.357	26027
831.496	26339
831.635	26005
831.774	26062
831.913	25841
832.051	25917
832.19	25894
832.329	25750
832.467	25799
832.606	25693
832.744	25639
832.883	25750
833.022	25685
833.16	25753
833.299	25833
833.437	25811
833.576	25753
833.714	25833
833.852	25788
833.991	25868
834.129	25966
834.267	25906
834.406	25670
834.544	25860
834.682	25807
834.821	25590
834.959	25940
835.097	25700
835.235	25818
835.373	25833
835.511	25746
835.65	25578
835.788	25613
835.926	25483
836.064	25335
836.202	25510
836.34	25689
836.478	25731
836.615	25548
836.753	25540
836.891	25647
837.029	25582
837.167	25483
837.305	25506
837.443	25476
837.58	25472
837.718	25510
837.856	25453
837.993	25335
838.131	25426
838.269	25270
838.406	25304
838.544	25293
838.681	25126
838.819	25004
838.956	24894
839.094	24890
839.231	24951
839.369	25076
839.506	25365
839.643	25179
839.781	24928
839.918	24760
840.055	24726
840.193	24848
840.33	24673
840.467	24890
840.604	25027
840.742	25129
840.879	24616
841.016	24673
841.153	24817
841.29	24970
841.427	24806
841.564	24779
841.701	24768
841.838	24779
841.975	24814
842.112	24776
842.249	24642
842.385	24422
842.522	24772
842.659	24608
842.796	24540
842.933	24437
843.069	24551
843.206	24467
843.343	24597
843.479	24536
843.616	24464
843.752	24254
843.889	24270
844.025	24460
844.162	24380
844.298	24433
844.435	24365
844.571	24251
844.708	24353
844.844	24460
844.98	24509
845.117	24483
845.253	24213
845.389	24148
845.525	24270
845.661	24304
845.798	24030
845.934	24125
846.07	24083
846.206	24144
846.342	24186
846.478	24140
846.614	23882
846.75	23832
846.886	23863
847.022	23851
847.158	23687
847.294	23824
847.429	23866
847.565	23707
847.701	24060
847.837	23509
847.972	23406
848.108	23619
848.244	23600
848.379	23459
848.515	23258
848.65	23391
848.786	23383
848.921	23433
849.057	23596
849.192	23520
849.328	23463
849.463	23334
849.598	23284
849.734	23356
849.869	23189
850.004	23117
850.14	23220
850.275	23197
850.41	23124
850.545	23109
850.68	23105
850.815	23189
850.95	23113
851.085	23315
851.22	23189
851.355	23162
851.49	23090
851.625	23204
851.76	23113
851.895	23060
852.03	23025
852.165	23060
852.299	23193
852.434	23189
852.569	23212
852.703	23064
852.838	23140
852.973	23216
853.107	23307
853.242	23086
853.376	23022
853.511	22801
853.645	22862
853.78	23003
853.914	22919
854.048	22915
854.183	22984
854.317	23105
854.451	23143
854.585	22911
854.72	22976
854.854	23067
854.988	22911
855.122	22927
855.256	22702
855.39	22949
855.524	23056
855.658	22991
855.792	22908
855.926	22919
856.06	22934
856.194	23170
856.327	22961
856.461	22923
856.595	22877
856.729	22911
856.862	22991
856.996	23010
857.13	22896
857.263	23064
857.397	22984
857.53	22972
857.664	22831
857.797	23079
857.931	23071
858.064	23075
858.197	22991
858.331	22961
858.464	22866
858.597	22896
858.731	22919
858.864	22892
858.997	22968
859.13	22946
859.263	23037
859.396	23003
859.529	22843
859.662	22915
859.795	22812
859.928	22896
860.061	23132
860.194	23140
860.327	23022
860.46	22968
860.592	23048
860.725	23079
860.858	23037
860.99	22953
861.123	22908
861.256	22869
861.388	22915
861.521	23707
861.653	22828
861.786	22831
861.918	22831
862.05	22805
862.183	22767
862.315	22942
862.447	23075
862.58	22949
862.712	22771
862.844	22580
862.976	22683
863.108	22649
863.24	23029
863.372	22630
863.504	22588
863.636	22717
863.768	22702
863.9	22653
864.032	22618
864.164	22561
864.296	22626
864.428	22698
864.559	22702
864.691	22683
864.823	22596
864.954	22755
865.086	22706
865.217	22516
865.349	22523
865.48	22523
865.612	22516
865.743	22618
865.875	22478
866.006	22500
866.137	22535
866.269	22455
866.4	22538
866.531	22474
866.662	22527
866.793	22462
866.924	22485
867.055	22443
867.186	22622
867.317	22447
867.448	22306
867.579	22440
867.71	22428
867.841	22470
867.972	22352
868.103	22466
868.233	22440
868.364	22436
868.495	22603
868.625	22675
868.756	22759
868.886	22698
869.017	22683
869.147	22831
869.278	22839
869.408	22759
869.539	22717
869.669	22801
869.799	22713
869.929	22816
870.06	22877
870.19	23086
870.32	22938
870.45	23075
870.58	23048
870.71	23113
870.84	23136
870.97	23086
871.1	23056
871.23	23223
871.36	23273
871.489	23124
871.619	23368
871.749	23360
871.879	23265
872.008	23395
872.138	23337
872.267	23318
872.397	23128
872.526	23083
872.656	23273
872.785	23159
872.915	23235
873.044	23360
873.173	23273
873.303	23345
873.432	23326
873.561	23562
873.69	23425
873.819	23376
873.948	23440
874.077	23349
874.206	23345
874.335	23459
874.464	23474
874.593	23501
874.722	23478
874.851	23478
874.979	23558
875.108	23592
875.237	23414
875.365	23452
875.494	23554
875.623	23577
875.751	23360
875.88	23459
876.008	23649
876.136	23737
876.265	23931
876.393	24003
876.521	23927
876.65	23965
876.778	23855
876.906	23874
877.034	23794
877.162	23923
877.29	23775
877.418	23901
877.546	23874
877.674	23908
877.802	23840
877.93	23931
878.058	23836
878.185	23661
878.313	23729
878.441	23813
878.568	23649
878.696	23680
878.824	23920
878.951	23817
879.079	24136
879.206	24045
879.333	24007
879.461	23832
879.588	23931
879.715	23999
879.842	24079
879.97	23931
880.097	23630
880.224	23760
880.351	23771
880.478	23767
880.605	23611
880.732	23668
880.859	23893
880.986	23570
881.112	23752
881.239	23406
881.366	23455
881.493	23337
881.619	23166
881.746	23326
881.872	23235
881.999	23299
882.125	23132
882.252	23254
882.378	23064
882.505	23254
882.631	23136
882.757	23003
882.883	22919
883.01	22927
883.136	22930
883.262	22828
883.388	22683
883.514	22831
883.64	22927
883.766	22908
883.892	22687
884.018	22721
884.143	22866
884.269	23006
884.395	22672
884.52	22493
884.646	22538
884.772	22542
884.897	22599
885.023	22519
885.148	22493
885.274	22683
885.399	22519
885.524	22542
885.65	22523
885.775	22641
885.9	22436
886.025	22603
886.15	22622
886.275	22455
886.4	22360
886.525	22607
886.65	22462
886.775	22527
886.9	22580
887.025	22630
887.149	22417
887.274	22375
887.399	22367
887.523	22322
887.648	22249
887.773	22310
887.897	22363
888.021	22352
888.146	22238
888.27	22341
888.395	22341
888.519	22451
888.643	22261
888.767	22333
888.891	22150
889.015	22067
889.139	22086
889.263	22139
889.387	22185
889.511	22299
889.635	22188
889.759	21960
889.883	22048
890.006	21998
890.13	22154
890.254	21922
890.377	22013
890.501	21781
890.624	21861
890.748	21922
890.871	21720
890.995	21542
891.118	21618
891.241	21610
891.364	21705
891.488	21698
891.611	21789
891.734	21568
891.857	21587
891.98	21701
892.103	21648
892.226	21561
892.349	21443
892.471	21336
892.594	21466
892.717	21561
892.839	21435
892.962	21469
893.085	21587
893.207	21473
893.33	21408
893.452	21412
893.575	21504
893.697	21378
893.819	21599
893.941	21606
894.064	21572
894.186	21496
894.308	21378
894.43	21603
894.552	21660
894.674	21622
894.796	21321
894.918	21382
895.04	21325
895.161	21477
895.283	21515
895.405	21370
895.526	21428
895.648	21511
895.769	21469
895.891	21447
896.012	21564
896.134	21534
896.255	21477
896.376	21504
896.498	21424
896.619	21549
896.74	21492
896.861	21538
896.982	21774
897.103	21876
897.224	21618
897.345	21660
897.466	21591
897.587	21644
897.708	21690
897.828	21587
897.949	21587
898.07	21405
898.19	21545
898.311	21641
898.431	21679
898.552	21656
898.672	21816
898.792	21778
898.913	21641
899.033	21591
899.153	21458
899.273	21272
899.393	21336
899.513	21511
899.633	21294
899.753	21439
899.873	21351
899.993	21420
900.113	21336
900.232	21408
900.352	21245
900.472	21256
900.591	21093
900.711	21233
900.83	21036
900.95	21180
901.069	21199
901.189	20944
901.308	20804
901.427	20632
901.546	20663
901.665	20853
901.784	20727
901.904	20511
902.023	20412
902.141	20317
902.26	20210
902.379	20347
902.498	20248
902.617	20199
902.735	20191
902.854	20138
902.973	20096
903.091	19967
903.21	19883
903.328	19826
903.446	19784
903.565	19795
903.683	19696
903.801	19373
903.919	19620
904.038	19537
904.156	19365
904.274	19430
904.392	19388
904.51	19259
904.627	19396
904.745	19426
904.863	19445
904.981	19103
905.098	19088
905.216	19015
905.334	19095
905.451	19160
905.569	19141
905.686	19088
905.803	19114
905.921	18882
906.038	18776
906.155	18897
906.272	18791
906.389	18738
906.506	18654
906.623	18650
906.74	18681
906.857	18593
906.974	18585
907.091	18764
907.208	18654
907.324	18582
907.441	18456
907.557	18330
907.674	18201
907.79	18232
907.907	18174
908.023	18289
908.139	18380
908.256	18258
908.372	18205
908.488	18155
908.604	18064
908.72	17897
908.836	18079
908.952	17988
909.068	17912
909.184	18076
909.3	18076
909.415	17965
909.531	17973
909.647	17790
909.762	17695
909.878	17611
909.993	17699
910.108	17600
910.224	17642
910.339	17581
910.454	17600
910.57	17505
910.685	17501
910.8	17729
910.915	17729
911.03	17452
911.145	17299
911.259	17250
911.374	17292
911.489	17227
911.604	17136
911.718	17048
911.833	16972
911.947	17029
912.062	16919
912.176	16957
912.291	17048
912.405	16934
912.519	17273
912.633	17170
912.748	17113
912.862	17056
912.976	16862
913.09	16816
913.204	16767
913.318	16881
913.431	16866
913.545	16839
913.659	16881
913.772	16683
913.886	16660
914	16577
914.113	16740
914.226	16653
914.34	16660
914.453	16462
914.566	16607
914.68	16516
914.793	16516
914.906	16287
915.019	16188
915.132	16135
915.245	16158
915.358	16135
915.47	16215
915.583	16074
915.696	16234
915.809	16246
915.921	16272
916.034	16143
916.146	16063
916.259	16010
916.371	16067
916.483	16082
916.595	15907
916.708	16067
916.82	15968
916.932	15842
917.044	15960
917.156	15911
917.268	15778
917.38	15835
917.491	15778
917.603	15850
917.715	15846
917.826	15892
917.938	15728
918.049	15679
918.161	15701
918.272	15869
918.384	15816
918.495	15705
918.606	15641
918.717	15496
918.828	15485
918.939	15500
919.05	15424
919.161	15424
919.272	15466
919.383	15401
919.494	15538
919.604	15774
919.715	15545
919.826	15477
919.936	15469
920.047	15614
920.157	15439
920.267	15717
920.378	15481
920.488	15564
920.598	15667
920.708	15743
920.818	15637
920.928	15599
921.038	15804
921.148	15686
921.258	15389
921.368	15332
921.477	15165
921.587	15138
921.697	15104
921.806	15287
921.916	15070
922.025	15051
922.134	14906
922.244	14857
922.353	14887
922.462	14762
922.571	14705
922.68	14552
922.789	14492
922.898	14507
923.007	14446
923.116	14480
923.224	14465
923.333	14431
923.442	14332
923.55	14328
923.659	14286
923.767	14408
923.876	14221
923.984	14305
924.092	14164
924.201	14286
924.309	14138
924.417	14218
924.525	14202
924.633	14176
924.741	15058
924.849	13993
924.956	14111
925.064	13845
925.172	13826
925.279	13818
925.387	13913
925.494	13898
925.602	13959
925.709	13913
925.816	13887
925.924	13757
926.031	13765
926.138	13879
926.245	13841
926.352	13647
926.459	13894
926.566	13868
926.673	13708
926.779	13605
926.886	13628
926.993	13415
927.099	13400
927.206	13312
927.312	13320
927.419	13445
927.525	13308
927.631	13400
927.737	13316
927.843	13190
927.95	13057
928.056	13244
928.162	13187
928.267	13213
928.373	13696
928.479	13228
928.585	13031
928.69	13152
928.796	13175
928.901	12973
929.007	12916
929.112	13012
929.218	12894
929.323	12928
929.428	12882
929.533	12958
929.638	12787
929.743	12863
929.848	12875
929.953	12890
930.058	12787
930.163	12627
930.267	12559
930.372	12753
930.477	12483
930.581	12734
930.685	12677
930.79	12517
930.894	12445
930.998	12300
931.103	12574
931.207	12186
931.311	12129
931.415	12015
931.519	11821
931.623	11794
