Data from test_V78500241_1892.txt Node
Date: Fri Mar 25 15:54:54 CST 2022
User: usil
Spectrometer: V785-0024
Trigger mode: 0
Integration Time (sec): 4.000000E-1
Scans to average: 1
Nonlinearity correction enabled: false
Boxcar width: 0
Storing dark spectrum: false
XAxis mode: Wavelengths
Number of Pixels in Spectrum: 1024
>>>>>Begin Spectral Data<<<<<
801.071	28740
801.214	28656
801.356	28497
801.499	28341
801.641	28295
801.783	28363
801.926	28371
802.068	28337
802.211	28299
802.353	28162
802.496	28010
802.638	27930
802.78	28093
802.923	28002
803.065	27899
803.208	28032
803.35	27857
803.492	28219
803.635	28287
803.777	28143
803.919	28097
804.061	28485
804.204	28306
804.346	28272
804.488	28040
804.63	28261
804.773	28181
804.915	28341
805.057	28424
805.199	28242
805.341	28230
805.483	28382
805.626	28306
805.768	28432
805.91	28531
806.052	28478
806.194	28394
806.336	28550
806.478	28375
806.62	28360
806.762	28649
806.904	28683
807.046	28911
807.188	28877
807.33	28721
807.472	28949
807.614	28786
807.756	28698
807.898	28790
808.04	28603
808.182	28637
808.324	28668
808.465	28755
808.607	28862
808.749	28980
808.891	29277
809.033	29341
809.174	29254
809.316	29033
809.458	28984
809.6	28995
809.741	29185
809.883	29174
810.025	29345
810.166	29288
810.308	29296
810.45	29372
810.591	29383
810.733	29341
810.875	29178
811.016	29071
811.158	29098
811.299	29162
811.441	29151
811.582	29261
811.724	29018
811.865	29132
812.007	29086
812.148	29025
812.29	29041
812.431	29349
812.573	29490
812.714	29535
812.855	29486
812.997	29779
813.138	29714
813.279	29783
813.421	29608
813.562	29710
813.703	29372
813.845	29288
813.986	29113
814.127	28927
814.268	28759
814.41	28854
814.551	28740
814.692	28919
814.833	28862
814.974	28828
815.115	28850
815.256	28717
815.397	28729
815.539	28653
815.68	28577
815.821	28603
815.962	28557
816.103	28641
816.244	28588
816.385	28363
816.526	28424
816.666	28249
816.807	28086
816.948	28204
817.089	28147
817.23	28120
817.371	28067
817.512	28067
817.653	27956
817.793	28063
817.934	28093
818.075	28101
818.216	28196
818.356	28048
818.497	27903
818.638	27831
818.778	27945
818.919	27994
819.06	27895
819.2	28032
819.341	28333
819.481	28150
819.622	28246
819.762	28470
819.903	28363
820.043	28291
820.184	28322
820.324	28306
820.465	28303
820.605	28325
820.746	28242
820.886	28219
821.026	28158
821.167	28276
821.307	28268
821.447	28226
821.588	28143
821.728	27934
821.868	27804
822.008	27587
822.149	27663
822.289	27538
822.429	27272
822.569	27241
822.709	27336
822.849	27218
822.99	27157
823.13	27230
823.27	27062
823.41	26838
823.55	26781
823.69	26883
823.83	27005
823.97	26830
824.11	26765
824.25	26746
824.389	26583
824.529	26800
824.669	26948
824.809	26765
824.949	26834
825.089	26796
825.228	26804
825.368	26549
825.508	26716
825.648	26636
825.787	26682
825.927	26689
826.067	26731
826.206	26655
826.346	26758
826.485	26682
826.625	26533
826.765	26842
826.904	26648
827.044	26358
827.183	26404
827.323	26240
827.462	26286
827.601	26396
827.741	26385
827.88	26347
828.02	26278
828.159	26290
828.298	26351
828.437	26396
828.577	26225
828.716	26499
828.855	26286
828.994	26031
829.134	26035
829.273	26062
829.412	26103
829.551	25944
829.69	26020
829.829	26115
829.968	26126
830.107	25917
830.246	26187
830.385	26039
830.524	26031
830.663	25803
830.802	25826
830.941	25529
831.08	25594
831.219	25761
831.357	25830
831.496	25776
831.635	25647
831.774	25639
831.913	25624
832.051	25449
832.19	25434
832.329	25426
832.467	25384
832.606	25350
832.744	25304
832.883	25247
833.022	25339
833.16	25247
833.299	25400
833.437	25289
833.576	25403
833.714	25263
833.852	25533
833.991	25343
834.129	25384
834.267	25392
834.406	25548
834.544	25426
834.682	25293
834.821	25350
834.959	25666
835.097	25293
835.235	25324
835.373	25415
835.511	25331
835.65	25187
835.788	25175
835.926	25076
836.064	25050
836.202	25023
836.34	25171
836.478	25350
836.615	25114
836.753	25095
836.891	25240
837.029	25255
837.167	25129
837.305	25023
837.443	25137
837.58	25069
837.718	25099
837.856	24992
837.993	25034
838.131	25126
838.269	24814
838.406	24856
838.544	24791
838.681	24715
838.819	24513
838.956	24555
839.094	24517
839.231	24612
839.369	24540
839.506	24894
839.643	24768
839.781	24547
839.918	24460
840.055	24490
840.193	24479
840.33	24540
840.467	24327
840.604	24467
840.742	24730
840.879	24292
841.016	24232
841.153	24304
841.29	24460
841.427	24327
841.564	24483
841.701	24372
841.838	24334
841.975	24338
842.112	24254
842.249	24258
842.385	24277
842.522	24346
842.659	24232
842.796	24133
842.933	24213
843.069	24125
843.206	24003
843.343	24224
843.479	24228
843.616	24121
843.752	23893
843.889	23954
844.025	23977
844.162	23908
844.298	23942
844.435	23916
844.571	23767
844.708	23969
844.844	23969
844.98	23954
845.117	23965
845.253	23817
845.389	23710
845.525	23893
845.661	23840
845.798	23604
845.934	23676
846.07	23722
846.206	23684
846.342	23779
846.478	23558
846.614	23459
846.75	23368
846.886	23242
847.022	23501
847.158	23528
847.294	23379
847.429	23436
847.565	23414
847.701	23570
847.837	23189
847.972	22968
848.108	23204
848.244	23140
848.379	22949
848.515	23003
848.65	22968
848.786	22946
848.921	23003
849.057	23143
849.192	23067
849.328	22930
849.463	23041
849.598	22790
849.734	22809
849.869	22797
850.004	22706
850.14	22721
850.275	22752
850.41	22557
850.545	22729
850.68	22763
850.815	22687
850.95	22599
851.085	22847
851.22	22816
851.355	22759
851.49	22710
851.625	22736
851.76	22725
851.895	22607
852.03	22637
852.165	22702
852.299	22687
852.434	22790
852.569	22733
852.703	22698
852.838	22706
852.973	22877
853.107	22790
853.242	22637
853.376	22527
853.511	22466
853.645	22481
853.78	22687
853.914	22519
854.048	22478
854.183	22512
854.317	22527
854.451	22649
854.585	22455
854.72	22577
854.854	22512
854.988	22371
855.122	22409
855.256	22280
855.39	22405
855.524	22527
855.658	22653
855.792	22622
855.926	22557
856.06	22573
856.194	22637
856.327	22557
856.461	22402
856.595	22535
856.729	22531
856.862	22630
856.996	22527
857.13	22626
857.263	22660
857.397	22691
857.53	22493
857.664	22478
857.797	22512
857.931	22607
858.064	22478
858.197	22561
858.331	22565
858.464	22481
858.597	22409
858.731	22516
858.864	22424
858.997	22523
859.13	22584
859.263	22531
859.396	22580
859.529	22557
859.662	22409
859.795	22512
859.928	22485
860.061	22637
860.194	22824
860.327	22675
860.46	22466
860.592	22729
860.725	22744
860.858	22645
860.99	22649
861.123	22470
861.256	22451
861.388	22485
861.521	23429
861.653	22363
861.786	22215
861.918	22386
862.05	22249
862.183	22402
862.315	22443
862.447	22497
862.58	22474
862.712	22268
862.844	22196
862.976	22367
863.108	22356
863.24	22691
863.372	22147
863.504	22188
863.636	22234
863.768	22291
863.9	22215
864.032	22166
864.164	22207
864.296	22234
864.428	22268
864.559	22253
864.691	22261
864.823	22219
864.954	22032
865.086	22219
865.217	22188
865.349	21972
865.48	22097
865.612	22128
865.743	22284
865.875	22040
866.006	22177
866.137	22238
866.269	22059
866.4	22116
866.531	22059
866.662	22101
866.793	22051
866.924	22017
867.055	22162
867.186	22086
867.317	22078
867.448	21838
867.579	22055
867.71	21968
867.841	21987
867.972	22055
868.103	22010
868.233	21979
868.364	21998
868.495	22120
868.625	22242
868.756	22287
868.886	22188
869.017	22322
869.147	22398
869.278	22443
869.408	22272
869.539	22268
869.669	22428
869.799	22459
869.929	22432
870.06	22333
870.19	22660
870.32	22523
870.45	22577
870.58	22793
870.71	22850
870.84	22782
870.97	22649
871.1	22759
871.23	22740
871.36	22839
871.489	22683
871.619	22896
871.749	22771
871.879	22946
872.008	23060
872.138	22850
872.267	22938
872.397	22653
872.526	22683
872.656	22694
872.785	22816
872.915	22908
873.044	22911
873.173	22908
873.303	22900
873.432	22820
873.561	23136
873.69	22911
873.819	22843
873.948	23029
874.077	22854
874.206	22850
874.335	22801
874.464	22984
874.593	23090
874.722	23067
874.851	23200
874.979	23208
875.108	23296
875.237	23094
875.365	22961
875.494	23010
875.623	23121
875.751	22919
875.88	23090
876.008	23284
876.136	23315
876.265	23421
876.393	23661
876.521	23505
876.65	23543
876.778	23653
876.906	23493
877.034	23448
877.162	23421
877.29	23417
877.418	23471
877.546	23604
877.674	23448
877.802	23391
877.93	23417
878.058	23322
878.185	23296
878.313	23356
878.441	23467
878.568	23227
878.696	23368
878.824	23471
878.951	23436
879.079	23642
879.206	23748
879.333	23528
879.461	23436
879.588	23649
879.715	23547
879.842	23630
879.97	23619
880.097	23261
880.224	23208
880.351	23242
880.478	23315
880.605	23189
880.732	23140
880.859	23493
880.986	23246
881.112	23269
881.239	23094
881.366	23006
881.493	22843
881.619	22801
881.746	22873
881.872	22812
881.999	22797
882.125	22744
882.252	22744
882.378	22816
882.505	23033
882.631	22694
882.757	22523
882.883	22679
883.01	22485
883.136	22519
883.262	22196
883.388	22230
883.514	22618
883.64	22588
883.766	22413
883.892	22169
884.018	22398
884.143	22432
884.269	22550
884.395	22207
884.52	22219
884.646	21991
884.772	22135
884.897	21979
885.023	22310
885.148	22204
885.274	22223
885.399	22162
885.524	22124
885.65	22162
885.775	22188
885.9	22131
886.025	22196
886.15	22234
886.275	22010
886.4	21972
886.525	22090
886.65	22032
886.775	22147
886.9	22238
887.025	22257
887.149	22143
887.274	21907
887.399	21869
887.523	21983
887.648	21907
887.773	21842
887.897	21960
888.021	21941
888.146	21770
888.27	21945
888.395	22025
888.519	21945
888.643	21915
888.767	21994
888.891	21903
889.015	21663
889.139	21701
889.263	21705
889.387	21804
889.511	21876
889.635	21812
889.759	21496
889.883	21671
890.006	21713
890.13	21648
890.254	21614
890.377	21656
890.501	21416
890.624	21462
890.748	21401
890.871	21306
890.995	21089
891.118	21241
891.241	21298
891.364	21336
891.488	21260
891.611	21367
891.734	21161
891.857	21237
891.98	21249
892.103	21241
892.226	21207
892.349	21249
892.471	21047
892.594	21070
892.717	21119
892.839	21058
892.962	21184
893.085	21245
893.207	21096
893.33	20986
893.452	20971
893.575	21157
893.697	21028
893.819	21294
893.941	21443
894.064	21154
894.186	21062
894.308	20975
894.43	21195
894.552	21264
894.674	21268
894.796	21096
894.918	21043
895.04	21089
895.161	21184
895.283	21047
895.405	21017
895.526	21180
895.648	21188
895.769	21070
895.891	21112
896.012	21252
896.134	21188
896.255	21070
896.376	21009
896.498	21131
896.619	21077
896.74	21119
896.861	21085
896.982	21359
897.103	21545
897.224	21317
897.345	21287
897.466	21287
897.587	21367
897.708	21237
897.828	21241
897.949	21180
898.07	21173
898.19	21272
898.311	21260
898.431	21226
898.552	21298
898.672	21268
898.792	21340
898.913	21275
899.033	21161
899.153	21089
899.273	21077
899.393	20948
899.513	20994
899.633	20990
899.753	20982
899.873	20937
899.993	21039
900.113	20990
900.232	21047
900.352	20899
900.472	20921
900.591	20735
900.711	20861
900.83	20815
900.95	20948
901.069	20750
901.189	20640
901.308	20454
901.427	20412
901.546	20358
901.665	20355
901.784	20480
901.904	20176
902.023	20210
902.141	20005
902.26	19807
902.379	19974
902.498	19875
902.617	19871
902.735	19833
902.854	19814
902.973	19795
903.091	19506
903.21	19495
903.328	19559
903.446	19331
903.565	19293
903.683	19419
903.801	19293
903.919	19282
904.038	19441
904.156	19023
904.274	19137
904.392	19076
904.51	18939
904.627	19076
904.745	19110
904.863	19126
904.981	18856
905.098	18768
905.216	18749
905.334	18848
905.451	18802
905.569	18677
905.686	18821
905.803	18703
905.921	18513
906.038	18551
906.155	18631
906.272	18448
906.389	18346
906.506	18273
906.623	18254
906.74	18388
906.857	18148
906.974	18201
907.091	18254
907.208	18403
907.324	18292
907.441	18174
907.557	17958
907.674	18019
907.79	17958
907.907	17874
908.023	17912
908.139	17946
908.256	17870
908.372	17878
908.488	17885
908.604	17718
908.72	17630
908.836	17748
908.952	17649
909.068	17668
909.184	17821
909.3	17752
909.415	17745
909.531	17634
909.647	17459
909.762	17467
909.878	17341
909.993	17406
910.108	17383
910.224	17345
910.339	17349
910.454	17227
910.57	17231
910.685	17166
910.8	17372
910.915	17414
911.03	17189
911.145	17022
911.259	16968
911.374	17018
911.489	16923
911.604	16892
911.718	16843
911.833	16725
911.947	16599
912.062	16508
912.176	16763
912.291	16797
912.405	16805
912.519	16877
912.633	16869
912.748	16786
912.862	16702
912.976	16500
913.09	16360
913.204	16550
913.318	16519
913.431	16748
913.545	16535
913.659	16649
913.772	16382
913.886	16344
914	16341
914.113	16402
914.226	16485
914.34	16314
914.453	16150
914.566	16284
914.68	16219
914.793	16143
914.906	15888
915.019	15892
915.132	15854
915.245	15846
915.358	15953
915.47	15918
915.583	15918
915.696	15907
915.809	15975
915.921	16040
916.034	15850
916.146	15751
916.259	15705
916.371	15857
916.483	15850
916.595	15717
916.708	15724
916.82	15800
916.932	15629
917.044	15663
917.156	15545
917.268	15526
917.38	15538
917.491	15515
917.603	15488
917.715	15564
917.826	15576
917.938	15534
918.049	15340
918.161	15405
918.272	15561
918.384	15549
918.495	15439
918.606	15302
918.717	15154
918.828	15408
918.939	15306
919.05	15195
919.161	15188
919.272	15039
919.383	14990
919.494	15344
919.604	15412
919.715	15127
919.826	15138
919.936	15165
920.047	15233
920.157	15321
920.267	15329
920.378	15161
920.488	15230
920.598	15351
920.708	15500
920.818	15359
920.928	15233
921.038	15473
921.148	15523
921.258	15157
921.368	15093
921.477	15039
921.587	14861
921.697	14834
921.806	14872
921.916	14773
922.025	14556
922.134	14583
922.244	14377
922.353	14640
922.462	14400
922.571	14415
922.68	14237
922.789	14225
922.898	14187
923.007	14164
923.116	14134
923.224	14233
923.333	14187
923.442	14119
923.55	14035
923.659	14027
923.767	14180
923.876	13970
923.984	13974
924.092	13879
924.201	13944
924.309	13921
924.417	13913
924.525	13822
924.633	13906
924.741	14503
924.849	13628
924.956	13818
925.064	13639
925.172	13540
925.279	13559
925.387	13586
925.494	13601
925.602	13685
925.709	13674
925.816	13472
925.924	13438
926.031	13556
926.138	13441
926.245	13559
926.352	13487
926.459	13529
926.566	13624
926.673	13506
926.779	13285
926.886	13369
926.993	13122
927.099	13114
927.206	13031
927.312	13080
927.419	13107
927.525	13137
927.631	13088
927.737	12966
927.843	12981
927.95	12867
928.056	12932
928.162	12875
928.267	12966
928.373	13514
928.479	12970
928.585	12738
928.69	12829
928.796	12905
928.901	12738
929.007	12700
929.112	12798
929.218	12776
929.323	12642
929.428	12684
929.533	12734
929.638	12559
929.743	12635
929.848	12536
929.953	12563
930.058	12490
930.163	12433
930.267	12292
930.372	12361
930.477	12319
930.581	12502
930.685	12388
930.79	12266
930.894	12186
930.998	12136
931.103	12235
931.207	11893
931.311	11847
931.415	11691
931.519	11665
931.623	11547
