Data from test_V78500241_2130.txt Node
Date: Fri Mar 25 15:56:33 CST 2022
User: usil
Spectrometer: V785-0024
Trigger mode: 0
Integration Time (sec): 4.000000E-1
Scans to average: 1
Nonlinearity correction enabled: false
Boxcar width: 0
Storing dark spectrum: false
XAxis mode: Wavelengths
Number of Pixels in Spectrum: 1024
>>>>>Begin Spectral Data<<<<<
801.071	29098
801.214	29124
801.356	28801
801.499	28839
801.641	28698
801.783	28573
801.926	28618
802.068	28679
802.211	28489
802.353	28557
802.496	28352
802.638	28344
802.78	28382
802.923	28238
803.065	28223
803.208	28257
803.35	28344
803.492	28497
803.635	28615
803.777	28478
803.919	28618
804.061	28934
804.204	28603
804.346	28546
804.488	28497
804.63	28774
804.773	28538
804.915	28740
805.057	28824
805.199	28527
805.341	28649
805.483	28839
805.626	28691
805.768	28752
805.91	28839
806.052	28843
806.194	28885
806.336	28984
806.478	28603
806.62	28812
806.762	28801
806.904	28984
807.046	29375
807.188	29220
807.33	29128
807.472	29258
807.614	29170
807.756	29277
807.898	29143
808.04	29033
808.182	28995
808.324	29143
808.465	29212
808.607	29288
808.749	29486
808.891	29570
809.033	29699
809.174	29493
809.316	29535
809.458	29653
809.6	29478
809.741	29615
809.883	29653
810.025	29824
810.166	29699
810.308	29927
810.45	29752
810.591	29543
810.733	29585
810.875	29615
811.016	29463
811.158	29448
811.299	29619
811.441	29619
811.582	29642
811.724	29535
811.865	29383
812.007	29490
812.148	29501
812.29	29493
812.431	29813
812.573	29916
812.714	29950
812.855	29946
812.997	30041
813.138	30247
813.279	30171
813.421	30038
813.562	29889
813.703	29973
813.845	29748
813.986	29554
814.127	29296
814.268	29235
814.41	29204
814.551	29216
814.692	29307
814.833	29025
814.974	29227
815.115	29254
815.256	29105
815.397	29128
815.539	29052
815.68	29109
815.821	28980
815.962	29048
816.103	28961
816.244	28778
816.385	28691
816.526	28801
816.666	28554
816.807	28413
816.948	28584
817.089	28694
817.23	28481
817.371	28485
817.512	28405
817.653	28550
817.793	28546
817.934	28649
818.075	28500
818.216	28641
818.356	28424
818.497	28436
818.638	28207
818.778	28276
818.919	28333
819.06	28443
819.2	28462
819.341	28561
819.481	28603
819.622	28744
819.762	28854
819.903	28854
820.043	28816
820.184	28656
820.324	28649
820.465	28805
820.605	28786
820.746	28694
820.886	28459
821.026	28691
821.167	28607
821.307	28611
821.447	28527
821.588	28413
821.728	28314
821.868	28181
822.008	28070
822.149	27987
822.289	28021
822.429	27892
822.569	27644
822.709	27644
822.849	27614
822.99	27595
823.13	27545
823.27	27431
823.41	27370
823.55	27268
823.69	27329
823.83	27439
823.97	27329
824.11	27146
824.25	27108
824.389	27256
824.529	27325
824.669	27268
824.809	27283
824.949	27260
825.089	27348
825.228	27161
825.368	27173
825.508	27135
825.648	27157
825.787	27157
825.927	27218
826.067	27165
826.206	26990
826.346	27161
826.485	27306
826.625	27157
826.765	27169
826.904	27260
827.044	26887
827.183	26735
827.323	26804
827.462	26834
827.601	26777
827.741	26811
827.88	26861
828.02	26697
828.159	26754
828.298	26864
828.437	26868
828.577	26754
828.716	26853
828.855	26640
828.994	26583
829.134	26469
829.273	26667
829.412	26552
829.551	26480
829.69	26522
829.829	26522
829.968	26640
830.107	26583
830.246	26465
830.385	26362
830.524	26381
830.663	26381
830.802	26210
830.941	26077
831.08	26084
831.219	26237
831.357	26237
831.496	26317
831.635	26119
831.774	26027
831.913	25849
832.051	25944
832.19	25860
832.329	25890
832.467	25830
832.606	25727
832.744	25597
832.883	25780
833.022	25605
833.16	25887
833.299	25731
833.437	25837
833.576	25921
833.714	25761
833.852	25837
833.991	25921
834.129	25849
834.267	25776
834.406	25765
834.544	25909
834.682	25799
834.821	25681
834.959	26001
835.097	25639
835.235	25917
835.373	25757
835.511	25795
835.65	25651
835.788	25567
835.926	25613
836.064	25502
836.202	25499
836.34	25655
836.478	25753
836.615	25795
836.753	25769
836.891	25700
837.029	25689
837.167	25571
837.305	25525
837.443	25384
837.58	25529
837.718	25468
837.856	25548
837.993	25476
838.131	25457
838.269	25335
838.406	25194
838.544	25255
838.681	25122
838.819	25126
838.956	24871
839.094	25000
839.231	25023
839.369	25046
839.506	25152
839.643	25156
839.781	25050
839.918	24935
840.055	24867
840.193	24787
840.33	24753
840.467	24890
840.604	24852
840.742	25012
840.879	24681
841.016	24844
841.153	24627
841.29	24886
841.427	24688
841.564	24829
841.701	24753
841.838	24779
841.975	24681
842.112	24684
842.249	24658
842.385	24570
842.522	24787
842.659	24658
842.796	24521
842.933	24441
843.069	24486
843.206	24509
843.343	24661
843.479	24536
843.616	24593
843.752	24456
843.889	24353
844.025	24490
844.162	24353
844.298	24376
844.435	24285
844.571	24270
844.708	24399
844.844	24445
844.98	24479
845.117	24418
845.253	24315
845.389	24182
845.525	24155
845.661	24209
845.798	24079
845.934	24155
846.07	24057
846.206	24053
846.342	24163
846.478	24068
846.614	23813
846.75	23668
846.886	23718
847.022	23794
847.158	23802
847.294	23805
847.429	23916
847.565	23771
847.701	23992
847.837	23547
847.972	23535
848.108	23570
848.244	23539
848.379	23547
848.515	23311
848.65	23429
848.786	23417
848.921	23311
849.057	23585
849.192	23444
849.328	23368
849.463	23379
849.598	23254
849.734	23288
849.869	23239
850.004	23155
850.14	23280
850.275	23269
850.41	23117
850.545	23025
850.68	23181
850.815	23200
850.95	23136
851.085	23322
851.22	23296
851.355	23208
851.49	23086
851.625	23098
851.76	23216
851.895	23102
852.03	23022
852.165	23147
852.299	23261
852.434	23178
852.569	23239
852.703	23250
852.838	23341
852.973	23223
853.107	23269
853.242	23136
853.376	23010
853.511	22889
853.645	22995
853.78	23197
853.914	23018
854.048	22961
854.183	22877
854.317	23018
854.451	23212
854.585	22980
854.72	22946
854.854	23014
854.988	23067
855.122	23025
855.256	22862
855.39	23041
855.524	23105
855.658	23048
855.792	23029
855.926	23037
856.06	22911
856.194	23098
856.327	22904
856.461	22771
856.595	22942
856.729	23018
856.862	22961
856.996	23014
857.13	23022
857.263	23113
857.397	23041
857.53	22889
857.664	23025
857.797	22946
857.931	23079
858.064	22942
858.197	23162
858.331	23003
858.464	22980
858.597	22835
858.731	23003
858.864	22908
858.997	23025
859.13	22930
859.263	22957
859.396	22995
859.529	22915
859.662	22984
859.795	22896
859.928	23064
860.061	23086
860.194	23227
860.327	23109
860.46	23060
860.592	23128
860.725	23117
860.858	23105
860.99	23022
861.123	22946
861.256	22991
861.388	22938
861.521	23687
861.653	22908
861.786	22778
861.918	22854
862.05	22854
862.183	22938
862.315	22835
862.447	22957
862.58	22995
862.712	22793
862.844	22637
862.976	22717
863.108	22835
863.24	23140
863.372	22668
863.504	22656
863.636	22782
863.768	22626
863.9	22736
864.032	22660
864.164	22599
864.296	22755
864.428	22763
864.559	22615
864.691	22725
864.823	22641
864.954	22580
865.086	22706
865.217	22599
865.349	22455
865.48	22542
865.612	22573
865.743	22687
865.875	22618
866.006	22455
866.137	22554
866.269	22504
866.4	22421
866.531	22303
866.662	22508
866.793	22519
866.924	22523
867.055	22557
867.186	22615
867.317	22557
867.448	22344
867.579	22405
867.71	22295
867.841	22242
867.972	22516
868.103	22432
868.233	22542
868.364	22497
868.495	22622
868.625	22736
868.756	22774
868.886	22660
869.017	22694
869.147	22801
869.278	22782
869.408	22740
869.539	22649
869.669	22793
869.799	22831
869.929	22774
870.06	22968
870.19	23003
870.32	23029
870.45	22991
870.58	23037
870.71	23288
870.84	23250
870.97	23178
871.1	23113
871.23	23330
871.36	23280
871.489	23189
871.619	23311
871.749	23242
871.879	23364
872.008	23448
872.138	23376
872.267	23349
872.397	23200
872.526	23033
872.656	23159
872.785	23220
872.915	23337
873.044	23414
873.173	23322
873.303	23406
873.432	23467
873.561	23395
873.69	23345
873.819	23368
873.948	23414
874.077	23353
874.206	23185
874.335	23330
874.464	23425
874.593	23577
874.722	23436
874.851	23505
874.979	23596
875.108	23627
875.237	23493
875.365	23482
875.494	23493
875.623	23649
875.751	23535
875.88	23611
876.008	23699
876.136	23703
876.265	23946
876.393	23923
876.521	23935
876.65	23980
876.778	23950
876.906	23878
877.034	23840
877.162	23885
877.29	23813
877.418	23935
877.546	23901
877.674	23992
877.802	23878
877.93	23889
878.058	23665
878.185	23786
878.313	23741
878.441	23794
878.568	23714
878.696	23824
878.824	23847
878.951	23802
879.079	24076
879.206	24262
879.333	23969
879.461	24060
879.588	23828
879.715	23942
879.842	24098
879.97	23904
880.097	23726
880.224	23672
880.351	23828
880.478	23779
880.605	23703
880.732	23722
880.859	23931
880.986	23760
881.112	23714
881.239	23512
881.366	23425
881.493	23410
881.619	23181
881.746	23273
881.872	23284
881.999	23239
882.125	23159
882.252	23261
882.378	23212
882.505	23387
882.631	23083
882.757	23052
882.883	23056
883.01	23010
883.136	22828
883.262	22771
883.388	22740
883.514	22889
883.64	22942
883.766	22786
883.892	22672
884.018	22763
884.143	22828
884.269	22896
884.395	22573
884.52	22516
884.646	22481
884.772	22459
884.897	22379
885.023	22462
885.148	22626
885.274	22577
885.399	22664
885.524	22478
885.65	22523
885.775	22504
885.9	22447
886.025	22615
886.15	22470
886.275	22489
886.4	22428
886.525	22512
886.65	22333
886.775	22493
886.9	22653
887.025	22660
887.149	22451
887.274	22314
887.399	22268
887.523	22287
887.648	22284
887.773	22295
887.897	22371
888.021	22276
888.146	22230
888.27	22265
888.395	22333
888.519	22409
888.643	22314
888.767	22200
888.891	22284
889.015	22025
889.139	22204
889.263	22082
889.387	22139
889.511	22287
889.635	22128
889.759	22086
889.883	22093
890.006	22078
890.13	22154
890.254	22010
890.377	21941
890.501	21884
890.624	21781
890.748	21732
890.871	21694
890.995	21641
891.118	21644
891.241	21705
891.364	21709
891.488	21713
891.611	21542
891.734	21663
891.857	21690
891.98	21606
892.103	21606
892.226	21614
892.349	21561
892.471	21412
892.594	21572
892.717	21599
892.839	21545
892.962	21500
893.085	21568
893.207	21481
893.33	21351
893.452	21500
893.575	21564
893.697	21431
893.819	21698
893.941	21717
894.064	21648
894.186	21416
894.308	21401
894.43	21542
894.552	21504
894.674	21507
894.796	21469
894.918	21561
895.04	21439
895.161	21576
895.283	21454
895.405	21310
895.526	21492
895.648	21306
895.769	21542
895.891	21583
896.012	21610
896.134	21580
896.255	21572
896.376	21401
896.498	21622
896.619	21534
896.74	21504
896.861	21473
896.982	21751
897.103	21846
897.224	21698
897.345	21572
897.466	21663
897.587	21686
897.708	21728
897.828	21644
897.949	21523
898.07	21401
898.19	21679
898.311	21660
898.431	21603
898.552	21648
898.672	21739
898.792	21770
898.913	21732
899.033	21633
899.153	21485
899.273	21378
899.393	21466
899.513	21447
899.633	21488
899.753	21389
899.873	21382
899.993	21420
900.113	21310
900.232	21264
900.352	21161
900.472	21150
900.591	21112
900.711	21127
900.83	21100
900.95	21275
901.069	21245
901.189	21119
901.308	20796
901.427	20746
901.546	20754
901.665	20830
901.784	20724
901.904	20575
902.023	20533
902.141	20370
902.26	20221
902.379	20290
902.498	20073
902.617	20058
902.735	20294
902.854	20031
902.973	20199
903.091	19871
903.21	19845
903.328	19871
903.446	19662
903.565	19719
903.683	19681
903.801	19559
903.919	19647
904.038	19753
904.156	19434
904.274	19529
904.392	19354
904.51	19350
904.627	19415
904.745	19377
904.863	19476
904.981	19183
905.098	19065
905.216	19202
905.334	19137
905.451	19065
905.569	18954
905.686	19012
905.803	18981
905.921	18909
906.038	18913
906.155	18954
906.272	18795
906.389	18882
906.506	18661
906.623	18593
906.74	18612
906.857	18521
906.974	18509
907.091	18726
907.208	18726
907.324	18616
907.441	18494
907.557	18270
907.674	18342
907.79	18308
907.907	18247
908.023	18334
908.139	18243
908.256	18197
908.372	18182
908.488	18140
908.604	17920
908.72	17950
908.836	18019
908.952	17885
909.068	18098
909.184	18190
909.3	17992
909.415	18026
909.531	18022
909.647	17691
909.762	17684
909.878	17710
909.993	17741
910.108	17661
910.224	17596
910.339	17729
910.454	17573
910.57	17425
910.685	17402
910.8	17596
910.915	17661
911.03	17528
911.145	17231
911.259	17185
911.374	17318
911.489	17242
911.604	17242
911.718	16957
911.833	16976
911.947	16908
912.062	16824
912.176	17067
912.291	16930
912.405	17056
912.519	17258
912.633	17200
912.748	17075
912.862	16953
912.976	16862
913.09	16748
913.204	16683
913.318	16824
913.431	16873
913.545	16930
913.659	16835
913.772	16866
913.886	16683
914	16546
914.113	16698
914.226	16653
914.34	16615
914.453	16500
914.566	16607
914.68	16527
914.793	16455
914.906	16329
915.019	16177
915.132	16097
915.245	16120
915.358	16211
915.47	16166
915.583	16139
915.696	16211
915.809	16337
915.921	16215
916.034	16032
916.146	16063
916.259	16010
916.371	16090
916.483	16154
916.595	15975
916.708	16040
916.82	15831
916.932	15937
917.044	15895
917.156	15953
917.268	15747
917.38	15869
917.491	15705
917.603	15846
917.715	15854
917.826	15800
917.938	15648
918.049	15599
918.161	15682
918.272	15835
918.384	15797
918.495	15762
918.606	15507
918.717	15447
918.828	15488
918.939	15580
919.05	15469
919.161	15538
919.272	15306
919.383	15313
919.494	15504
919.604	15644
919.715	15485
919.826	15386
919.936	15447
920.047	15580
920.157	15591
920.267	15671
920.378	15405
920.488	15424
920.598	15618
920.708	15739
920.818	15584
920.928	15603
921.038	15785
921.148	15526
921.258	15477
921.368	15382
921.477	15287
921.587	15150
921.697	15093
921.806	15165
921.916	15180
922.025	14823
922.134	14739
922.244	14705
922.353	14857
922.462	14587
922.571	14587
922.68	14526
922.789	14358
922.898	14381
923.007	14423
923.116	14427
923.224	14442
923.333	14400
923.442	14290
923.55	14248
923.659	14271
923.767	14404
923.876	14240
923.984	14286
924.092	14199
924.201	14153
924.309	14130
924.417	14161
924.525	14107
924.633	14073
924.741	14895
924.849	13947
924.956	14016
925.064	13799
925.172	13685
925.279	13894
925.387	13769
925.494	13822
925.602	13963
925.709	13894
925.816	13769
925.924	13761
926.031	13826
926.138	13742
926.245	13696
926.352	13651
926.459	13822
926.566	13856
926.673	13567
926.779	13525
926.886	13544
926.993	13335
927.099	13324
927.206	13225
927.312	13244
927.419	13419
927.525	13335
927.631	13304
927.737	13335
927.843	13149
927.95	13065
928.056	13084
928.162	13221
928.267	13190
928.373	13784
928.479	13213
928.585	13008
928.69	13133
928.796	13213
928.901	12981
929.007	12935
929.112	12989
929.218	12897
929.323	12821
929.428	12882
929.533	12886
929.638	12764
929.743	12779
929.848	12814
929.953	12673
930.058	12612
930.163	12525
930.267	12544
930.372	12608
930.477	12475
930.581	12677
930.685	12528
930.79	12338
930.894	12536
930.998	12414
931.103	12414
931.207	12220
931.311	12060
931.415	11961
931.519	11775
931.623	11729
