Data from test_V78500241_2156.txt Node
Date: Fri Mar 25 15:56:44 CST 2022
User: usil
Spectrometer: V785-0024
Trigger mode: 0
Integration Time (sec): 4.000000E-1
Scans to average: 1
Nonlinearity correction enabled: false
Boxcar width: 0
Storing dark spectrum: false
XAxis mode: Wavelengths
Number of Pixels in Spectrum: 1024
>>>>>Begin Spectral Data<<<<<
801.071	28987
801.214	28862
801.356	28687
801.499	28561
801.641	28459
801.783	28447
801.926	28622
802.068	28504
802.211	28455
802.353	28462
802.496	28204
802.638	28234
802.78	28295
802.923	28097
803.065	28017
803.208	28166
803.35	28234
803.492	28306
803.635	28451
803.777	28310
803.919	28417
804.061	28713
804.204	28634
804.346	28322
804.488	28474
804.63	28443
804.773	28390
804.915	28382
805.057	28557
805.199	28413
805.341	28615
805.483	28744
805.626	28565
805.768	28596
805.91	28588
806.052	28577
806.194	28569
806.336	28843
806.478	28535
806.62	28645
806.762	28759
806.904	28991
807.046	29200
807.188	29079
807.33	29037
807.472	29117
807.614	29018
807.756	29132
807.898	28850
808.04	29022
808.182	28873
808.324	28961
808.465	28961
808.607	29140
808.749	29277
808.891	29570
809.033	29566
809.174	29421
809.316	29288
809.458	29387
809.6	29197
809.741	29501
809.883	29589
810.025	29535
810.166	29707
810.308	29596
810.45	29608
810.591	29486
810.733	29379
810.875	29398
811.016	29117
811.158	29181
811.299	29512
811.441	29490
811.582	29570
811.724	29349
811.865	29345
812.007	29318
812.148	29280
812.29	29379
812.431	29448
812.573	29604
812.714	29809
812.855	29889
812.997	30015
813.138	30095
813.279	29942
813.421	29855
813.562	29942
813.703	29676
813.845	29528
813.986	29242
814.127	29220
814.268	28984
814.41	28972
814.551	29159
814.692	29128
814.833	29086
814.974	29067
815.115	29143
815.256	29018
815.397	28927
815.539	28911
815.68	28930
815.821	28843
815.962	28873
816.103	29014
816.244	28793
816.385	28626
816.526	28706
816.666	28390
816.807	28417
816.948	28360
817.089	28447
817.23	28428
817.371	28451
817.512	28470
817.653	28356
817.793	28299
817.934	28314
818.075	28394
818.216	28413
818.356	28318
818.497	28284
818.638	28116
818.778	28147
818.919	28120
819.06	28265
819.2	28166
819.341	28382
819.481	28428
819.622	28573
819.762	28706
819.903	28797
820.043	28554
820.184	28512
820.324	28497
820.465	28500
820.605	28531
820.746	28569
820.886	28295
821.026	28459
821.167	28390
821.307	28447
821.447	28398
821.588	28352
821.728	28329
821.868	27956
822.008	27884
822.149	27991
822.289	27831
822.429	27648
822.569	27534
822.709	27568
822.849	27473
822.99	27500
823.13	27256
823.27	27310
823.41	27218
823.55	27104
823.69	27252
823.83	27119
823.97	27222
824.11	27081
824.25	27119
824.389	27013
824.529	27150
824.669	27024
824.809	27211
824.949	27138
825.089	27188
825.228	27203
825.368	26849
825.508	26861
825.648	27058
825.787	26975
825.927	26921
826.067	26944
826.206	26986
826.346	27119
826.485	26979
826.625	26857
826.765	27024
826.904	26876
827.044	26735
827.183	26712
827.323	26541
827.462	26773
827.601	26701
827.741	26549
827.88	26765
828.02	26530
828.159	26587
828.298	26533
828.437	26800
828.577	26530
828.716	26644
828.855	26617
828.994	26286
829.134	26324
829.273	26259
829.412	26294
829.551	26313
829.69	26400
829.829	26301
829.968	26347
830.107	26484
830.246	26317
830.385	26278
830.524	26225
830.663	26065
830.802	25966
830.941	25799
831.08	25883
831.219	25936
831.357	26050
831.496	26088
831.635	25833
831.774	25864
831.913	25856
832.051	25757
832.19	25693
832.329	25753
832.467	25632
832.606	25548
832.744	25525
832.883	25681
833.022	25510
833.16	25578
833.299	25651
833.437	25575
833.576	25674
833.714	25708
833.852	25715
833.991	25723
834.129	25734
834.267	25715
834.406	25578
834.544	25575
834.682	25559
834.821	25605
834.959	25997
835.097	25556
835.235	25643
835.373	25632
835.511	25647
835.65	25506
835.788	25521
835.926	25304
836.064	25308
836.202	25396
836.34	25487
836.478	25571
836.615	25460
836.753	25362
836.891	25620
837.029	25449
837.167	25400
837.305	25365
837.443	25190
837.58	25308
837.718	25301
837.856	25384
837.993	25221
838.131	25259
838.269	25266
838.406	25221
838.544	25038
838.681	24943
838.819	24913
838.956	24726
839.094	24688
839.231	24833
839.369	25004
839.506	25145
839.643	24935
839.781	24684
839.918	24631
840.055	24673
840.193	24753
840.33	24658
840.467	24661
840.604	24642
840.742	25008
840.879	24551
841.016	24563
841.153	24456
841.29	24711
841.427	24631
841.564	24547
841.701	24650
841.838	24650
841.975	24551
842.112	24627
842.249	24433
842.385	24456
842.522	24639
842.659	24483
842.796	24441
842.933	24452
843.069	24464
843.206	24304
843.343	24395
843.479	24319
843.616	24483
843.752	24190
843.889	24273
844.025	24292
844.162	24197
844.298	24304
844.435	24159
844.571	24129
844.708	24152
844.844	24228
844.98	24243
845.117	24361
845.253	24136
845.389	23958
845.525	24110
845.661	24034
845.798	23927
845.934	23920
846.07	23870
846.206	23935
846.342	24026
846.478	23878
846.614	23703
846.75	23649
846.886	23585
847.022	23627
847.158	23649
847.294	23653
847.429	23642
847.565	23634
847.701	23851
847.837	23383
847.972	23330
848.108	23288
848.244	23486
848.379	23216
848.515	23132
848.65	23143
848.786	23136
848.921	23273
849.057	23265
849.192	23242
849.328	23398
849.463	23239
849.598	23239
849.734	23132
849.869	23018
850.004	22976
850.14	22968
850.275	23033
850.41	22869
850.545	22984
850.68	22938
850.815	22942
850.95	23033
851.085	23239
851.22	23090
851.355	23018
851.49	22919
851.625	23071
851.76	22949
851.895	22980
852.03	22946
852.165	22930
852.299	23094
852.434	22984
852.569	22930
852.703	22946
852.838	22987
852.973	23273
853.107	23037
853.242	22889
853.376	22801
853.511	22641
853.645	22733
853.78	22953
853.914	22831
854.048	22805
854.183	22744
854.317	22892
854.451	22949
854.585	22755
854.72	22710
854.854	22854
854.988	22748
855.122	22759
855.256	22584
855.39	22862
855.524	22755
855.658	22934
855.792	22740
855.926	22854
856.06	22782
856.194	22930
856.327	22809
856.461	22668
856.595	22820
856.729	22721
856.862	22782
856.996	22877
857.13	22831
857.263	22873
857.397	22938
857.53	22759
857.664	22835
857.797	22824
857.931	22942
858.064	22797
858.197	22843
858.331	22771
858.464	22744
858.597	22748
858.731	22679
858.864	22694
858.997	22637
859.13	22858
859.263	22725
859.396	22999
859.529	22717
859.662	22672
859.795	22637
859.928	22831
860.061	22976
860.194	23025
860.327	22713
860.46	22824
860.592	22953
860.725	23029
860.858	22930
860.99	22645
861.123	22736
861.256	22771
861.388	22869
861.521	23440
861.653	22645
861.786	22584
861.918	22622
862.05	22664
862.183	22626
862.315	22729
862.447	22683
862.58	22634
862.712	22561
862.844	22382
862.976	22538
863.108	22580
863.24	22881
863.372	22478
863.504	22470
863.636	22516
863.768	22405
863.9	22546
864.032	22424
864.164	22409
864.296	22531
864.428	22478
864.559	22672
864.691	22497
864.823	22451
864.954	22405
865.086	22527
865.217	22367
865.349	22219
865.48	22333
865.612	22542
865.743	22531
865.875	22379
866.006	22268
866.137	22379
866.269	22367
866.4	22249
866.531	22337
866.662	22238
866.793	22246
866.924	22280
867.055	22280
867.186	22299
867.317	22238
867.448	22150
867.579	22272
867.71	22128
867.841	22150
867.972	22318
868.103	22325
868.233	22257
868.364	22337
868.495	22470
868.625	22459
868.756	22607
868.886	22462
869.017	22440
869.147	22622
869.278	22626
869.408	22554
869.539	22417
869.669	22577
869.799	22596
869.929	22577
870.06	22641
870.19	22790
870.32	22805
870.45	22805
870.58	22797
870.71	23060
870.84	22957
870.97	22987
871.1	22805
871.23	23140
871.36	23124
871.489	23010
871.619	23113
871.749	22987
871.879	23140
872.008	23307
872.138	23102
872.267	23128
872.397	22858
872.526	22942
872.656	22923
872.785	22946
872.915	23056
873.044	23303
873.173	23189
873.303	23337
873.432	23235
873.561	23334
873.69	23124
873.819	23155
873.948	23162
874.077	23239
874.206	23044
874.335	23033
874.464	23261
874.593	23452
874.722	23318
874.851	23421
874.979	23368
875.108	23379
875.237	23379
875.365	23212
875.494	23307
875.623	23387
875.751	23246
875.88	23265
876.008	23463
876.136	23604
876.265	23722
876.393	23832
876.521	23756
876.65	23764
876.778	23714
876.906	23752
877.034	23516
877.162	23691
877.29	23680
877.418	23809
877.546	23745
877.674	23680
877.802	23741
877.93	23813
878.058	23615
878.185	23509
878.313	23642
878.441	23627
878.568	23562
878.696	23665
878.824	23661
878.951	23851
879.079	23840
879.206	23908
879.333	23790
879.461	23722
879.588	23748
879.715	23866
879.842	23969
879.97	23699
880.097	23459
880.224	23482
880.351	23474
880.478	23414
880.605	23360
880.732	23398
880.859	23714
880.986	23516
881.112	23577
881.239	23387
881.366	23223
881.493	23227
881.619	23006
881.746	23060
881.872	23041
881.999	23075
882.125	23044
882.252	22995
882.378	22934
882.505	23056
882.631	22831
882.757	22854
882.883	22721
883.01	22664
883.136	22683
883.262	22561
883.388	22485
883.514	22702
883.64	22900
883.766	22596
883.892	22443
884.018	22474
884.143	22729
884.269	22702
884.395	22356
884.52	22356
884.646	22325
884.772	22413
884.897	22242
885.023	22356
885.148	22535
885.274	22421
885.399	22519
885.524	22440
885.65	22390
885.775	22424
885.9	22284
886.025	22413
886.15	22337
886.275	22272
886.4	22219
886.525	22390
886.65	22356
886.775	22265
886.9	22417
887.025	22664
887.149	22329
887.274	22131
887.399	22051
887.523	22207
887.648	22112
887.773	22040
887.897	22196
888.021	22135
888.146	22036
888.27	22246
888.395	22230
888.519	22192
888.643	22051
888.767	22147
888.891	21956
889.015	21797
889.139	21949
889.263	21884
889.387	21968
889.511	22013
889.635	22017
889.759	21953
889.883	21899
890.006	21835
890.13	21922
890.254	21808
890.377	21793
890.501	21755
890.624	21572
890.748	21797
890.871	21523
890.995	21526
891.118	21530
891.241	21488
891.364	21488
891.488	21576
891.611	21519
891.734	21439
891.857	21511
891.98	21428
892.103	21469
892.226	21378
892.349	21351
892.471	21256
892.594	21233
892.717	21523
892.839	21386
892.962	21386
893.085	21367
893.207	21359
893.33	21116
893.452	21325
893.575	21245
893.697	21214
893.819	21538
893.941	21622
894.064	21530
894.186	21241
894.308	21218
894.43	21386
894.552	21500
894.674	21393
894.796	21214
894.918	21256
895.04	21256
895.161	21348
895.283	21249
895.405	21256
895.526	21363
895.648	21332
895.769	21382
895.891	21336
896.012	21306
896.134	21412
896.255	21325
896.376	21188
896.498	21332
896.619	21325
896.74	21317
896.861	21412
896.982	21663
897.103	21690
897.224	21469
897.345	21530
897.466	21481
897.587	21447
897.708	21526
897.828	21477
897.949	21530
898.07	21336
898.19	21443
898.311	21447
898.431	21526
898.552	21431
898.672	21599
898.792	21469
898.913	21587
899.033	21466
899.153	21370
899.273	21226
899.393	21275
899.513	21279
899.633	21260
899.753	21302
899.873	21112
899.993	21077
900.113	21222
900.232	21252
900.352	21176
900.472	21249
900.591	20975
900.711	20956
900.83	20979
900.95	21112
901.069	21108
901.189	20895
901.308	20564
901.427	20560
901.546	20454
901.665	20552
901.784	20621
901.904	20537
902.023	20362
902.141	20100
902.26	20134
902.379	20206
902.498	20001
902.617	19993
902.735	20107
902.854	19993
902.973	19826
903.091	19860
903.21	19769
903.328	19620
903.446	19662
903.565	19365
903.683	19575
903.801	19411
903.919	19415
904.038	19411
904.156	19285
904.274	19285
904.392	19228
904.51	19282
904.627	19270
904.745	19278
904.863	19312
904.981	19156
905.098	18859
905.216	18878
905.334	18806
905.451	19012
905.569	18856
905.686	18985
905.803	18894
905.921	18661
906.038	18783
906.155	18741
906.272	18627
906.389	18654
906.506	18544
906.623	18365
906.74	18547
906.857	18369
906.974	18285
907.091	18479
907.208	18677
907.324	18467
907.441	18418
907.557	18133
907.674	18243
907.79	18057
907.907	18068
908.023	18254
908.139	18201
908.256	18041
908.372	18022
908.488	17996
908.604	17988
908.72	17805
908.836	17863
908.952	17843
909.068	17931
909.184	18015
909.3	17863
909.415	18034
909.531	17794
909.647	17554
909.762	17551
909.878	17490
909.993	17577
910.108	17592
910.224	17520
910.339	17589
910.454	17414
910.57	17398
910.685	17254
910.8	17486
910.915	17490
911.03	17303
911.145	17159
911.259	17128
911.374	17105
911.489	17033
911.604	17086
911.718	16896
911.833	16873
911.947	16812
912.062	16752
912.176	16850
912.291	16881
912.405	16809
912.519	17121
912.633	16991
912.748	16923
912.862	16816
912.976	16687
913.09	16588
913.204	16626
913.318	16725
913.431	16908
913.545	16755
913.659	16793
913.772	16729
913.886	16573
914	16535
914.113	16580
914.226	16626
914.34	16432
914.453	16481
914.566	16485
914.68	16417
914.793	16367
914.906	16109
915.019	16105
915.132	15972
915.245	16025
915.358	15968
915.47	16013
915.583	16063
915.696	16135
915.809	16169
915.921	16131
916.034	16002
916.146	15960
916.259	15880
916.371	16006
916.483	16128
916.595	15846
916.708	15850
916.82	15846
916.932	15751
917.044	15854
917.156	15797
917.268	15622
917.38	15663
917.491	15720
917.603	15717
917.715	15644
917.826	15713
917.938	15595
918.049	15545
918.161	15656
918.272	15755
918.384	15671
918.495	15553
918.606	15393
918.717	15439
918.828	15435
918.939	15401
919.05	15272
919.161	15439
919.272	15218
919.383	15207
919.494	15340
919.604	15633
919.715	15389
919.826	15310
919.936	15355
920.047	15477
920.157	15317
920.267	15587
920.378	15302
920.488	15287
920.598	15530
920.708	15637
920.818	15534
920.928	15488
921.038	15614
921.148	15542
921.258	15230
921.368	15150
921.477	15135
921.587	14982
921.697	14956
921.806	15074
921.916	14975
922.025	14724
922.134	14701
922.244	14663
922.353	14712
922.462	14659
922.571	14503
922.68	14309
922.789	14313
922.898	14233
923.007	14275
923.116	14423
923.224	14294
923.333	14191
923.442	14168
923.55	14062
923.659	14214
923.767	14332
923.876	14081
923.984	14221
924.092	13967
924.201	14084
924.309	13978
924.417	14081
924.525	14001
924.633	13986
924.741	14712
924.849	13765
924.956	13928
925.064	13746
925.172	13586
925.279	13685
925.387	13636
925.494	13658
925.602	13883
925.709	13845
925.816	13601
925.924	13689
926.031	13753
926.138	13651
926.245	13613
926.352	13518
926.459	13628
926.566	13750
926.673	13567
926.779	13483
926.886	13430
926.993	13388
927.099	13179
927.206	13255
927.312	13133
927.419	13316
927.525	13179
927.631	13149
927.737	13095
927.843	13122
927.95	12962
928.056	13065
928.162	13042
928.267	13133
928.373	13738
928.479	13118
928.585	12859
928.69	13046
928.796	13069
928.901	12928
929.007	12806
929.112	12783
929.218	12806
929.323	12840
929.428	12696
929.533	12920
929.638	12665
929.743	12696
929.848	12684
929.953	12734
930.058	12620
930.163	12388
930.267	12464
930.372	12631
930.477	12232
930.581	12646
930.685	12437
930.79	12311
930.894	12254
930.998	12182
931.103	12391
931.207	12098
931.311	11939
931.415	11813
931.519	11665
931.623	11665
