Data from test_V78500241_216.txt Node
Date: Fri Mar 25 15:43:17 CST 2022
User: usil
Spectrometer: V785-0024
Trigger mode: 0
Integration Time (sec): 4.000000E-1
Scans to average: 1
Nonlinearity correction enabled: false
Boxcar width: 0
Storing dark spectrum: false
XAxis mode: Wavelengths
Number of Pixels in Spectrum: 1024
>>>>>Begin Spectral Data<<<<<
801.071	29387
801.214	29292
801.356	29071
801.499	29079
801.641	29037
801.783	28991
801.926	29056
802.068	28938
802.211	28904
802.353	28771
802.496	28721
802.638	28637
802.78	28557
802.923	28679
803.065	28573
803.208	28637
803.35	28538
803.492	28877
803.635	28759
803.777	28679
803.919	28793
804.061	29109
804.204	28767
804.346	28645
804.488	28649
804.63	28554
804.773	28421
804.915	28736
805.057	28850
805.199	28702
805.341	28850
805.483	28809
805.626	28858
805.768	28672
805.91	28752
806.052	28816
806.194	28801
806.336	29071
806.478	28866
806.62	28672
806.762	28892
806.904	29006
807.046	29337
807.188	29353
807.33	29204
807.472	29345
807.614	29197
807.756	29018
807.898	29006
808.04	29018
808.182	29113
808.324	29109
808.465	29113
808.607	29071
808.749	29375
808.891	29505
809.033	29585
809.174	29459
809.316	29391
809.458	29433
809.6	29254
809.741	29516
809.883	29474
810.025	29600
810.166	29596
810.308	29581
810.45	29646
810.591	29554
810.733	29417
810.875	29372
811.016	29250
811.158	29334
811.299	29474
811.441	29573
811.582	29436
811.724	29410
811.865	29292
812.007	29315
812.148	29379
812.29	29433
812.431	29520
812.573	29687
812.714	29699
812.855	29790
812.997	29927
813.138	30068
813.279	29931
813.421	30030
813.562	29798
813.703	29760
813.845	29570
813.986	29197
814.127	29083
814.268	29033
814.41	29113
814.551	28752
814.692	29067
814.833	28980
814.974	28919
815.115	29075
815.256	28835
815.397	28843
815.539	28748
815.68	28637
815.821	28687
815.962	28782
816.103	28774
816.244	28618
816.385	28462
816.526	28451
816.666	28249
816.807	28158
816.948	28215
817.089	28318
817.23	28112
817.371	28093
817.512	28093
817.653	28090
817.793	28158
817.934	28139
818.075	28067
818.216	28147
818.356	27979
818.497	27972
818.638	27770
818.778	27956
818.919	27930
819.06	27869
819.2	27987
819.341	28082
819.481	27907
819.622	28093
819.762	28310
819.903	28451
820.043	28234
820.184	28257
820.324	28177
820.465	28139
820.605	28230
820.746	28230
820.886	28059
821.026	28230
821.167	28112
821.307	28200
821.447	27991
821.588	28063
821.728	27808
821.868	27671
822.008	27591
822.149	27553
822.289	27462
822.429	27359
822.569	27089
822.709	27108
822.849	27085
822.99	26956
823.13	26872
823.27	26994
823.41	26640
823.55	26625
823.69	26743
823.83	26796
823.97	26651
824.11	26632
824.25	26617
824.389	26526
824.529	26568
824.669	26476
824.809	26712
824.949	26568
825.089	26613
825.228	26594
825.368	26377
825.508	26393
825.648	26469
825.787	26237
825.927	26568
826.067	26332
826.206	26400
826.346	26556
826.485	26465
826.625	26362
826.765	26655
826.904	26476
827.044	26157
827.183	26122
827.323	26001
827.462	26218
827.601	26062
827.741	25989
827.88	26005
828.02	25963
828.159	26020
828.298	26145
828.437	26081
828.577	26008
828.716	26183
828.855	25966
828.994	25761
829.134	25769
829.273	25856
829.412	25693
829.551	25655
829.69	25849
829.829	25769
829.968	25940
830.107	25879
830.246	25811
830.385	25578
830.524	25666
830.663	25620
830.802	25384
830.941	25301
831.08	25198
831.219	25301
831.357	25537
831.496	25460
831.635	25419
831.774	25350
831.913	25236
832.051	25076
832.19	25057
832.329	25190
832.467	24954
832.606	24920
832.744	25027
832.883	24943
833.022	24928
833.16	24989
833.299	25015
833.437	25015
833.576	25000
833.714	24920
833.852	25015
833.991	24985
834.129	25099
834.267	25057
834.406	24920
834.544	25023
834.682	24913
834.821	24966
834.959	25126
835.097	24817
835.235	25034
835.373	24897
835.511	25038
835.65	24814
835.788	24802
835.926	24585
836.064	24532
836.202	24749
836.34	24806
836.478	24837
836.615	24772
836.753	24802
836.891	24806
837.029	24764
837.167	24719
837.305	24654
837.443	24490
837.58	24566
837.718	24703
837.856	24616
837.993	24582
838.131	24677
838.269	24505
838.406	24422
838.544	24433
838.681	24285
838.819	24197
838.956	24091
839.094	24087
839.231	24034
839.369	24292
839.506	24467
839.643	24213
839.781	23973
839.918	23893
840.055	23912
840.193	23969
840.33	24041
840.467	24015
840.604	24041
840.742	24133
840.879	23752
841.016	23805
841.153	23813
841.29	23908
841.427	23847
841.564	23874
841.701	23927
841.838	23813
841.975	23878
842.112	23786
842.249	23668
842.385	23570
842.522	23870
842.659	23623
842.796	23668
842.933	23608
843.069	23608
843.206	23573
843.343	23676
843.479	23516
843.616	23710
843.752	23261
843.889	23433
844.025	23398
844.162	23239
844.298	23395
844.435	23269
844.571	23250
844.708	23330
844.844	23452
844.98	23520
845.117	23414
845.253	23311
845.389	23254
845.525	23326
845.661	23185
845.798	22923
845.934	22984
846.07	23113
846.206	23037
846.342	23105
846.478	22908
846.614	22778
846.75	22694
846.886	22748
847.022	22786
847.158	22763
847.294	22748
847.429	22797
847.565	22748
847.701	22919
847.837	22440
847.972	22371
848.108	22649
848.244	22478
848.379	22386
848.515	22234
848.65	22265
848.786	22219
848.921	22379
849.057	22424
849.192	22481
849.328	22550
849.463	22265
849.598	22249
849.734	22230
849.869	22154
850.004	22120
850.14	22063
850.275	22036
850.41	21937
850.545	21968
850.68	22029
850.815	21983
850.95	21998
851.085	22360
851.22	22112
851.355	22013
851.49	22029
851.625	22097
851.76	21972
851.895	21835
852.03	21899
852.165	22040
852.299	22128
852.434	22036
852.569	22029
852.703	21987
852.838	22078
852.973	22147
853.107	22116
853.242	21945
853.376	21949
853.511	21827
853.645	21720
853.78	21884
853.914	21751
854.048	21838
854.183	21888
854.317	21934
854.451	22021
854.585	21762
854.72	21838
854.854	21979
854.988	21732
855.122	21846
855.256	21648
855.39	21831
855.524	21857
855.658	21857
855.792	21869
855.926	21838
856.06	21876
856.194	21888
856.327	21857
856.461	21785
856.595	21629
856.729	21838
856.862	21979
856.996	21778
857.13	21838
857.263	21964
857.397	21903
857.53	21739
857.664	21789
857.797	21770
857.931	21785
858.064	21816
858.197	21831
858.331	21736
858.464	21736
858.597	21667
858.731	21686
858.864	21732
858.997	21698
859.13	21762
859.263	21770
859.396	21937
859.529	21542
859.662	21690
859.795	21698
859.928	21728
860.061	22044
860.194	22074
860.327	21766
860.46	21622
860.592	21789
860.725	21895
860.858	21850
860.99	21713
861.123	21682
861.256	21679
861.388	21747
861.521	22402
861.653	21629
861.786	21515
861.918	21606
862.05	21781
862.183	21816
862.315	21793
862.447	21846
862.58	21713
862.712	21614
862.844	21450
862.976	21591
863.108	21469
863.24	21785
863.372	21283
863.504	21477
863.636	21504
863.768	21435
863.9	21378
864.032	21283
864.164	21466
864.296	21530
864.428	21454
864.559	21515
864.691	21576
864.823	21416
864.954	21507
865.086	21431
865.217	21336
865.349	21294
865.48	21287
865.612	21389
865.743	21500
865.875	21325
866.006	21382
866.137	21272
866.269	21302
866.4	21367
866.531	21287
866.662	21264
866.793	21351
866.924	21397
867.055	21287
867.186	21317
867.317	21302
867.448	21173
867.579	21169
867.71	21203
867.841	21157
867.972	21104
868.103	21294
868.233	21348
868.364	21298
868.495	21275
868.625	21370
868.756	21530
868.886	21454
869.017	21473
869.147	21583
869.278	21473
869.408	21538
869.539	21534
869.669	21534
869.799	21363
869.929	21675
870.06	21576
870.19	21838
870.32	21751
870.45	21781
870.58	21972
870.71	21975
870.84	21956
870.97	22010
871.1	21975
871.23	22109
871.36	22082
871.489	21953
871.619	21945
871.749	22044
871.879	22070
872.008	22135
872.138	22002
872.267	22082
872.397	21884
872.526	21903
872.656	21915
872.785	21983
872.915	22154
873.044	22124
873.173	22048
873.303	22032
873.432	22253
873.561	22268
873.69	22196
873.819	22223
873.948	22185
874.077	22093
874.206	22070
874.335	21987
874.464	22261
874.593	22299
874.722	22337
874.851	22382
874.979	22367
875.108	22314
875.237	22246
875.365	22211
875.494	22352
875.623	22367
875.751	22329
875.88	22409
876.008	22462
876.136	22519
876.265	22672
876.393	22877
876.521	22771
876.65	22733
876.778	22641
876.906	22702
877.034	22687
877.162	22584
877.29	22580
877.418	22656
877.546	22713
877.674	22615
877.802	22713
877.93	22828
878.058	22516
878.185	22554
878.313	22668
878.441	22759
878.568	22367
878.696	22710
878.824	22736
878.951	22672
879.079	22892
879.206	22984
879.333	22752
879.461	22733
879.588	22717
879.715	22774
879.842	22820
879.97	22569
880.097	22504
880.224	22459
880.351	22447
880.478	22512
880.605	22474
880.732	22405
880.859	22649
880.986	22363
881.112	22489
881.239	22413
881.366	22329
881.493	22101
881.619	22025
881.746	22017
881.872	22055
881.999	22128
882.125	21930
882.252	22128
882.378	21994
882.505	22196
882.631	22078
882.757	21819
882.883	21983
883.01	21800
883.136	21831
883.262	21682
883.388	21466
883.514	21747
883.64	21926
883.766	21751
883.892	21625
884.018	21580
884.143	21736
884.269	21831
884.395	21469
884.52	21393
884.646	21485
884.772	21359
884.897	21306
885.023	21359
885.148	21542
885.274	21542
885.399	21405
885.524	21336
885.65	21466
885.775	21325
885.9	21386
886.025	21485
886.15	21424
886.275	21450
886.4	21424
886.525	21283
886.65	21355
886.775	21443
886.9	21507
887.025	21606
887.149	21294
887.274	21275
887.399	21249
887.523	21100
887.648	21032
887.773	21036
887.897	21165
888.021	21199
888.146	21241
888.27	21161
888.395	21291
888.519	21169
888.643	21157
888.767	21123
888.891	21017
889.015	20910
889.139	20956
889.263	20845
889.387	21043
889.511	21222
889.635	21077
889.759	20933
889.883	20937
890.006	20857
890.13	21047
890.254	20853
890.377	20842
890.501	20716
890.624	20640
890.748	20594
890.871	20511
890.995	20511
891.118	20526
891.241	20503
891.364	20575
891.488	20697
891.611	20526
891.734	20495
891.857	20636
891.98	20484
892.103	20549
892.226	20533
892.349	20343
892.471	20313
892.594	20438
892.717	20473
892.839	20336
892.962	20358
893.085	20480
893.207	20427
893.33	20263
893.452	20294
893.575	20389
893.697	20336
893.819	20552
893.941	20564
894.064	20541
894.186	20385
894.308	20282
894.43	20511
894.552	20514
894.674	20461
894.796	20301
894.918	20332
895.04	20358
895.161	20419
895.283	20404
895.405	20389
895.526	20408
895.648	20370
895.769	20412
895.891	20412
896.012	20511
896.134	20366
896.255	20393
896.376	20469
896.498	20415
896.619	20499
896.74	20480
896.861	20511
896.982	20735
897.103	21028
897.224	20762
897.345	20697
897.466	20609
897.587	20648
897.708	20746
897.828	20632
897.949	20587
898.07	20533
898.19	20651
898.311	20750
898.431	20541
898.552	20617
898.672	20545
898.792	20689
898.913	20484
899.033	20461
899.153	20415
899.273	20237
899.393	20271
899.513	20377
899.633	20202
899.753	20362
899.873	20153
899.993	20320
900.113	20328
900.232	20252
900.352	20256
900.472	20115
900.591	20062
900.711	20225
900.83	20062
900.95	20092
901.069	20164
901.189	20016
901.308	19807
901.427	19841
901.546	19723
901.665	19639
901.784	19772
901.904	19605
902.023	19483
902.141	19175
902.26	19274
902.379	19263
902.498	19103
902.617	19114
902.735	19206
902.854	19270
902.973	19168
903.091	18738
903.21	18779
903.328	18734
903.446	18684
903.565	18559
903.683	18635
903.801	18566
903.919	18612
904.038	18445
904.156	18429
904.274	18346
904.392	18403
904.51	18334
904.627	18292
904.745	18327
904.863	18391
904.981	18235
905.098	18095
905.216	18152
905.334	17958
905.451	18026
905.569	17977
905.686	18083
905.803	18095
905.921	17912
906.038	17832
906.155	17866
906.272	17710
906.389	17745
906.506	17570
906.623	17646
906.74	17615
906.857	17455
906.974	17463
907.091	17512
907.208	17733
907.324	17589
907.441	17421
907.557	17330
907.674	17356
907.79	17113
907.907	17296
908.023	17303
908.139	17185
908.256	17189
908.372	17132
908.488	17147
908.604	17025
908.72	17010
908.836	16995
908.952	16873
909.068	16934
909.184	17102
909.3	16953
909.415	16938
909.531	16904
909.647	16668
909.762	16615
909.878	16637
909.993	16622
910.108	16538
910.224	16653
910.339	16599
910.454	16413
910.57	16561
910.685	16360
910.8	16672
910.915	16611
911.03	16428
911.145	16238
911.259	16329
911.374	16105
911.489	16086
911.604	16055
911.718	16036
911.833	15949
911.947	15888
912.062	15892
912.176	15941
912.291	15945
912.405	16055
912.519	16154
912.633	16112
912.748	15983
912.862	15915
912.976	15739
913.09	15686
913.204	15747
913.318	15747
913.431	15865
913.545	15869
913.659	15854
913.772	15720
913.886	15553
914	15526
914.113	15591
914.226	15641
914.34	15587
914.453	15473
914.566	15564
914.68	15477
914.793	15348
914.906	15218
915.019	15138
915.132	15100
915.245	15123
915.358	15199
915.47	15226
915.583	15230
915.696	15108
915.809	15226
915.921	15287
916.034	15169
916.146	15005
916.259	15051
916.371	15127
916.483	15131
916.595	14956
916.708	14956
916.82	14956
916.932	15024
917.044	14914
917.156	14929
917.268	14773
917.38	14842
917.491	14788
917.603	14762
917.715	14842
917.826	14807
917.938	14811
918.049	14613
918.161	14830
918.272	14853
918.384	14868
918.495	14708
918.606	14571
918.717	14541
918.828	14552
918.939	14564
919.05	14484
919.161	14473
919.272	14377
919.383	14454
919.494	14579
919.604	14773
919.715	14495
919.826	14404
919.936	14541
920.047	14552
920.157	14514
920.267	14651
920.378	14495
920.488	14454
920.598	14708
920.708	14826
920.818	14651
920.928	14590
921.038	14773
921.148	14689
921.258	14339
921.368	14290
921.477	14221
921.587	14271
921.697	14050
921.806	14172
921.916	14157
922.025	14024
922.134	13856
922.244	13883
922.353	13936
922.462	13719
922.571	13666
922.68	13544
922.789	13392
922.898	13552
923.007	13453
923.116	13495
923.224	13388
923.333	13411
923.442	13392
923.55	13270
923.659	13354
923.767	13396
923.876	13278
923.984	13301
924.092	13217
924.201	13209
924.309	13320
924.417	13232
924.525	13038
924.633	13122
924.741	13894
924.849	13019
924.956	13084
925.064	12913
925.172	12951
925.279	12848
925.387	12939
925.494	12867
925.602	12962
925.709	12958
925.816	12821
925.924	12966
926.031	13046
926.138	12802
926.245	12882
926.352	12760
926.459	12814
926.566	12894
926.673	12757
926.779	12658
926.886	12650
926.993	12433
927.099	12437
927.206	12414
927.312	12414
927.419	12471
927.525	12426
927.631	12521
927.737	12350
927.843	12308
927.95	12254
928.056	12216
928.162	12296
928.267	12304
928.373	12932
928.479	12330
928.585	12114
928.69	12292
928.796	12266
928.901	12232
929.007	12060
929.112	12125
929.218	12079
929.323	12045
929.428	11954
929.533	12079
929.638	11836
929.743	11935
929.848	11927
929.953	11923
930.058	11836
930.163	11611
930.267	11764
930.372	11794
930.477	11630
930.581	11878
930.685	11714
930.79	11554
930.894	11577
930.998	11562
931.103	11661
931.207	11334
931.311	11284
931.415	11170
931.519	10896
931.623	10915
