Data from test_V78500241_1597.txt Node
Date: Fri Mar 25 15:52:51 CST 2022
User: usil
Spectrometer: V785-0024
Trigger mode: 0
Integration Time (sec): 4.000000E-1
Scans to average: 1
Nonlinearity correction enabled: false
Boxcar width: 0
Storing dark spectrum: false
XAxis mode: Wavelengths
Number of Pixels in Spectrum: 1024
>>>>>Begin Spectral Data<<<<<
801.071	28295
801.214	28230
801.356	27960
801.499	27953
801.641	27880
801.783	27739
801.926	27804
802.068	27930
802.211	27709
802.353	27724
802.496	27496
802.638	27644
802.78	27534
802.923	27466
803.065	27515
803.208	27572
803.35	27519
803.492	27633
803.635	27774
803.777	27717
803.919	27770
804.061	28105
804.204	27675
804.346	27671
804.488	27713
804.63	27682
804.773	27492
804.915	27667
805.057	27842
805.199	27728
805.341	27736
805.483	27903
805.626	27899
805.768	27618
805.91	27998
806.052	27941
806.194	27800
806.336	27941
806.478	27800
806.62	27884
806.762	27846
806.904	28067
807.046	28360
807.188	28310
807.33	28398
807.472	28344
807.614	28253
807.756	28341
807.898	28116
808.04	28101
808.182	28131
808.324	28128
808.465	28303
808.607	28375
808.749	28607
808.891	28561
809.033	28554
809.174	28523
809.316	28512
809.458	28531
809.6	28481
809.741	28626
809.883	28694
810.025	28763
810.166	28847
810.308	28801
810.45	28843
810.591	28679
810.733	28542
810.875	28481
811.016	28512
811.158	28455
811.299	28626
811.441	28713
811.582	28706
811.724	28577
811.865	28455
812.007	28641
812.148	28451
812.29	28481
812.431	28771
812.573	28752
812.714	28873
812.855	29018
812.997	29269
813.138	29204
813.279	29121
813.421	29071
813.562	28938
813.703	28847
813.845	28656
813.986	28337
814.127	28325
814.268	28257
814.41	28276
814.551	28169
814.692	28154
814.833	28093
814.974	28226
815.115	28177
815.256	28078
815.397	28147
815.539	28101
815.68	27987
815.821	28029
815.962	27991
816.103	28013
816.244	27918
816.385	27800
816.526	27625
816.666	27568
816.807	27542
816.948	27534
817.089	27633
817.23	27591
817.371	27530
817.512	27564
817.653	27500
817.793	27370
817.934	27405
818.075	27454
818.216	27496
818.356	27572
818.497	27329
818.638	27252
818.778	27218
818.919	27363
819.06	27245
819.2	27294
819.341	27507
819.481	27557
819.622	27652
819.762	27998
819.903	27755
820.043	27774
820.184	27698
820.324	27625
820.465	27603
820.605	27572
820.746	27682
820.886	27462
821.026	27553
821.167	27637
821.307	27595
821.447	27576
821.588	27382
821.728	27351
821.868	27157
822.008	27013
822.149	27108
822.289	26933
822.429	26724
822.569	26720
822.709	26830
822.849	26507
822.99	26492
823.13	26549
823.27	26511
823.41	26309
823.55	26214
823.69	26305
823.83	26370
823.97	26263
824.11	26077
824.25	26176
824.389	26126
824.529	26214
824.669	26096
824.809	26244
824.949	26256
825.089	26240
825.228	26149
825.368	26035
825.508	26008
825.648	25959
825.787	25940
825.927	26180
826.067	25925
826.206	26027
826.346	26043
826.485	26092
826.625	25932
826.765	26107
826.904	26084
827.044	25769
827.183	25685
827.323	25738
827.462	25712
827.601	25658
827.741	25700
827.88	25784
828.02	25635
828.159	25715
828.298	25624
828.437	25761
828.577	25715
828.716	25681
828.855	25635
828.994	25578
829.134	25388
829.273	25533
829.412	25472
829.551	25285
829.69	25476
829.829	25483
829.968	25495
830.107	25278
830.246	25457
830.385	25343
830.524	25426
830.663	25320
830.802	25198
830.941	25114
831.08	25050
831.219	25031
831.357	25213
831.496	25240
831.635	25031
831.774	24939
831.913	24890
832.051	24871
832.19	24646
832.329	24859
832.467	24745
832.606	24547
832.744	24623
832.883	24749
833.022	24563
833.16	24669
833.299	24707
833.437	24821
833.576	24806
833.714	24772
833.852	24791
833.991	24795
834.129	24791
834.267	24821
834.406	24776
834.544	24764
834.682	24776
834.821	24795
834.959	24882
835.097	24825
835.235	24817
835.373	24650
835.511	24635
835.65	24673
835.788	24585
835.926	24502
836.064	24361
836.202	24547
836.34	24646
836.478	24593
836.615	24563
836.753	24642
836.891	24658
837.029	24715
837.167	24483
837.305	24486
837.443	24475
837.58	24452
837.718	24448
837.856	24372
837.993	24319
838.131	24353
838.269	24197
838.406	24315
838.544	24163
838.681	24148
838.819	24038
838.956	23901
839.094	24022
839.231	23885
839.369	24049
839.506	24205
839.643	24053
839.781	23931
839.918	23901
840.055	23927
840.193	23843
840.33	23726
840.467	23809
840.604	23950
840.742	24117
840.879	23653
841.016	23783
841.153	23551
841.29	23927
841.427	23836
841.564	23752
841.701	23912
841.838	23687
841.975	23733
842.112	23684
842.249	23608
842.385	23577
842.522	23828
842.659	23566
842.796	23486
842.933	23611
843.069	23512
843.206	23493
843.343	23554
843.479	23619
843.616	23547
843.752	23265
843.889	23322
844.025	23417
844.162	23421
844.298	23440
844.435	23337
844.571	23269
844.708	23490
844.844	23539
844.98	23429
845.117	23455
845.253	23311
845.389	23136
845.525	23162
845.661	23216
845.798	23037
845.934	23204
846.07	23037
846.206	23102
846.342	23212
846.478	23048
846.614	22759
846.75	22729
846.886	22824
847.022	22904
847.158	22793
847.294	22797
847.429	22858
847.565	22767
847.701	23048
847.837	22569
847.972	22527
848.108	22744
848.244	22649
848.379	22519
848.515	22344
848.65	22379
848.786	22363
848.921	22413
849.057	22474
849.192	22481
849.328	22451
849.463	22512
849.598	22299
849.734	22219
849.869	22074
850.004	22143
850.14	22162
850.275	22188
850.41	22181
850.545	22097
850.68	22200
850.815	22188
850.95	22177
851.085	22268
851.22	22295
851.355	22185
851.49	22200
851.625	22112
851.76	22120
851.895	21987
852.03	22006
852.165	22154
852.299	22109
852.434	22158
852.569	22139
852.703	22055
852.838	22124
852.973	22268
853.107	22287
853.242	22086
853.376	21972
853.511	21701
853.645	21911
853.78	22105
853.914	22032
854.048	21930
854.183	22063
854.317	21926
854.451	22173
854.585	22002
854.72	21835
854.854	21953
854.988	21842
855.122	21915
855.256	21846
855.39	22013
855.524	21915
855.658	21991
855.792	22010
855.926	21987
856.06	21953
856.194	22048
856.327	21975
856.461	21937
856.595	21937
856.729	21873
856.862	22128
856.996	21991
857.13	22124
857.263	22090
857.397	22017
857.53	21880
857.664	22029
857.797	22147
857.931	22109
858.064	21972
858.197	22135
858.331	21934
858.464	21850
858.597	21880
858.731	21964
858.864	21812
858.997	21857
859.13	21991
859.263	22070
859.396	22059
859.529	21975
859.662	21987
859.795	21911
859.928	21876
860.061	22093
860.194	22181
860.327	21956
860.46	22036
860.592	22116
860.725	22067
860.858	22166
860.99	21960
861.123	21930
861.256	22017
861.388	22040
861.521	22733
861.653	21831
861.786	21701
861.918	21838
862.05	21899
862.183	21922
862.315	21819
862.447	21899
862.58	21861
862.712	21675
862.844	21656
862.976	21690
863.108	21671
863.24	22002
863.372	21648
863.504	21686
863.636	21538
863.768	21682
863.9	21667
864.032	21534
864.164	21564
864.296	21720
864.428	21739
864.559	21679
864.691	21701
864.823	21644
864.954	21629
865.086	21717
865.217	21485
865.349	21641
865.48	21652
865.612	21523
865.743	21736
865.875	21561
866.006	21496
866.137	21610
866.269	21485
866.4	21530
866.531	21386
866.662	21386
866.793	21477
866.924	21485
867.055	21519
867.186	21568
867.317	21530
867.448	21412
867.579	21370
867.71	21405
867.841	21374
867.972	21458
868.103	21492
868.233	21485
868.364	21363
868.495	21622
868.625	21629
868.756	21751
868.886	21690
869.017	21629
869.147	21857
869.278	21823
869.408	21667
869.539	21755
869.669	21762
869.799	21713
869.929	21720
870.06	21876
870.19	22002
870.32	22040
870.45	22169
870.58	22120
870.71	22162
870.84	22166
870.97	22112
871.1	22116
871.23	22261
871.36	22352
871.489	22215
871.619	22287
871.749	22363
871.879	22523
872.008	22363
872.138	22348
872.267	22344
872.397	22097
872.526	22128
872.656	22238
872.785	22150
872.915	22352
873.044	22436
873.173	22428
873.303	22390
873.432	22390
873.561	22325
873.69	22443
873.819	22382
873.948	22538
874.077	22280
874.206	22303
874.335	22291
874.464	22398
874.593	22508
874.722	22615
874.851	22603
874.979	22668
875.108	22672
875.237	22569
875.365	22531
875.494	22398
875.623	22474
875.751	22603
875.88	22645
876.008	22634
876.136	22721
876.265	22942
876.393	23071
876.521	22999
876.65	22965
876.778	22930
876.906	22961
877.034	22896
877.162	22923
877.29	22767
877.418	22927
877.546	22911
877.674	23048
877.802	22843
877.93	22904
878.058	22965
878.185	22793
878.313	22889
878.441	22869
878.568	22694
878.696	22744
878.824	22892
878.951	22904
879.079	23193
879.206	23288
879.333	23048
879.461	22812
879.588	22968
879.715	23067
879.842	23231
879.97	22934
880.097	22717
880.224	22812
880.351	22748
880.478	22729
880.605	22755
880.732	22702
880.859	22972
880.986	22733
881.112	22615
881.239	22584
881.366	22436
881.493	22375
881.619	22257
881.746	22356
881.872	22261
881.999	22242
882.125	22185
882.252	22276
882.378	22246
882.505	22284
882.631	22090
882.757	21956
882.883	22135
883.01	21895
883.136	21941
883.262	22002
883.388	21797
883.514	22010
883.64	21994
883.766	21994
883.892	21717
884.018	21701
884.143	21907
884.269	22086
884.395	21679
884.52	21564
884.646	21622
884.772	21583
884.897	21485
885.023	21660
885.148	21728
885.274	21747
885.399	21781
885.524	21542
885.65	21610
885.775	21576
885.9	21614
886.025	21739
886.15	21717
886.275	21663
886.4	21568
886.525	21614
886.65	21534
886.775	21542
886.9	21713
887.025	21857
887.149	21542
887.274	21412
887.399	21393
887.523	21424
887.648	21363
887.773	21272
887.897	21469
888.021	21351
888.146	21237
888.27	21447
888.395	21485
888.519	21272
888.643	21374
888.767	21424
888.891	21241
889.015	21154
889.139	21294
889.263	21298
889.387	21180
889.511	21374
889.635	21294
889.759	21039
889.883	21032
890.006	21119
890.13	21165
890.254	21093
890.377	21039
890.501	20971
890.624	20956
890.748	21089
890.871	20796
890.995	20708
891.118	20579
891.241	20701
891.364	20663
891.488	20750
891.611	20785
891.734	20716
891.857	20781
891.98	20861
892.103	20708
892.226	20735
892.349	20678
892.471	20541
892.594	20655
892.717	20678
892.839	20765
892.962	20488
893.085	20659
893.207	20602
893.33	20438
893.452	20606
893.575	20659
893.697	20533
893.819	20701
893.941	20769
894.064	20659
894.186	20636
894.308	20560
894.43	20640
894.552	20845
894.674	20758
894.796	20450
894.918	20686
895.04	20518
895.161	20522
895.283	20590
895.405	20492
895.526	20537
895.648	20545
895.769	20697
895.891	20625
896.012	20693
896.134	20625
896.255	20575
896.376	20663
896.498	20568
896.619	20655
896.74	20571
896.861	20609
896.982	20998
897.103	21085
897.224	20891
897.345	20716
897.466	20758
897.587	20773
897.708	20937
897.828	20811
897.949	20762
898.07	20674
898.19	20735
898.311	20982
898.431	20651
898.552	20773
898.672	20975
898.792	20838
898.913	20811
899.033	20712
899.153	20598
899.273	20499
899.393	20590
899.513	20651
899.633	20522
899.753	20503
899.873	20469
899.993	20625
900.113	20526
900.232	20609
900.352	20522
900.472	20400
900.591	20419
900.711	20431
900.83	20225
900.95	20423
901.069	20507
901.189	20168
901.308	19940
901.427	19883
901.546	19963
901.665	19845
901.784	19921
901.904	19803
902.023	19693
902.141	19533
902.26	19495
902.379	19487
902.498	19422
902.617	19381
902.735	19365
902.854	19460
902.973	19266
903.091	18981
903.21	19065
903.328	19019
903.446	18913
903.565	18932
903.683	18901
903.801	18760
903.919	18837
904.038	18837
904.156	18711
904.274	18677
904.392	18669
904.51	18616
904.627	18589
904.745	18673
904.863	18692
904.981	18372
905.098	18277
905.216	18285
905.334	18311
905.451	18308
905.569	18350
905.686	18350
905.803	18273
905.921	18079
906.038	18235
906.155	18213
906.272	18053
906.389	18007
906.506	17813
906.623	17847
906.74	17920
906.857	17707
906.974	17756
907.091	17954
907.208	17942
907.324	17824
907.441	17638
907.557	17630
907.674	17474
907.79	17497
907.907	17505
908.023	17535
908.139	17516
908.256	17581
908.372	17391
908.488	17315
908.604	17341
908.72	17216
908.836	17280
908.952	17239
909.068	17280
909.184	17421
909.3	17231
909.415	17204
909.531	17227
909.647	17083
909.762	17060
909.878	16938
909.993	17022
910.108	16911
910.224	16911
910.339	17025
910.454	16908
910.57	16752
910.685	16649
910.8	17022
910.915	16869
911.03	16771
911.145	16599
911.259	16630
911.374	16618
911.489	16493
911.604	16493
911.718	16356
911.833	16352
911.947	16188
912.062	16112
912.176	16325
912.291	16386
912.405	16242
912.519	16596
912.633	16546
912.748	16322
912.862	16337
912.976	16120
913.09	15964
913.204	16002
913.318	16147
913.431	16246
913.545	16112
913.659	16272
913.772	15987
913.886	15857
914	15861
914.113	16006
914.226	16010
914.34	15937
914.453	15884
914.566	15949
914.68	15766
914.793	15675
914.906	15584
915.019	15515
915.132	15496
915.245	15454
915.358	15481
915.47	15507
915.583	15450
915.696	15545
915.809	15580
915.921	15686
916.034	15462
916.146	15439
916.259	15332
916.371	15431
916.483	15344
916.595	15389
916.708	15370
916.82	15389
916.932	15344
917.044	15363
917.156	15279
917.268	15184
917.38	15173
917.491	15165
917.603	15157
917.715	15218
917.826	15218
917.938	15100
918.049	14982
918.161	15127
918.272	15321
918.384	15176
918.495	15119
918.606	14880
918.717	14849
918.828	15036
918.939	14925
919.05	14815
919.161	14773
919.272	14739
919.383	14781
919.494	14941
919.604	15055
919.715	14849
919.826	14811
919.936	14857
920.047	14906
920.157	14842
920.267	15074
920.378	14872
920.488	14769
920.598	15077
920.708	15116
920.818	14956
920.928	14982
921.038	15123
921.148	14967
921.258	14735
921.368	14773
921.477	14598
921.587	14552
921.697	14419
921.806	14602
921.916	14454
922.025	14233
922.134	14267
922.244	14233
922.353	14240
922.462	14145
922.571	14005
922.68	13852
922.789	13784
922.898	13936
923.007	13818
923.116	13868
923.224	13811
923.333	13822
923.442	13742
923.55	13670
923.659	13655
923.767	13734
923.876	13601
923.984	13639
924.092	13540
924.201	13632
924.309	13571
924.417	13537
924.525	13457
924.633	13578
924.741	14393
924.849	13331
924.956	13514
925.064	13365
925.172	13240
925.279	13213
925.387	13331
925.494	13240
925.602	13480
925.709	13282
925.816	13198
925.924	13255
926.031	13278
926.138	13190
926.245	13228
926.352	13076
926.459	13285
926.566	13285
926.673	13042
926.779	12993
926.886	13019
926.993	12840
927.099	12890
927.206	12722
927.312	12779
927.419	12875
927.525	12776
927.631	12840
927.737	12741
927.843	12528
927.95	12528
928.056	12547
928.162	12616
928.267	12665
928.373	13289
928.479	12757
928.585	12467
928.69	12665
928.796	12616
928.901	12494
929.007	12338
929.112	12479
929.218	12361
929.323	12319
929.428	12388
929.533	12486
929.638	12361
929.743	12323
929.848	12388
929.953	12266
930.058	12190
930.163	12003
930.267	12015
930.372	12144
930.477	12022
930.581	12262
930.685	12076
930.79	11916
930.894	11863
930.998	11908
931.103	12060
931.207	11642
931.311	11596
931.415	11577
931.519	11288
931.623	11280
