Data from test_V78500241_2787.txt Node
Date: Fri Mar 25 16:01:06 CST 2022
User: usil
Spectrometer: V785-0024
Trigger mode: 0
Integration Time (sec): 4.000000E-1
Scans to average: 1
Nonlinearity correction enabled: false
Boxcar width: 0
Storing dark spectrum: false
XAxis mode: Wavelengths
Number of Pixels in Spectrum: 1024
>>>>>Begin Spectral Data<<<<<
801.071	29185
801.214	29044
801.356	28934
801.499	28847
801.641	28835
801.783	28645
801.926	28820
802.068	28740
802.211	28763
802.353	28573
802.496	28580
802.638	28500
802.78	28424
802.923	28394
803.065	28344
803.208	28329
803.35	28443
803.492	28630
803.635	28710
803.777	28626
803.919	28691
804.061	29037
804.204	28729
804.346	28812
804.488	28687
804.63	28752
804.773	28698
804.915	28797
805.057	28900
805.199	28774
805.341	28759
805.483	28873
805.626	29003
805.768	28744
805.91	28949
806.052	28858
806.194	28877
806.336	29151
806.478	28908
806.62	28892
806.762	28934
806.904	29315
807.046	29353
807.188	29364
807.33	29383
807.472	29463
807.614	29307
807.756	29448
807.898	29155
808.04	29216
808.182	29223
808.324	29254
808.465	29277
808.607	29512
808.749	29771
808.891	29756
809.033	29862
809.174	29752
809.316	29619
809.458	29558
809.6	29482
809.741	29786
809.883	29809
810.025	29802
810.166	29798
810.308	29859
810.45	29840
810.591	29722
810.733	29710
810.875	29623
811.016	29505
811.158	29531
811.299	29551
811.441	29703
811.582	29737
811.724	29520
811.865	29718
812.007	29627
812.148	29661
812.29	29600
812.431	29912
812.573	30072
812.714	29942
812.855	30125
812.997	30292
813.138	30555
813.279	30224
813.421	30273
813.562	30114
813.703	30018
813.845	29999
813.986	29493
814.127	29429
814.268	29417
814.41	29375
814.551	29322
814.692	29235
814.833	29303
814.974	29345
815.115	29505
815.256	29250
815.397	29200
815.539	29349
815.68	29083
815.821	29261
815.962	29079
816.103	29102
816.244	28934
816.385	29060
816.526	28888
816.666	28725
816.807	28679
816.948	28622
817.089	28725
817.23	28675
817.371	28694
817.512	28683
817.653	28752
817.793	28516
817.934	28744
818.075	28721
818.216	28679
818.356	28523
818.497	28527
818.638	28417
818.778	28470
818.919	28462
819.06	28523
819.2	28611
819.341	28641
819.481	28603
819.622	28843
819.762	29075
819.903	28987
820.043	28771
820.184	28759
820.324	28740
820.465	28881
820.605	29010
820.746	28930
820.886	28554
821.026	28713
821.167	28763
821.307	28934
821.447	28687
821.588	28797
821.728	28531
821.868	28314
822.008	28287
822.149	28238
822.289	28192
822.429	27968
822.569	27819
822.709	27800
822.849	27671
822.99	27747
823.13	27637
823.27	27701
823.41	27530
823.55	27382
823.69	27462
823.83	27420
823.97	27530
824.11	27363
824.25	27256
824.389	27272
824.529	27481
824.669	27355
824.809	27519
824.949	27576
825.089	27485
825.228	27207
825.368	27218
825.508	27192
825.648	27306
825.787	27218
825.927	27348
826.067	27165
826.206	27211
826.346	27329
826.485	27321
826.625	27180
826.765	27298
826.904	27116
827.044	27047
827.183	27051
827.323	26948
827.462	26963
827.601	26967
827.741	26838
827.88	26921
828.02	26944
828.159	26876
828.298	26971
828.437	26895
828.577	26918
828.716	26937
828.855	26967
828.994	26492
829.134	26720
829.273	26739
829.412	26640
829.551	26518
829.69	26663
829.829	26670
829.968	26598
830.107	26640
830.246	26469
830.385	26590
830.524	26457
830.663	26347
830.802	26366
830.941	26180
831.08	26298
831.219	26294
831.357	26324
831.496	26404
831.635	26317
831.774	26111
831.913	26050
832.051	26039
832.19	25959
832.329	25936
832.467	25898
832.606	25830
832.744	25871
832.883	25902
833.022	25765
833.16	25814
833.299	25818
833.437	25966
833.576	25997
833.714	25978
833.852	26134
833.991	26111
834.129	26107
834.267	26092
834.406	25963
834.544	25993
834.682	25932
834.821	25944
834.959	26168
835.097	25932
835.235	26092
835.373	25932
835.511	25989
835.65	25788
835.788	25818
835.926	25658
836.064	25586
836.202	25643
836.34	25788
836.478	25940
836.615	25776
836.753	25830
836.891	25791
837.029	25746
837.167	25693
837.305	25575
837.443	25780
837.58	25575
837.718	25693
837.856	25613
837.993	25628
838.131	25708
838.269	25365
838.406	25635
838.544	25544
838.681	25244
838.819	25247
838.956	25103
839.094	25050
839.231	25156
839.369	25198
839.506	25384
839.643	25392
839.781	25069
839.918	24981
840.055	24970
840.193	24905
840.33	25000
840.467	24985
840.604	25080
840.742	25365
840.879	24848
841.016	24943
841.153	24878
841.29	25042
841.427	25027
841.564	25072
841.701	24935
841.838	24970
841.975	24825
842.112	24913
842.249	24791
842.385	24825
842.522	24970
842.659	24844
842.796	24776
842.933	24760
843.069	24635
843.206	24631
843.343	24913
843.479	24730
843.616	24677
843.752	24441
843.889	24601
844.025	24616
844.162	24467
844.298	24532
844.435	24483
844.571	24490
844.708	24467
844.844	24688
844.98	24646
845.117	24654
845.253	24353
845.389	24384
845.525	24551
845.661	24266
845.798	24270
845.934	24258
846.07	24277
846.206	24304
846.342	24346
846.478	24186
846.614	23965
846.75	23851
846.886	23942
847.022	23946
847.158	24034
847.294	23942
847.429	23988
847.565	23908
847.701	24224
847.837	23642
847.972	23608
848.108	23824
848.244	23802
848.379	23566
848.515	23535
848.65	23471
848.786	23497
848.921	23600
849.057	23672
849.192	23703
849.328	23649
849.463	23516
849.598	23452
849.734	23471
849.869	23353
850.004	23379
850.14	23326
850.275	23303
850.41	23181
850.545	23258
850.68	23341
850.815	23387
850.95	23258
851.085	23501
851.22	23387
851.355	23337
851.49	23273
851.625	23250
851.76	23178
851.895	23124
852.03	23109
852.165	23174
852.299	23349
852.434	23299
852.569	23334
852.703	23360
852.838	23376
852.973	23490
853.107	23425
853.242	23261
853.376	23086
853.511	23022
853.645	23147
853.78	23162
853.914	23083
854.048	23060
854.183	23018
854.317	23143
854.451	23197
854.585	23185
854.72	23090
854.854	23200
854.988	23117
855.122	23178
855.256	23071
855.39	23143
855.524	23166
855.658	23136
855.792	23178
855.926	23124
856.06	23216
856.194	23227
856.327	23044
856.461	23128
856.595	23117
856.729	23113
856.862	23284
856.996	23124
857.13	23178
857.263	23143
857.397	23200
857.53	23098
857.664	23052
857.797	23185
857.931	23261
858.064	23079
858.197	23227
858.331	23014
858.464	23223
858.597	23010
858.731	23102
858.864	23041
858.997	23090
859.13	23098
859.263	23155
859.396	23132
859.529	23052
859.662	23056
859.795	23006
859.928	23174
860.061	23250
860.194	23372
860.327	23189
860.46	23273
860.592	23197
860.725	23265
860.858	23250
860.99	23235
861.123	23250
861.256	23090
861.388	23216
861.521	23726
861.653	23018
861.786	22927
861.918	23044
862.05	22965
862.183	23064
862.315	23029
862.447	23128
862.58	23048
862.712	22858
862.844	22702
862.976	22820
863.108	22930
863.24	23254
863.372	22744
863.504	22812
863.636	22736
863.768	22858
863.9	22733
864.032	22729
864.164	22733
864.296	22828
864.428	22797
864.559	22824
864.691	22881
864.823	22854
864.954	22736
865.086	22892
865.217	22577
865.349	22626
865.48	22698
865.612	22767
865.743	22877
865.875	22805
866.006	22694
866.137	22752
866.269	22767
866.4	22774
866.531	22637
866.662	22577
866.793	22618
866.924	22660
867.055	22664
867.186	22691
867.317	22611
867.448	22538
867.579	22694
867.71	22428
867.841	22500
867.972	22485
868.103	22630
868.233	22653
868.364	22611
868.495	22702
868.625	22889
868.756	22946
868.886	22885
869.017	22877
869.147	23029
869.278	23018
869.408	22828
869.539	22839
869.669	22831
869.799	22911
869.929	22968
870.06	22953
870.19	23117
870.32	23189
870.45	23086
870.58	23322
870.71	23429
870.84	23227
870.97	23261
871.1	23197
871.23	23280
871.36	23459
871.489	23417
871.619	23364
871.749	23330
871.879	23414
872.008	23459
872.138	23455
872.267	23379
872.397	23402
872.526	23174
872.656	23273
872.785	23299
872.915	23383
873.044	23638
873.173	23364
873.303	23596
873.432	23531
873.561	23619
873.69	23493
873.819	23395
873.948	23672
874.077	23505
874.206	23406
874.335	23528
874.464	23668
874.593	23695
874.722	23649
874.851	23684
874.979	23805
875.108	23691
875.237	23634
875.365	23577
875.494	23615
875.623	23767
875.751	23592
875.88	23729
876.008	23703
876.136	23882
876.265	23984
876.393	24182
876.521	24152
876.65	24178
876.778	24068
876.906	24041
877.034	24030
877.162	24129
877.29	24041
877.418	24064
877.546	24053
877.674	24034
877.802	23878
877.93	24038
878.058	23889
878.185	23912
878.313	23904
878.441	23859
878.568	23836
878.696	24011
878.824	24091
878.951	24106
879.079	24148
879.206	24232
879.333	24045
879.461	24053
879.588	24174
879.715	24205
879.842	24289
879.97	24030
880.097	23923
880.224	23889
880.351	23946
880.478	23824
880.605	23764
880.732	23798
880.859	23992
880.986	23832
881.112	23889
881.239	23764
881.366	23421
881.493	23440
881.619	23356
881.746	23493
881.872	23372
881.999	23364
882.125	23322
882.252	23376
882.378	23341
882.505	23444
882.631	23166
882.757	22938
882.883	23109
883.01	22987
883.136	23010
883.262	22949
883.388	22854
883.514	23083
883.64	23060
883.766	22980
883.892	22942
884.018	22831
884.143	23022
884.269	23048
884.395	22649
884.52	22660
884.646	22687
884.772	22653
884.897	22630
885.023	22809
885.148	22622
885.274	22759
885.399	22839
885.524	22812
885.65	22725
885.775	22733
885.9	22607
886.025	22786
886.15	22668
886.275	22561
886.4	22599
886.525	22698
886.65	22596
886.775	22394
886.9	22592
887.025	22873
887.149	22626
887.274	22440
887.399	22375
887.523	22440
887.648	22329
887.773	22325
887.897	22440
888.021	22360
888.146	22459
888.27	22474
888.395	22497
888.519	22382
888.643	22398
888.767	22470
888.891	22356
889.015	22284
889.139	22333
889.263	22169
889.387	22314
889.511	22436
889.635	22436
889.759	22139
889.883	22158
890.006	22181
890.13	22432
890.254	22063
890.377	22181
890.501	21960
890.624	21994
890.748	22112
890.871	21827
890.995	21736
891.118	21690
891.241	21804
891.364	21869
891.488	21793
891.611	21759
891.734	21759
891.857	21720
891.98	21595
892.103	21766
892.226	21671
892.349	21713
892.471	21530
892.594	21629
892.717	21682
892.839	21660
892.962	21755
893.085	21705
893.207	21583
893.33	21606
893.452	21488
893.575	21622
893.697	21526
893.819	21701
893.941	21774
894.064	21793
894.186	21606
894.308	21561
894.43	21675
894.552	21755
894.674	21717
894.796	21504
894.918	21557
895.04	21561
895.161	21656
895.283	21534
895.405	21561
895.526	21591
895.648	21610
895.769	21625
895.891	21591
896.012	21492
896.134	21717
896.255	21614
896.376	21633
896.498	21595
896.619	21656
896.74	21466
896.861	21561
896.982	21842
897.103	22044
897.224	21831
897.345	21823
897.466	21743
897.587	21682
897.708	21888
897.828	21743
897.949	21793
898.07	21682
898.19	21682
898.311	21766
898.431	21720
898.552	21755
898.672	21884
898.792	21770
898.913	21842
899.033	21641
899.153	21724
899.273	21458
899.393	21473
899.513	21568
899.633	21534
899.753	21538
899.873	21401
899.993	21553
900.113	21496
900.232	21553
900.352	21321
900.472	21397
900.591	21252
900.711	21230
900.83	21146
900.95	21306
901.069	21374
901.189	21131
901.308	20960
901.427	20720
901.546	20834
901.665	20948
901.784	20834
901.904	20655
902.023	20480
902.141	20423
902.26	20233
902.379	20305
902.498	20237
902.617	20355
902.735	20396
902.854	20370
902.973	20275
903.091	19925
903.21	20092
903.328	19940
903.446	19902
903.565	19765
903.683	19864
903.801	19620
903.919	19635
904.038	19696
904.156	19518
904.274	19590
904.392	19480
904.51	19537
904.627	19483
904.745	19552
904.863	19616
904.981	19331
905.098	19057
905.216	19270
905.334	19373
905.451	19179
905.569	19084
905.686	19206
905.803	19228
905.921	18985
906.038	19069
906.155	18920
906.272	18856
906.389	18943
906.506	18779
906.623	18703
906.74	18764
906.857	18589
906.974	18654
907.091	18882
907.208	18810
907.324	18741
907.441	18654
907.557	18471
907.674	18273
907.79	18502
907.907	18407
908.023	18456
908.139	18353
908.256	18407
908.372	18273
908.488	18319
908.604	18296
908.72	18083
908.836	18197
908.952	18102
909.068	18201
909.184	18072
909.3	18106
909.415	18091
909.531	18034
909.647	17783
909.762	17729
909.878	17859
909.993	17847
910.108	17798
910.224	17684
910.339	17756
910.454	17668
910.57	17566
910.685	17566
910.8	17737
910.915	17718
911.03	17532
911.145	17421
911.259	17326
911.374	17356
911.489	17353
911.604	17265
911.718	17117
911.833	17200
911.947	17045
912.062	17014
912.176	17029
912.291	17189
912.405	17117
912.519	17242
912.633	17303
912.748	17159
912.862	17113
912.976	16942
913.09	16847
913.204	16889
913.318	16881
913.431	16938
913.545	16946
913.659	17014
913.772	16828
913.886	16748
914	16691
914.113	16725
914.226	16763
914.34	16771
914.453	16649
914.566	16729
914.68	16630
914.793	16478
914.906	16310
915.019	16169
915.132	16211
915.245	16299
915.358	16318
915.47	16348
915.583	16272
915.696	16207
915.809	16398
915.921	16443
916.034	16211
916.146	16116
916.259	16139
916.371	16314
916.483	16223
916.595	16169
916.708	16120
916.82	15987
916.932	16032
917.044	16021
917.156	16074
917.268	15922
917.38	15899
917.491	15781
917.603	15956
917.715	16059
917.826	16048
917.938	15827
918.049	15728
918.161	15937
918.272	16006
918.384	15922
918.495	15857
918.606	15614
918.717	15561
918.828	15584
918.939	15732
919.05	15500
919.161	15488
919.272	15393
919.383	15492
919.494	15701
919.604	15846
919.715	15675
919.826	15504
919.936	15538
920.047	15637
920.157	15561
920.267	15842
920.378	15671
920.488	15492
920.598	15690
920.708	15941
920.818	15759
920.928	15739
921.038	15884
921.148	15831
921.258	15534
921.368	15511
921.477	15310
921.587	15245
921.697	15165
921.806	15310
921.916	15192
922.025	15066
922.134	15039
922.244	14891
922.353	14952
922.462	14864
922.571	14830
922.68	14629
922.789	14552
922.898	14651
923.007	14526
923.116	14655
923.224	14590
923.333	14590
923.442	14370
923.55	14503
923.659	14404
923.767	14450
923.876	14381
923.984	14389
924.092	14320
924.201	14301
924.309	14278
924.417	14240
924.525	14176
924.633	14180
924.741	15127
924.849	14005
924.956	14111
925.064	13879
925.172	13868
925.279	13845
925.387	13947
925.494	13970
925.602	14092
925.709	13982
925.816	13890
925.924	13818
926.031	13959
926.138	13974
926.245	13940
926.352	13685
926.459	13963
926.566	13906
926.673	13731
926.779	13693
926.886	13670
926.993	13578
927.099	13483
927.206	13464
927.312	13472
927.419	13575
927.525	13472
927.631	13495
927.737	13407
927.843	13320
927.95	13202
928.056	13202
928.162	13369
928.267	13343
928.373	13864
928.479	13285
928.585	13034
928.69	13168
928.796	13278
928.901	13122
929.007	12985
929.112	13171
929.218	13023
929.323	13000
929.428	12928
929.533	13076
929.638	12993
929.743	12924
929.848	12977
929.953	12928
930.058	12905
930.163	12681
930.267	12612
930.372	12749
930.477	12631
930.581	12848
930.685	12646
930.79	12498
930.894	12585
930.998	12513
931.103	12654
931.207	12262
931.311	12114
931.415	12076
931.519	11859
931.623	11893
