Data from test_V78500241_3754.txt Node
Date: Fri Mar 25 16:07:48 CST 2022
User: usil
Spectrometer: V785-0024
Trigger mode: 0
Integration Time (sec): 4.000000E-1
Scans to average: 1
Nonlinearity correction enabled: false
Boxcar width: 0
Storing dark spectrum: false
XAxis mode: Wavelengths
Number of Pixels in Spectrum: 1024
>>>>>Begin Spectral Data<<<<<
801.071	27184
801.214	27005
801.356	26929
801.499	26750
801.641	26842
801.783	26826
801.926	26944
802.068	26914
802.211	26838
802.353	26807
802.496	26819
802.638	26720
802.78	26746
802.923	26651
803.065	26629
803.208	26777
803.35	26834
803.492	26979
803.635	27074
803.777	26902
803.919	27096
804.061	27363
804.204	27222
804.346	27013
804.488	27104
804.63	27233
804.773	27047
804.915	27119
805.057	27325
805.199	27150
805.341	27329
805.483	27378
805.626	27306
805.768	27287
805.91	27233
806.052	27450
806.194	27245
806.336	27561
806.478	27458
806.62	27370
806.762	27538
806.904	27667
807.046	27793
807.188	27979
807.33	27766
807.472	27869
807.614	27911
807.756	27724
807.898	27553
808.04	27610
808.182	27667
808.324	27660
808.465	27808
808.607	27911
808.749	27987
808.891	28158
809.033	28325
809.174	28044
809.316	28010
809.458	28051
809.6	28021
809.741	28230
809.883	28150
810.025	28223
810.166	28295
810.308	28325
810.45	28348
810.591	28143
810.733	28044
810.875	27979
811.016	27899
811.158	27972
811.299	28090
811.441	28120
811.582	28158
811.724	28029
811.865	28109
812.007	27983
812.148	27960
812.29	28044
812.431	28192
812.573	28371
812.714	28466
812.855	28516
812.997	28637
813.138	28713
813.279	28793
813.421	28691
813.562	28493
813.703	28352
813.845	28177
813.986	28013
814.127	27907
814.268	27679
814.41	27762
814.551	27793
814.692	27713
814.833	27625
814.974	27838
815.115	27671
815.256	27561
815.397	27724
815.539	27523
815.68	27542
815.821	27454
815.962	27724
816.103	27507
816.244	27370
816.385	27359
816.526	27386
816.666	27268
816.807	27058
816.948	27161
817.089	27157
817.23	27123
817.371	27077
817.512	27100
817.653	27028
817.793	26967
817.934	27058
818.075	27150
818.216	27123
818.356	26982
818.497	27070
818.638	26891
818.778	26796
818.919	27001
819.06	26940
819.2	26967
819.341	27161
819.481	27169
819.622	27370
819.762	27416
819.903	27435
820.043	27408
820.184	27233
820.324	27260
820.465	27207
820.605	27298
820.746	27298
820.886	27230
821.026	27279
821.167	27157
821.307	27336
821.447	27180
821.588	27039
821.728	26944
821.868	26769
822.008	26712
822.149	26670
822.289	26739
822.429	26450
822.569	26404
822.709	26347
822.849	26240
822.99	26191
823.13	26229
823.27	26278
823.41	25932
823.55	25875
823.69	26073
823.83	26046
823.97	25928
824.11	25856
824.25	25670
824.389	25772
824.529	25951
824.669	25875
824.809	25936
824.949	25974
825.089	25978
825.228	25928
825.368	25552
825.508	25628
825.648	25689
825.787	25826
825.927	25887
826.067	25734
826.206	25731
826.346	25856
826.485	25875
826.625	25734
826.765	25742
826.904	25761
827.044	25464
827.183	25590
827.323	25479
827.462	25594
827.601	25377
827.741	25616
827.88	25514
828.02	25343
828.159	25552
828.298	25582
828.437	25590
828.577	25343
828.716	25613
828.855	25499
828.994	25228
829.134	25236
829.273	25266
829.412	25346
829.551	25118
829.69	25194
829.829	25270
829.968	25301
830.107	25244
830.246	25179
830.385	25202
830.524	25221
830.663	25046
830.802	24935
830.941	24882
831.08	24772
831.219	24996
831.357	24909
831.496	25061
831.635	24897
831.774	24821
831.913	24909
832.051	24711
832.19	24684
832.329	24623
832.467	24441
832.606	24601
832.744	24361
832.883	24639
833.022	24509
833.16	24593
833.299	24646
833.437	24620
833.576	24585
833.714	24563
833.852	24711
833.991	24665
834.129	24642
834.267	24738
834.406	24570
834.544	24779
834.682	24639
834.821	24505
834.959	24753
835.097	24574
835.235	24650
835.373	24642
835.511	24597
835.65	24471
835.788	24532
835.926	24403
836.064	24292
836.202	24323
836.34	24559
836.478	24658
836.615	24414
836.753	24471
836.891	24669
837.029	24566
837.167	24460
837.305	24429
837.443	24494
837.58	24327
837.718	24422
837.856	24483
837.993	24365
838.131	24357
838.269	24285
838.406	24330
838.544	24102
838.681	24129
838.819	24095
838.956	23794
839.094	23805
839.231	23969
839.369	24026
839.506	24361
839.643	24060
839.781	23923
839.918	23840
840.055	23859
840.193	23752
840.33	23859
840.467	23729
840.604	23893
840.742	24098
840.879	23661
841.016	23611
841.153	23573
841.29	23904
841.427	23805
841.564	23946
841.701	23798
841.838	23843
841.975	23737
842.112	23779
842.249	23634
842.385	23581
842.522	23882
842.659	23691
842.796	23619
842.933	23570
843.069	23668
843.206	23539
843.343	23729
843.479	23657
843.616	23570
843.752	23452
843.889	23471
844.025	23566
844.162	23436
844.298	23474
844.435	23410
844.571	23341
844.708	23467
844.844	23581
844.98	23535
845.117	23490
845.253	23478
845.389	23292
845.525	23398
845.661	23239
845.798	23136
845.934	23277
846.07	23124
846.206	23170
846.342	23391
846.478	23246
846.614	23025
846.75	22782
846.886	22927
847.022	23060
847.158	22946
847.294	22965
847.429	23041
847.565	22873
847.701	23235
847.837	22702
847.972	22573
848.108	22793
848.244	22710
848.379	22489
848.515	22462
848.65	22462
848.786	22641
848.921	22519
849.057	22653
849.192	22672
849.328	22637
849.463	22455
849.598	22489
849.734	22394
849.869	22390
850.004	22280
850.14	22329
850.275	22409
850.41	22329
850.545	22280
850.68	22421
850.815	22402
850.95	22223
851.085	22382
851.22	22402
851.355	22238
851.49	22295
851.625	22280
851.76	22306
851.895	22181
852.03	22177
852.165	22253
852.299	22398
852.434	22459
852.569	22322
852.703	22413
852.838	22379
852.973	22523
853.107	22440
853.242	22428
853.376	22219
853.511	22112
853.645	22006
853.78	22204
853.914	22150
854.048	22116
854.183	22097
854.317	22192
854.451	22367
854.585	22124
854.72	22188
854.854	22246
854.988	22051
855.122	22249
855.256	21983
855.39	22158
855.524	22173
855.658	22128
855.792	22162
855.926	22131
856.06	22219
856.194	22303
856.327	22048
856.461	22040
856.595	22086
856.729	22207
856.862	22333
856.996	22356
857.13	22215
857.263	22386
857.397	22200
857.53	22116
857.664	22135
857.797	22284
857.931	22382
858.064	22188
858.197	22329
858.331	22173
858.464	22139
858.597	22025
858.731	22158
858.864	22116
858.997	22109
859.13	22147
859.263	22192
859.396	22329
859.529	22090
859.662	22025
859.795	22169
859.928	22177
860.061	22166
860.194	22325
860.327	22200
860.46	22154
860.592	22249
860.725	22310
860.858	22379
860.99	22181
861.123	22166
861.256	22097
861.388	22192
861.521	22949
861.653	22010
861.786	21922
861.918	21991
862.05	22078
862.183	22135
862.315	22181
862.447	22207
862.58	22074
862.712	21797
862.844	21739
862.976	21953
863.108	21903
863.24	22325
863.372	21937
863.504	21956
863.636	21888
863.768	21911
863.9	21823
864.032	21850
864.164	21778
864.296	21835
864.428	22017
864.559	22025
864.691	22013
864.823	21873
864.954	21797
865.086	21789
865.217	21869
865.349	21770
865.48	21759
865.612	21713
865.743	21880
865.875	21762
866.006	21804
866.137	21705
866.269	21804
866.4	21675
866.531	21671
866.662	21690
866.793	21652
866.924	21705
867.055	21599
867.186	21709
867.317	21667
867.448	21591
867.579	21705
867.71	21553
867.841	21663
867.972	21797
868.103	21759
868.233	21633
868.364	21641
868.495	21842
868.625	21869
868.756	22017
868.886	21789
869.017	22010
869.147	22135
869.278	21953
869.408	21968
869.539	21972
869.669	21987
869.799	21964
869.929	21968
870.06	21964
870.19	22306
870.32	22325
870.45	22280
870.58	22402
870.71	22481
870.84	22386
870.97	22291
871.1	22314
871.23	22573
871.36	22523
871.489	22466
871.619	22542
871.749	22527
871.879	22500
872.008	22546
872.138	22508
872.267	22497
872.397	22386
872.526	22295
872.656	22459
872.785	22436
872.915	22736
873.044	22622
873.173	22519
873.303	22618
873.432	22565
873.561	22565
873.69	22561
873.819	22599
873.948	22577
874.077	22519
874.206	22656
874.335	22428
874.464	22649
874.593	22713
874.722	22786
874.851	22740
874.979	22790
875.108	22877
875.237	22626
875.365	22645
875.494	22603
875.623	22839
875.751	22733
875.88	22881
876.008	22953
876.136	22965
876.265	23189
876.393	23341
876.521	23189
876.65	23318
876.778	23181
876.906	23292
877.034	23143
877.162	23064
877.29	23128
877.418	23124
877.546	23128
877.674	23189
877.802	23197
877.93	23239
878.058	23132
878.185	23022
878.313	23033
878.441	23094
878.568	23064
878.696	22987
878.824	23090
878.951	23246
879.079	23452
879.206	23448
879.333	23356
879.461	23159
879.588	23330
879.715	23318
879.842	23368
879.97	23280
880.097	22976
880.224	22934
880.351	23098
880.478	23048
880.605	22987
880.732	22953
880.859	23299
880.986	22984
881.112	23060
881.239	22782
881.366	22767
881.493	22641
881.619	22512
881.746	22561
881.872	22573
881.999	22573
882.125	22478
882.252	22615
882.378	22607
882.505	22577
882.631	22360
882.757	22192
882.883	22325
883.01	22268
883.136	22226
883.262	22128
883.388	22105
883.514	22188
883.64	22295
883.766	22230
883.892	22036
884.018	22040
884.143	22280
884.269	22234
884.395	21987
884.52	21800
884.646	22013
884.772	21880
884.897	21724
885.023	21960
885.148	22017
885.274	22112
885.399	21983
885.524	21945
885.65	21937
885.775	22013
885.9	21884
886.025	22025
886.15	22036
886.275	21827
886.4	21861
886.525	21915
886.65	21827
886.775	21743
886.9	22010
887.025	21956
887.149	21888
887.274	21747
887.399	21648
887.523	21599
887.648	21622
887.773	21519
887.897	21705
888.021	21625
888.146	21576
888.27	21850
888.395	21629
888.519	21663
888.643	21698
888.767	21652
888.891	21595
889.015	21435
889.139	21397
889.263	21443
889.387	21485
889.511	21625
889.635	21542
889.759	21397
889.883	21393
890.006	21355
890.13	21454
890.254	21332
890.377	21169
890.501	21279
890.624	21123
890.748	21233
890.871	21062
890.995	20807
891.118	20941
891.241	21001
891.364	20967
891.488	21024
891.611	20880
891.734	20963
891.857	20895
891.98	21005
892.103	20975
892.226	20906
892.349	20891
892.471	20762
892.594	20891
892.717	20838
892.839	20861
892.962	20773
893.085	20838
893.207	20819
893.33	20705
893.452	20697
893.575	20762
893.697	20727
893.819	20918
893.941	20834
894.064	20876
894.186	20712
894.308	20594
894.43	20834
894.552	20933
894.674	20724
894.796	20777
894.918	20800
895.04	20678
895.161	20842
895.283	20678
895.405	20682
895.526	20788
895.648	20598
895.769	20670
895.891	20746
896.012	20849
896.134	20792
896.255	20815
896.376	20594
896.498	20754
896.619	20697
896.74	20609
896.861	20758
896.982	20899
897.103	21089
897.224	20887
897.345	20914
897.466	20785
897.587	20819
897.708	20838
897.828	20842
897.949	20758
898.07	20522
898.19	20594
898.311	20895
898.431	20644
898.552	20804
898.672	20891
898.792	20826
898.913	20735
899.033	20613
899.153	20587
899.273	20298
899.393	20495
899.513	20533
899.633	20533
899.753	20473
899.873	20313
899.993	20450
900.113	20309
900.232	20206
900.352	20187
900.472	20199
900.591	20046
900.711	20164
900.83	19993
900.95	20275
901.069	20202
901.189	20058
901.308	19909
901.427	19856
901.546	19734
901.665	19776
901.784	19818
901.904	19689
902.023	19594
902.141	19278
902.26	19388
902.379	19369
902.498	19324
902.617	19293
902.735	19365
902.854	19362
902.973	19244
903.091	19027
903.21	18943
903.328	18989
903.446	18981
903.565	18867
903.683	18920
903.801	18665
903.919	18795
904.038	18802
904.156	18650
904.274	18719
904.392	18642
904.51	18684
904.627	18658
904.745	18642
904.863	18642
904.981	18570
905.098	18380
905.216	18311
905.334	18460
905.451	18350
905.569	18528
905.686	18399
905.803	18296
905.921	18201
906.038	18327
906.155	18182
906.272	18095
906.389	18186
906.506	17950
906.623	17980
906.74	17855
906.857	17889
906.974	17954
907.091	18072
907.208	18053
907.324	18007
907.441	17946
907.557	17783
907.674	17840
907.79	17668
907.907	17653
908.023	17760
908.139	17821
908.256	17752
908.372	17695
908.488	17543
908.604	17535
908.72	17406
908.836	17566
908.952	17360
909.068	17463
909.184	17524
909.3	17539
909.415	17535
909.531	17520
909.647	17402
909.762	17258
909.878	17102
909.993	17239
910.108	17147
910.224	17083
910.339	17166
910.454	17056
910.57	17048
910.685	16854
910.8	17261
910.915	17265
911.03	16999
911.145	16892
911.259	16774
911.374	16835
911.489	16653
911.604	16698
911.718	16546
911.833	16721
911.947	16432
912.062	16413
912.176	16596
912.291	16504
912.405	16538
912.519	16706
912.633	16786
912.748	16596
912.862	16535
912.976	16344
913.09	16310
913.204	16344
913.318	16329
913.431	16459
913.545	16504
913.659	16516
913.772	16284
913.886	16200
914	16109
914.113	16303
914.226	16295
914.34	16249
914.453	15975
914.566	16207
914.68	16021
914.793	16002
914.906	15835
915.019	15797
915.132	15701
915.245	15701
915.358	15827
915.47	15869
915.583	15667
915.696	15812
915.809	15880
915.921	15964
916.034	15743
916.146	15679
916.259	15625
916.371	15743
916.483	15747
916.595	15549
916.708	15648
916.82	15637
916.932	15618
917.044	15595
917.156	15458
917.268	15351
917.38	15458
917.491	15355
917.603	15336
917.715	15447
917.826	15500
917.938	15306
918.049	15264
918.161	15283
918.272	15443
918.384	15462
918.495	15275
918.606	15188
918.717	15100
918.828	15230
918.939	15112
919.05	15100
919.161	15093
919.272	14842
919.383	15001
919.494	15180
919.604	15264
919.715	15081
919.826	14994
919.936	15001
920.047	15036
920.157	15119
920.267	15321
920.378	14982
920.488	15055
920.598	15203
920.708	15405
920.818	15173
920.928	15249
921.038	15412
921.148	15302
921.258	15024
921.368	15013
921.477	14883
921.587	14826
921.697	14670
921.806	14762
921.916	14644
922.025	14488
922.134	14503
922.244	14431
922.353	14438
922.462	14324
922.571	14339
922.68	14142
922.789	14073
922.898	14115
923.007	13993
923.116	14065
923.224	14046
923.333	13967
923.442	13887
923.55	13871
923.659	13951
923.767	13947
923.876	13803
923.984	13921
924.092	13887
924.201	13719
924.309	13822
924.417	13719
924.525	13784
924.633	13761
924.741	14689
924.849	13514
924.956	13670
925.064	13529
925.172	13339
925.279	13453
925.387	13510
925.494	13525
925.602	13525
925.709	13518
925.816	13343
925.924	13365
926.031	13434
926.138	13434
926.245	13457
926.352	13206
926.459	13457
926.566	13495
926.673	13297
926.779	13263
926.886	13171
926.993	13095
927.099	12985
927.206	12897
927.312	12939
927.419	13046
927.525	13000
927.631	12951
927.737	12878
927.843	12867
927.95	12798
928.056	12848
928.162	12802
928.267	12856
928.373	13438
928.479	12852
928.585	12604
928.69	12768
928.796	12703
928.901	12639
929.007	12601
929.112	12673
929.218	12612
929.323	12498
929.428	12521
929.533	12566
929.638	12445
929.743	12494
929.848	12532
929.953	12475
930.058	12273
930.163	12201
930.267	12129
930.372	12304
930.477	12087
930.581	12380
930.685	12262
930.79	12053
930.894	12049
930.998	12041
931.103	12194
931.207	11824
931.311	11714
931.415	11604
931.519	11425
931.623	11417
