Data from test_V78500241_3630.txt Node
Date: Fri Mar 25 16:06:56 CST 2022
User: usil
Spectrometer: V785-0024
Trigger mode: 0
Integration Time (sec): 4.000000E-1
Scans to average: 1
Nonlinearity correction enabled: false
Boxcar width: 0
Storing dark spectrum: false
XAxis mode: Wavelengths
Number of Pixels in Spectrum: 1024
>>>>>Begin Spectral Data<<<<<
801.071	28649
801.214	28565
801.356	28421
801.499	28299
801.641	28207
801.783	28253
801.926	28226
802.068	28265
802.211	28215
802.353	28158
802.496	27930
802.638	27903
802.78	27914
802.923	27892
803.065	27759
803.208	27987
803.35	27941
803.492	28078
803.635	28344
803.777	28109
803.919	28257
804.061	28580
804.204	28337
804.346	28215
804.488	27994
804.63	28169
804.773	28029
804.915	28226
805.057	28360
805.199	28147
805.341	28158
805.483	28265
805.626	28314
805.768	28177
805.91	28272
806.052	28371
806.194	28204
806.336	28466
806.478	28310
806.62	28322
806.762	28538
806.904	28519
807.046	28843
807.188	28752
807.33	28904
807.472	28919
807.614	28634
807.756	28767
807.898	28535
808.04	28493
808.182	28550
808.324	28573
808.465	28668
808.607	28911
808.749	28980
808.891	29102
809.033	29204
809.174	29018
809.316	29022
809.458	29018
809.6	28885
809.741	29060
809.883	29174
810.025	29197
810.166	29417
810.308	29334
810.45	29193
810.591	29212
810.733	29052
810.875	29037
811.016	28999
811.158	28934
811.299	29143
811.441	29155
811.582	29166
811.724	29014
811.865	29029
812.007	29033
812.148	29044
812.29	29174
812.431	29155
812.573	29478
812.714	29395
812.855	29547
812.997	29543
813.138	29668
813.279	29764
813.421	29448
813.562	29467
813.703	29368
813.845	29296
813.986	29044
814.127	28816
814.268	28721
814.41	28713
814.551	28759
814.692	28755
814.833	28653
814.974	28679
815.115	28801
815.256	28596
815.397	28588
815.539	28481
815.68	28497
815.821	28379
815.962	28668
816.103	28424
816.244	28527
816.385	28367
816.526	28261
816.666	28200
816.807	27949
816.948	28070
817.089	28196
817.23	28154
817.371	27968
817.512	28067
817.653	28021
817.793	27880
817.934	28131
818.075	28147
818.216	28097
818.356	27979
818.497	28055
818.638	27732
818.778	27835
818.919	27789
819.06	27907
819.2	27941
819.341	28139
819.481	27979
819.622	28112
819.762	28481
819.903	28287
820.043	28246
820.184	28169
820.324	28257
820.465	28177
820.605	28276
820.746	28150
820.886	28048
821.026	28211
821.167	28124
821.307	28192
821.447	28059
821.588	28078
821.728	28010
821.868	27781
822.008	27614
822.149	27519
822.289	27450
822.429	27363
822.569	27222
822.709	27332
822.849	27161
822.99	27077
823.13	27104
823.27	26998
823.41	26937
823.55	26777
823.69	26979
823.83	26944
823.97	26739
824.11	26541
824.25	26514
824.389	26731
824.529	26667
824.669	26746
824.809	26800
824.949	26849
825.089	26823
825.228	26746
825.368	26598
825.508	26579
825.648	26526
825.787	26632
825.927	26625
826.067	26667
826.206	26511
826.346	26632
826.485	26613
826.625	26754
826.765	26678
826.904	26678
827.044	26381
827.183	26377
827.323	26336
827.462	26298
827.601	26172
827.741	26252
827.88	26385
828.02	26115
828.159	26195
828.298	26332
828.437	26473
828.577	26267
828.716	26351
828.855	26065
828.994	25966
829.134	26084
829.273	26077
829.412	25955
829.551	26020
829.69	25951
829.829	26027
829.968	25932
830.107	26081
830.246	25986
830.385	25936
830.524	25841
830.663	25879
830.802	25723
830.941	25613
831.08	25483
831.219	25601
831.357	25772
831.496	25830
831.635	25510
831.774	25460
831.913	25426
832.051	25453
832.19	25304
832.329	25396
832.467	25285
832.606	25122
832.744	25084
832.883	25247
833.022	25206
833.16	25251
833.299	25202
833.437	25301
833.576	25308
833.714	25324
833.852	25377
833.991	25384
834.129	25392
834.267	25384
834.406	25331
834.544	25327
834.682	25339
834.821	25312
834.959	25468
835.097	25206
835.235	25381
835.373	25168
835.511	25190
835.65	25156
835.788	25259
835.926	25156
836.064	25023
836.202	24943
836.34	25293
836.478	25327
836.615	25148
836.753	25164
836.891	25263
837.029	25076
837.167	25122
837.305	25095
837.443	24954
837.58	24954
837.718	25084
837.856	24810
837.993	24844
838.131	25031
838.269	24734
838.406	24913
838.544	24837
838.681	24544
838.819	24715
838.956	24441
839.094	24517
839.231	24460
839.369	24604
839.506	24913
839.643	24593
839.781	24388
839.918	24350
840.055	24445
840.193	24384
840.33	24365
840.467	24407
840.604	24391
840.742	24593
840.879	24285
841.016	24315
841.153	24186
841.29	24414
841.427	24380
841.564	24254
841.701	24220
841.838	24186
841.975	24194
842.112	24327
842.249	24178
842.385	24136
842.522	24414
842.659	24026
842.796	24064
842.933	24209
843.069	24102
843.206	24034
843.343	24186
843.479	24049
843.616	24064
843.752	23798
843.889	23927
844.025	24087
844.162	23828
844.298	23931
844.435	23828
844.571	23832
844.708	23847
844.844	24125
844.98	24034
845.117	24049
845.253	23786
845.389	23859
845.525	23824
845.661	23699
845.798	23600
845.934	23600
846.07	23630
846.206	23733
846.342	23828
846.478	23726
846.614	23372
846.75	23315
846.886	23311
847.022	23372
847.158	23349
847.294	23353
847.429	23406
847.565	23227
847.701	23429
847.837	23113
847.972	23018
848.108	23140
848.244	23239
848.379	22885
848.515	22953
848.65	22797
848.786	22869
848.921	22961
849.057	23033
849.192	22999
849.328	22961
849.463	22927
849.598	22850
849.734	22843
849.869	22774
850.004	22748
850.14	22725
850.275	22626
850.41	22656
850.545	22615
850.68	22554
850.815	22634
850.95	22691
851.085	22949
851.22	22942
851.355	22713
851.49	22637
851.625	22611
851.76	22675
851.895	22622
852.03	22607
852.165	22637
852.299	22668
852.434	22710
852.569	22565
852.703	22645
852.838	22839
852.973	22744
853.107	22911
853.242	22653
853.376	22516
853.511	22440
853.645	22459
853.78	22603
853.914	22596
854.048	22447
854.183	22535
854.317	22512
854.451	22649
854.585	22516
854.72	22466
854.854	22493
854.988	22535
855.122	22542
855.256	22405
855.39	22596
855.524	22557
855.658	22691
855.792	22607
855.926	22459
856.06	22512
856.194	22466
856.327	22546
856.461	22375
856.595	22421
856.729	22405
856.862	22607
856.996	22527
857.13	22683
857.263	22630
857.397	22607
857.53	22455
857.664	22497
857.797	22569
857.931	22637
858.064	22573
858.197	22523
858.331	22512
858.464	22405
858.597	22459
858.731	22497
858.864	22394
858.997	22451
859.13	22413
859.263	22459
859.396	22531
859.529	22417
859.662	22363
859.795	22371
859.928	22546
860.061	22577
860.194	22675
860.327	22634
860.46	22504
860.592	22535
860.725	22664
860.858	22592
860.99	22436
861.123	22493
861.256	22394
861.388	22428
861.521	23417
861.653	22344
861.786	22299
861.918	22287
862.05	22546
862.183	22451
862.315	22474
862.447	22603
862.58	22405
862.712	22204
862.844	22325
862.976	22379
863.108	22162
863.24	22713
863.372	22181
863.504	22192
863.636	22150
863.768	22207
863.9	22284
864.032	22078
864.164	22226
864.296	22268
864.428	22219
864.559	22215
864.691	22337
864.823	22162
864.954	22223
865.086	22249
865.217	22147
865.349	22040
865.48	22017
865.612	22120
865.743	22150
865.875	22120
866.006	22059
866.137	22109
866.269	22082
866.4	22135
866.531	21937
866.662	22013
866.793	21987
866.924	22025
867.055	22074
867.186	22040
867.317	21987
867.448	21994
867.579	22017
867.71	21972
867.841	21873
867.972	22109
868.103	22051
868.233	22040
868.364	21956
868.495	22131
868.625	22223
868.756	22325
868.886	22276
869.017	22318
869.147	22375
869.278	22432
869.408	22390
869.539	22139
869.669	22500
869.799	22284
869.929	22390
870.06	22402
870.19	22679
870.32	22637
870.45	22596
870.58	22634
870.71	22725
870.84	22809
870.97	22634
871.1	22637
871.23	22820
871.36	22831
871.489	22782
871.619	22801
871.749	22767
871.879	22942
872.008	22953
872.138	22847
872.267	22691
872.397	22653
872.526	22694
872.656	22691
872.785	22744
872.915	22927
873.044	23079
873.173	22850
873.303	22972
873.432	22923
873.561	22896
873.69	22934
873.819	22923
873.948	23006
874.077	22873
874.206	22801
874.335	22892
874.464	23071
874.593	23113
874.722	23086
874.851	23174
874.979	23121
875.108	23151
875.237	23029
875.365	22995
875.494	23124
875.623	23147
875.751	23064
875.88	23147
876.008	23212
876.136	23296
876.265	23486
876.393	23543
876.521	23524
876.65	23638
876.778	23455
876.906	23436
877.034	23383
877.162	23425
877.29	23307
877.418	23455
877.546	23467
877.674	23398
877.802	23379
877.93	23486
878.058	23425
878.185	23337
878.313	23368
878.441	23429
878.568	23185
878.696	23398
878.824	23490
878.951	23425
879.079	23627
879.206	23687
879.333	23649
879.461	23429
879.588	23577
879.715	23589
879.842	23703
879.97	23448
880.097	23296
880.224	23292
880.351	23288
880.478	23204
880.605	23204
880.732	23292
880.859	23524
880.986	23296
881.112	23288
881.239	23170
881.366	23083
881.493	22908
881.619	22835
881.746	22885
881.872	22778
881.999	22786
882.125	22828
882.252	22672
882.378	22710
882.505	22915
882.631	22729
882.757	22466
882.883	22683
883.01	22489
883.136	22512
883.262	22421
883.388	22474
883.514	22546
883.64	22504
883.766	22459
883.892	22272
884.018	22303
884.143	22508
884.269	22459
884.395	22188
884.52	22169
884.646	22162
884.772	22070
884.897	21975
885.023	22215
885.148	22219
885.274	22177
885.399	22204
885.524	22112
885.65	22150
885.775	22147
885.9	22067
886.025	22143
886.15	22265
886.275	22059
886.4	22154
886.525	22188
886.65	22097
886.775	21979
886.9	22128
887.025	22291
887.149	21968
887.274	21865
887.399	21949
887.523	21857
887.648	21823
887.773	21713
887.897	21945
888.021	21945
888.146	21785
888.27	21998
888.395	21998
888.519	21888
888.643	21922
888.767	21846
888.891	21804
889.015	21606
889.139	21694
889.263	21637
889.387	21698
889.511	21899
889.635	21812
889.759	21713
889.883	21660
890.006	21667
890.13	21660
890.254	21660
890.377	21641
890.501	21515
890.624	21336
890.748	21397
890.871	21233
890.995	21218
891.118	21211
891.241	21275
891.364	21237
891.488	21313
891.611	21264
891.734	21272
891.857	21302
891.98	21150
892.103	21268
892.226	21135
892.349	21150
892.471	20910
892.594	21226
892.717	21203
892.839	21127
892.962	21066
893.085	21127
893.207	21176
893.33	21066
893.452	21036
893.575	21142
893.697	20986
893.819	21173
893.941	21355
894.064	21306
894.186	21009
894.308	21135
894.43	21180
894.552	21233
894.674	21119
894.796	21093
894.918	21062
895.04	21131
895.161	21085
895.283	21154
895.405	21119
895.526	21127
895.648	21138
895.769	21146
895.891	21154
896.012	21245
896.134	21165
896.255	21138
896.376	21024
896.498	21081
896.619	21104
896.74	21138
896.861	21184
896.982	21458
897.103	21545
897.224	21336
897.345	21154
897.466	21313
897.587	21233
897.708	21378
897.828	21393
897.949	21176
898.07	21123
898.19	21157
898.311	21241
898.431	21306
898.552	21302
898.672	21268
898.792	21389
898.913	21230
899.033	21154
899.153	21039
899.273	21017
899.393	21017
899.513	21043
899.633	20998
899.753	21009
899.873	21032
899.993	21062
900.113	20887
900.232	20956
900.352	20891
900.472	20887
900.591	20872
900.711	20807
900.83	20651
900.95	20899
901.069	20849
901.189	20724
901.308	20480
901.427	20358
901.546	20476
901.665	20374
901.784	20450
901.904	20267
902.023	20126
902.141	19951
902.26	19947
902.379	20065
902.498	19925
902.617	19746
902.735	19963
902.854	19837
902.973	19765
903.091	19601
903.21	19552
903.328	19571
903.446	19400
903.565	19343
903.683	19373
903.801	19270
903.919	19270
904.038	19175
904.156	19031
904.274	19126
904.392	19080
904.51	19061
904.627	19160
904.745	19202
904.863	19209
904.981	18901
905.098	18669
905.216	18711
905.334	18730
905.451	18715
905.569	18681
905.686	18806
905.803	18837
905.921	18532
906.038	18620
906.155	18490
906.272	18483
906.389	18410
906.506	18311
906.623	18216
906.74	18182
906.857	18159
906.974	18171
907.091	18311
907.208	18407
907.324	18182
907.441	18098
907.557	17988
907.674	18034
907.79	17931
907.907	17908
908.023	18041
908.139	17935
908.256	17897
908.372	17920
908.488	17843
908.604	17821
908.72	17714
908.836	17627
908.952	17680
909.068	17752
909.184	17748
909.3	17722
909.415	17691
909.531	17699
909.647	17452
909.762	17395
909.878	17379
909.993	17433
910.108	17345
910.224	17368
910.339	17368
910.454	17231
910.57	17200
910.685	17220
910.8	17261
910.915	17258
911.03	17174
911.145	17033
911.259	16809
911.374	16946
911.489	16866
911.604	16698
911.718	16725
911.833	16752
911.947	16607
912.062	16573
912.176	16717
912.291	16721
912.405	16626
912.519	16885
912.633	16854
912.748	16702
912.862	16664
912.976	16538
913.09	16424
913.204	16489
913.318	16478
913.431	16675
913.545	16516
913.659	16573
913.772	16531
913.886	16306
914	16287
914.113	16360
914.226	16325
914.34	16470
914.453	16188
914.566	16238
914.68	16131
914.793	16215
914.906	15998
915.019	15930
915.132	15861
915.245	15895
915.358	15945
915.47	15865
915.583	15804
915.696	15899
915.809	16006
915.921	16017
916.034	15865
916.146	15743
916.259	15682
916.371	15789
916.483	15797
916.595	15755
916.708	15701
916.82	15698
916.932	15637
917.044	15568
917.156	15549
917.268	15496
917.38	15542
917.491	15530
917.603	15443
917.715	15584
917.826	15606
917.938	15557
918.049	15329
918.161	15530
918.272	15466
918.384	15553
918.495	15374
918.606	15317
918.717	15173
918.828	15264
918.939	15275
919.05	15199
919.161	15287
919.272	14975
919.383	15047
919.494	15260
919.604	15363
919.715	15241
919.826	15017
919.936	15192
920.047	15275
920.157	15268
920.267	15340
920.378	15211
920.488	15283
920.598	15291
920.708	15469
920.818	15332
920.928	15329
921.038	15606
921.148	15454
921.258	15176
921.368	14948
921.477	14921
921.587	14925
921.697	14765
921.806	14941
921.916	14686
922.025	14598
922.134	14526
922.244	14541
922.353	14636
922.462	14415
922.571	14385
922.68	14149
922.789	14153
922.898	14180
923.007	14096
923.116	14176
923.224	14191
923.333	14103
923.442	14107
923.55	13940
923.659	13947
923.767	14024
923.876	13982
923.984	14050
924.092	13894
924.201	13974
924.309	13879
924.417	13852
924.525	13795
924.633	13856
924.741	14838
924.849	13628
924.956	13849
925.064	13674
925.172	13480
925.279	13575
925.387	13670
925.494	13609
925.602	13636
925.709	13586
925.816	13514
925.924	13476
926.031	13483
926.138	13525
926.245	13544
926.352	13441
926.459	13548
926.566	13575
926.673	13331
926.779	13304
926.886	13308
926.993	13099
927.099	13107
927.206	13179
927.312	13133
927.419	13145
927.525	13031
927.631	13091
927.737	13031
927.843	12954
927.95	12760
928.056	12932
928.162	13034
928.267	13012
928.373	13628
928.479	13057
928.585	12730
928.69	12764
928.796	12840
928.901	12840
929.007	12635
929.112	12852
929.218	12791
929.323	12639
929.428	12620
929.533	12738
929.638	12639
929.743	12544
929.848	12604
929.953	12597
930.058	12498
930.163	12327
930.267	12346
930.372	12456
930.477	12308
930.581	12456
930.685	12342
930.79	12175
930.894	12148
930.998	12209
931.103	12155
931.207	11836
931.311	11855
931.415	11771
931.519	11543
931.623	11543
