Data from test_V78500241_1928.txt Node
Date: Fri Mar 25 15:55:09 CST 2022
User: usil
Spectrometer: V785-0024
Trigger mode: 0
Integration Time (sec): 4.000000E-1
Scans to average: 1
Nonlinearity correction enabled: false
Boxcar width: 0
Storing dark spectrum: false
XAxis mode: Wavelengths
Number of Pixels in Spectrum: 1024
>>>>>Begin Spectral Data<<<<<
801.071	28599
801.214	28649
801.356	28306
801.499	28352
801.641	28299
801.783	28249
801.926	28367
802.068	28238
802.211	28185
802.353	28067
802.496	28013
802.638	27998
802.78	27987
802.923	27789
803.065	27869
803.208	27713
803.35	27937
803.492	28185
803.635	28010
803.777	27975
803.919	28036
804.061	28485
804.204	28295
804.346	28219
804.488	28036
804.63	28280
804.773	28074
804.915	28337
805.057	28299
805.199	28070
805.341	28063
805.483	28268
805.626	28360
805.768	28105
805.91	28280
806.052	28386
806.194	28344
806.336	28527
806.478	28417
806.62	28246
806.762	28443
806.904	28504
807.046	28793
807.188	28672
807.33	28774
807.472	28801
807.614	28736
807.756	28866
807.898	28500
808.04	28478
808.182	28664
808.324	28565
808.465	28615
808.607	28679
808.749	29155
808.891	29231
809.033	29307
809.174	29151
809.316	29041
809.458	29075
809.6	29075
809.741	29025
809.883	29170
810.025	29288
810.166	29288
810.308	29288
810.45	29239
810.591	29132
810.733	29121
810.875	29018
811.016	28938
811.158	28919
811.299	29311
811.441	29162
811.582	29216
811.724	29105
811.865	28991
812.007	28968
812.148	29003
812.29	29147
812.431	29181
812.573	29269
812.714	29493
812.855	29604
812.997	29604
813.138	29794
813.279	29509
813.421	29539
813.562	29608
813.703	29364
813.845	29159
813.986	28995
814.127	28820
814.268	28767
814.41	28740
814.551	28626
814.692	28710
814.833	28641
814.974	28641
815.115	28809
815.256	28561
815.397	28538
815.539	28653
815.68	28443
815.821	28409
815.962	28451
816.103	28573
816.244	28379
816.385	28398
816.526	28318
816.666	28055
816.807	28101
816.948	28040
817.089	28181
817.23	28021
817.371	27827
817.512	28040
817.653	28105
817.793	27895
817.934	28124
818.075	27972
818.216	28048
818.356	27949
818.497	27819
818.638	27804
818.778	27732
818.919	27728
819.06	27823
819.2	27983
819.341	27975
819.481	28025
819.622	28272
819.762	28356
819.903	28303
820.043	28143
820.184	28154
820.324	28139
820.465	28238
820.605	28051
820.746	28090
820.886	28017
821.026	27979
821.167	27998
821.307	28147
821.447	28063
821.588	27953
821.728	27854
821.868	27603
822.008	27424
822.149	27477
822.289	27561
822.429	27222
822.569	26979
822.709	27093
822.849	27070
822.99	27028
823.13	26994
823.27	26853
823.41	26853
823.55	26750
823.69	26815
823.83	26921
823.97	26758
824.11	26606
824.25	26632
824.389	26781
824.529	26682
824.669	26606
824.809	26823
824.949	26648
825.089	26739
825.228	26754
825.368	26457
825.508	26499
825.648	26488
825.787	26568
825.927	26495
826.067	26530
826.206	26594
826.346	26556
826.485	26442
826.625	26530
826.765	26495
826.904	26590
827.044	26347
827.183	26381
827.323	26176
827.462	26320
827.601	26126
827.741	26336
827.88	26221
828.02	26115
828.159	26122
828.298	26294
828.437	26305
828.577	26183
828.716	26336
828.855	26084
828.994	25944
829.134	25887
829.273	25944
829.412	25944
829.551	25963
829.69	25868
829.829	25951
829.968	26168
830.107	25906
830.246	25955
830.385	25791
830.524	25879
830.663	25704
830.802	25548
830.941	25575
831.08	25445
831.219	25655
831.357	25605
831.496	25849
831.635	25590
831.774	25445
831.913	25472
832.051	25365
832.19	25407
832.329	25327
832.467	25190
832.606	25118
832.744	25110
832.883	25118
833.022	25019
833.16	25061
833.299	25377
833.437	25187
833.576	25365
833.714	25354
833.852	25266
833.991	25392
834.129	25400
834.267	25251
834.406	25320
834.544	25312
834.682	25171
834.821	25202
834.959	25403
835.097	25175
835.235	25377
835.373	25339
835.511	25126
835.65	25164
835.788	25259
835.926	25038
836.064	24916
836.202	24970
836.34	25008
836.478	25187
836.615	25008
836.753	25225
836.891	25095
837.029	25145
837.167	25065
837.305	24954
837.443	24981
837.58	24875
837.718	24916
837.856	25046
837.993	24973
838.131	24810
838.269	24760
838.406	24787
838.544	24795
838.681	24544
838.819	24551
838.956	24365
839.094	24361
839.231	24456
839.369	24582
839.506	24745
839.643	24566
839.781	24384
839.918	24292
840.055	24304
840.193	24441
840.33	24361
840.467	24289
840.604	24372
840.742	24620
840.879	24174
841.016	24228
841.153	24144
841.29	24407
841.427	24258
841.564	24422
841.701	24304
841.838	24163
841.975	24194
842.112	24174
842.249	24072
842.385	23946
842.522	24251
842.659	24171
842.796	24007
842.933	24026
843.069	24083
843.206	24041
843.343	24022
843.479	23961
843.616	24083
843.752	23885
843.889	23874
844.025	23969
844.162	23840
844.298	23863
844.435	23847
844.571	23863
844.708	23927
844.844	23950
844.98	24041
845.117	23786
845.253	23828
845.389	23596
845.525	23661
845.661	23665
845.798	23566
845.934	23684
846.07	23592
846.206	23551
846.342	23642
846.478	23608
846.614	23356
846.75	23250
846.886	23193
847.022	23223
847.158	23311
847.294	23200
847.429	23269
847.565	23216
847.701	23425
847.837	22831
847.972	22892
848.108	23071
848.244	23041
848.379	22972
848.515	22911
848.65	22869
848.786	22752
848.921	22889
849.057	23018
849.192	23075
849.328	22968
849.463	22881
849.598	22869
849.734	22748
849.869	22797
850.004	22569
850.14	22656
850.275	22649
850.41	22546
850.545	22637
850.68	22615
850.815	22694
850.95	22683
851.085	22675
851.22	22679
851.355	22725
851.49	22592
851.625	22535
851.76	22637
851.895	22656
852.03	22428
852.165	22683
852.299	22755
852.434	22717
852.569	22645
852.703	22679
852.838	22687
852.973	22793
853.107	22752
853.242	22535
853.376	22352
853.511	22322
853.645	22455
853.78	22634
853.914	22432
854.048	22356
854.183	22424
854.317	22466
854.451	22713
854.585	22451
854.72	22443
854.854	22516
854.988	22360
855.122	22386
855.256	22371
855.39	22497
855.524	22550
855.658	22394
855.792	22485
855.926	22462
856.06	22451
856.194	22592
856.327	22291
856.461	22409
856.595	22379
856.729	22382
856.862	22580
856.996	22493
857.13	22527
857.263	22577
857.397	22561
857.53	22371
857.664	22394
857.797	22527
857.931	22546
858.064	22440
858.197	22649
858.331	22569
858.464	22318
858.597	22246
858.731	22344
858.864	22344
858.997	22398
859.13	22508
859.263	22481
859.396	22485
859.529	22428
859.662	22333
859.795	22413
859.928	22314
860.061	22466
860.194	22584
860.327	22348
860.46	22455
860.592	22531
860.725	22497
860.858	22584
860.99	22424
861.123	22413
861.256	22413
861.388	22394
861.521	23299
861.653	22367
861.786	22200
861.918	22284
862.05	22367
862.183	22409
862.315	22436
862.447	22428
862.58	22314
862.712	22128
862.844	22131
862.976	22291
863.108	22059
863.24	22702
863.372	21964
863.504	22185
863.636	22158
863.768	22261
863.9	22207
864.032	22063
864.164	22109
864.296	22215
864.428	22223
864.559	22143
864.691	22204
864.823	22150
864.954	22238
865.086	22055
865.217	22013
865.349	21911
865.48	22036
865.612	21987
865.743	22093
865.875	22086
866.006	21884
866.137	22013
866.269	21903
866.4	21960
866.531	22006
866.662	21895
866.793	22010
866.924	21892
867.055	21899
867.186	22055
867.317	21842
867.448	21975
867.579	21850
867.71	21888
867.841	21774
867.972	21987
868.103	21968
868.233	21937
868.364	21960
868.495	22082
868.625	22097
868.756	22375
868.886	22200
869.017	22226
869.147	22337
869.278	22421
869.408	22192
869.539	22200
869.669	22265
869.799	22230
869.929	22356
870.06	22280
870.19	22432
870.32	22554
870.45	22561
870.58	22542
870.71	22835
870.84	22580
870.97	22500
871.1	22466
871.23	22713
871.36	22752
871.489	22763
871.619	22717
871.749	22824
871.879	22786
872.008	22927
872.138	22668
872.267	22793
872.397	22721
872.526	22653
872.656	22725
872.785	22592
872.915	22889
873.044	22927
873.173	22740
873.303	22866
873.432	22816
873.561	22862
873.69	22885
873.819	22866
873.948	22778
874.077	22896
874.206	22637
874.335	22820
874.464	22908
874.593	22881
874.722	22930
874.851	23067
874.979	23022
875.108	23037
875.237	22869
875.365	22965
875.494	23060
875.623	23048
875.751	23067
875.88	23128
876.008	23071
876.136	23159
876.265	23417
876.393	23566
876.521	23376
876.65	23467
876.778	23417
876.906	23364
877.034	23284
877.162	23467
877.29	23417
877.418	23345
877.546	23288
877.674	23307
877.802	23433
877.93	23318
878.058	23132
878.185	23265
878.313	23303
878.441	23318
878.568	23121
878.696	23254
878.824	23337
878.951	23379
879.079	23600
879.206	23642
879.333	23463
879.461	23444
879.588	23455
879.715	23463
879.842	23634
879.97	23543
880.097	23151
880.224	23181
880.351	23292
880.478	23231
880.605	23143
880.732	23216
880.859	23531
880.986	23200
881.112	23105
881.239	23079
881.366	22938
881.493	22869
881.619	22790
881.746	22778
881.872	22752
881.999	22603
882.125	22626
882.252	22656
882.378	22668
882.505	22790
882.631	22584
882.757	22436
882.883	22478
883.01	22497
883.136	22440
883.262	22325
883.388	22253
883.514	22478
883.64	22287
883.766	22375
883.892	22188
884.018	22074
884.143	22299
884.269	22417
884.395	22135
884.52	21987
884.646	22074
884.772	22059
884.897	21854
885.023	21991
885.148	22204
885.274	22147
885.399	22109
885.524	22112
885.65	22196
885.775	22082
885.9	21994
886.025	22223
886.15	22177
886.275	21888
886.4	21972
886.525	22044
886.65	21975
886.775	21987
886.9	22234
887.025	22131
887.149	21991
887.274	21838
887.399	21804
887.523	21816
887.648	21732
887.773	21800
887.897	21884
888.021	21884
888.146	21831
888.27	21884
888.395	21907
888.519	21736
888.643	21838
888.767	21892
888.891	21770
889.015	21504
889.139	21804
889.263	21504
889.387	21629
889.511	21804
889.635	21755
889.759	21564
889.883	21660
890.006	21644
890.13	21671
890.254	21526
890.377	21545
890.501	21386
890.624	21374
890.748	21488
890.871	21363
890.995	21287
891.118	21138
891.241	21157
891.364	21070
891.488	21306
891.611	21184
891.734	21203
891.857	21245
891.98	21146
892.103	21207
892.226	21207
892.349	21119
892.471	21020
892.594	21157
892.717	21157
892.839	21055
892.962	21062
893.085	21001
893.207	21096
893.33	20845
893.452	20990
893.575	21032
893.697	21066
893.819	21108
893.941	21287
894.064	21043
894.186	21005
894.308	20994
894.43	21024
894.552	21252
894.674	21081
894.796	20994
894.918	21024
895.04	21024
895.161	21058
895.283	21100
895.405	21020
895.526	21020
895.648	20990
895.769	20979
895.891	21051
896.012	21013
896.134	21047
896.255	20979
896.376	21051
896.498	21005
896.619	21055
896.74	21066
896.861	20975
896.982	21241
897.103	21428
897.224	21329
897.345	21214
897.466	21131
897.587	21252
897.708	21283
897.828	21241
897.949	21043
898.07	20960
898.19	21291
898.311	21241
898.431	21192
898.552	21233
898.672	21310
898.792	21279
898.913	21279
899.033	21043
899.153	21036
899.273	20902
899.393	20925
899.513	20998
899.633	21013
899.753	20998
899.873	20830
899.993	20933
900.113	20861
900.232	20960
900.352	20876
900.472	20739
900.591	20758
900.711	20743
900.83	20640
900.95	20762
901.069	20796
901.189	20556
901.308	20294
901.427	20282
901.546	20271
901.665	20366
901.784	20183
901.904	20145
902.023	20039
902.141	19852
902.26	19833
902.379	19791
902.498	19757
902.617	19833
902.735	19734
902.854	19818
902.973	19647
903.091	19445
903.21	19441
903.328	19415
903.446	19491
903.565	19240
903.683	19213
903.801	19141
903.919	19133
904.038	19156
904.156	19046
904.274	19061
904.392	19004
904.51	19072
904.627	18989
904.745	19031
904.863	19076
904.981	18791
905.098	18646
905.216	18665
905.334	18776
905.451	18627
905.569	18722
905.686	18665
905.803	18661
905.921	18429
906.038	18521
906.155	18445
906.272	18357
906.389	18289
906.506	18209
906.623	18258
906.74	18144
906.857	18106
906.974	18152
907.091	18251
907.208	18418
907.324	18270
907.441	18106
907.557	17954
907.674	17840
907.79	17771
907.907	17840
908.023	17950
908.139	17946
908.256	17851
908.372	17889
908.488	17805
908.604	17805
908.72	17661
908.836	17611
908.952	17573
909.068	17653
909.184	17672
909.3	17570
909.415	17524
909.531	17615
909.647	17296
909.762	17334
909.878	17372
909.993	17292
910.108	17277
910.224	17250
910.339	17280
910.454	17204
910.57	17052
910.685	17113
910.8	17318
910.915	17178
911.03	17155
911.145	17098
911.259	16854
911.374	16889
911.489	16790
911.604	16839
911.718	16584
911.833	16573
911.947	16641
912.062	16516
912.176	16607
912.291	16645
912.405	16630
912.519	16942
912.633	16828
912.748	16672
912.862	16580
912.976	16413
913.09	16284
913.204	16474
913.318	16466
913.431	16565
913.545	16615
913.659	16554
913.772	16481
913.886	16280
914	16147
914.113	16322
914.226	16299
914.34	16249
914.453	16185
914.566	16211
914.68	16112
914.793	16044
914.906	15827
915.019	15842
915.132	15785
915.245	15861
915.358	15785
915.47	15838
915.583	15797
915.696	15739
915.809	15831
915.921	15895
916.034	15736
916.146	15671
916.259	15625
916.371	15869
916.483	15732
916.595	15595
916.708	15557
916.82	15591
916.932	15610
917.044	15530
917.156	15496
917.268	15389
917.38	15519
917.491	15378
917.603	15485
917.715	15542
917.826	15523
917.938	15405
918.049	15268
918.161	15363
918.272	15481
918.384	15538
918.495	15355
918.606	15203
918.717	15138
918.828	15199
918.939	15138
919.05	15188
919.161	15173
919.272	14994
919.383	15020
919.494	15161
919.604	15370
919.715	15173
919.826	15036
919.936	15119
920.047	15237
920.157	15199
920.267	15367
920.378	15173
920.488	15074
920.598	15237
920.708	15416
920.818	15188
920.928	15218
921.038	15405
921.148	15420
921.258	15123
921.368	14941
921.477	14883
921.587	14868
921.697	14739
921.806	14773
921.916	14739
922.025	14598
922.134	14507
922.244	14450
922.353	14537
922.462	14404
922.571	14271
922.68	14100
922.789	14134
922.898	14206
923.007	14054
923.116	14115
923.224	14126
923.333	14145
923.442	13978
923.55	13921
923.659	13982
923.767	14046
923.876	13963
923.984	13917
924.092	13795
924.201	13795
924.309	13776
924.417	13921
924.525	13761
924.633	13761
924.741	14670
924.849	13594
924.956	13616
925.064	13483
925.172	13396
925.279	13499
925.387	13540
925.494	13559
925.602	13655
925.709	13609
925.816	13457
925.924	13354
926.031	13518
926.138	13464
926.245	13483
926.352	13388
926.459	13460
926.566	13525
926.673	13331
926.779	13213
926.886	13304
926.993	13069
927.099	13053
927.206	13023
927.312	13069
927.419	13053
927.525	13084
927.631	13126
927.737	12932
927.843	12943
927.95	12859
928.056	12886
928.162	12913
928.267	12932
928.373	13518
928.479	12951
928.585	12692
928.69	12707
928.796	12833
928.901	12783
929.007	12528
929.112	12734
929.218	12715
929.323	12536
929.428	12589
929.533	12700
929.638	12525
929.743	12479
929.848	12585
929.953	12490
930.058	12464
930.163	12251
930.267	12292
930.372	12448
930.477	12239
930.581	12460
930.685	12281
930.79	12155
930.894	12300
930.998	12102
931.103	12285
931.207	11984
931.311	11786
931.415	11752
931.519	11600
931.623	11505
