Data from test_V78500241_394.txt Node
Date: Fri Mar 25 15:44:31 CST 2022
User: usil
Spectrometer: V785-0024
Trigger mode: 0
Integration Time (sec): 4.000000E-1
Scans to average: 1
Nonlinearity correction enabled: false
Boxcar width: 0
Storing dark spectrum: false
XAxis mode: Wavelengths
Number of Pixels in Spectrum: 1024
>>>>>Begin Spectral Data<<<<<
801.071	29204
801.214	29288
801.356	29010
801.499	29041
801.641	28828
801.783	28934
801.926	29048
802.068	28934
802.211	28790
802.353	28641
802.496	28565
802.638	28504
802.78	28554
802.923	28493
803.065	28474
803.208	28561
803.35	28565
803.492	28603
803.635	28615
803.777	28596
803.919	28641
804.061	29010
804.204	28573
804.346	28630
804.488	28653
804.63	28729
804.773	28687
804.915	28744
805.057	28885
805.199	28607
805.341	28759
805.483	28675
805.626	28835
805.768	28679
805.91	28763
806.052	28809
806.194	28805
806.336	28904
806.478	28888
806.62	28641
806.762	29143
806.904	29048
807.046	29246
807.188	29311
807.33	29277
807.472	29391
807.614	29185
807.756	29204
807.898	28991
808.04	29064
808.182	29067
808.324	29197
808.465	29056
808.607	29227
808.749	29459
808.891	29543
809.033	29554
809.174	29524
809.316	29600
809.458	29627
809.6	29444
809.741	29676
809.883	29687
810.025	29824
810.166	29707
810.308	29958
810.45	29638
810.591	29714
810.733	29585
810.875	29375
811.016	29391
811.158	29558
811.299	29512
811.441	29680
811.582	29524
811.724	29585
811.865	29406
812.007	29562
812.148	29391
812.29	29524
812.431	29733
812.573	29840
812.714	29977
812.855	30007
812.997	30125
813.138	30292
813.279	30129
813.421	29916
813.562	29931
813.703	29802
813.845	29646
813.986	29395
814.127	29288
814.268	29124
814.41	29136
814.551	28961
814.692	29083
814.833	29189
814.974	29018
815.115	29227
815.256	29105
815.397	28908
815.539	29041
815.68	28938
815.821	29022
815.962	29033
816.103	28987
816.244	28885
816.385	28725
816.526	28675
816.666	28557
816.807	28516
816.948	28421
817.089	28390
817.23	28440
817.371	28356
817.512	28451
817.653	28512
817.793	28276
817.934	28443
818.075	28478
818.216	28398
818.356	28329
818.497	28238
818.638	28002
818.778	28097
818.919	28204
819.06	28261
819.2	28287
819.341	28367
819.481	28386
819.622	28504
819.762	28694
819.903	28554
820.043	28512
820.184	28500
820.324	28478
820.465	28580
820.605	28489
820.746	28516
820.886	28356
821.026	28630
821.167	28409
821.307	28615
821.447	28390
821.588	28299
821.728	28082
821.868	27934
822.008	27812
822.149	27720
822.289	27831
822.429	27641
822.569	27412
822.709	27412
822.849	27393
822.99	27245
823.13	27329
823.27	27176
823.41	27100
823.55	27043
823.69	27150
823.83	26971
823.97	26948
824.11	26826
824.25	26861
824.389	26937
824.529	27043
824.669	26998
824.809	27013
824.949	27039
825.089	27013
825.228	26998
825.368	26864
825.508	26773
825.648	26788
825.787	26830
825.927	26705
826.067	26727
826.206	26678
826.346	26750
826.485	26944
826.625	26739
826.765	26670
826.904	26735
827.044	26571
827.183	26427
827.323	26480
827.462	26465
827.601	26389
827.741	26385
827.88	26453
828.02	26404
828.159	26320
828.298	26431
828.437	26484
828.577	26366
828.716	26480
828.855	26351
828.994	26244
829.134	26107
829.273	26210
829.412	26027
829.551	26050
829.69	25997
829.829	26138
829.968	26164
830.107	26187
830.246	26282
830.385	26073
830.524	26020
830.663	25902
830.802	25753
830.941	25731
831.08	25731
831.219	25780
831.357	25772
831.496	25993
831.635	25681
831.774	25613
831.913	25586
832.051	25377
832.19	25422
832.329	25514
832.467	25331
832.606	25270
832.744	25327
832.883	25460
833.022	25266
833.16	25377
833.299	25441
833.437	25194
833.576	25419
833.714	25316
833.852	25419
833.991	25381
834.129	25495
834.267	25487
834.406	25358
834.544	25354
834.682	25430
834.821	25396
834.959	25571
835.097	25365
835.235	25255
835.373	25343
835.511	25255
835.65	25179
835.788	25168
835.926	25031
836.064	24981
836.202	24935
836.34	25088
836.478	25183
836.615	25137
836.753	25141
836.891	25232
837.029	25148
837.167	25114
837.305	25133
837.443	24913
837.58	25080
837.718	25137
837.856	25114
837.993	24882
838.131	24932
838.269	25038
838.406	24821
838.544	24711
838.681	24673
838.819	24673
838.956	24566
839.094	24441
839.231	24456
839.369	24673
839.506	24635
839.643	24612
839.781	24494
839.918	24308
840.055	24441
840.193	24311
840.33	24213
840.467	24289
840.604	24300
840.742	24551
840.879	24117
841.016	24254
841.153	24174
841.29	24471
841.427	24258
841.564	24357
841.701	24232
841.838	24213
841.975	24152
842.112	24171
842.249	24194
842.385	24060
842.522	24224
842.659	24167
842.796	23977
842.933	24022
843.069	23935
843.206	24060
843.343	24190
843.479	24064
843.616	24083
843.752	23916
843.889	23786
844.025	23832
844.162	23798
844.298	23794
844.435	23859
844.571	23668
844.708	23824
844.844	23866
844.98	23885
845.117	23824
845.253	23752
845.389	23592
845.525	23619
845.661	23733
845.798	23429
845.934	23512
846.07	23482
846.206	23379
846.342	23687
846.478	23391
846.614	23322
846.75	23155
846.886	23315
847.022	23379
847.158	23303
847.294	23318
847.429	23159
847.565	23181
847.701	23410
847.837	22942
847.972	22938
848.108	23010
848.244	23037
848.379	22850
848.515	22778
848.65	22706
848.786	22816
848.921	22782
849.057	22854
849.192	22748
849.328	22755
849.463	22740
849.598	22812
849.734	22679
849.869	22634
850.004	22474
850.14	22527
850.275	22588
850.41	22455
850.545	22618
850.68	22402
850.815	22565
850.95	22470
851.085	22717
851.22	22634
851.355	22592
851.49	22500
851.625	22527
851.76	22440
851.895	22421
852.03	22432
852.165	22535
852.299	22508
852.434	22599
852.569	22592
852.703	22500
852.838	22481
852.973	22516
853.107	22702
853.242	22348
853.376	22310
853.511	22234
853.645	22333
853.78	22409
853.914	22421
854.048	22341
854.183	22337
854.317	22352
854.451	22538
854.585	22265
854.72	22367
854.854	22474
854.988	22348
855.122	22310
855.256	22143
855.39	22314
855.524	22360
855.658	22291
855.792	22287
855.926	22276
856.06	22325
856.194	22451
856.327	22318
856.461	22226
856.595	22234
856.729	22249
856.862	22538
856.996	22318
857.13	22432
857.263	22443
857.397	22379
857.53	22421
857.664	22329
857.797	22493
857.931	22390
858.064	22325
858.197	22386
858.331	22344
858.464	22272
858.597	22207
858.731	22166
858.864	22306
858.997	22348
859.13	22360
859.263	22253
859.396	22363
859.529	22303
859.662	22402
859.795	22310
859.928	22287
860.061	22363
860.194	22565
860.327	22363
860.46	22280
860.592	22424
860.725	22462
860.858	22440
860.99	22287
861.123	22246
861.256	22150
861.388	22329
861.521	22987
861.653	22150
861.786	21983
861.918	22128
862.05	22215
862.183	22223
862.315	22272
862.447	22276
862.58	22318
862.712	22006
862.844	21994
862.976	22044
863.108	21922
863.24	22421
863.372	21880
863.504	21964
863.636	21911
863.768	22051
863.9	21915
864.032	21854
864.164	21922
864.296	21934
864.428	21934
864.559	22090
864.691	22067
864.823	21937
864.954	21968
865.086	21915
865.217	21895
865.349	21800
865.48	21835
865.612	21895
865.743	21987
865.875	21994
866.006	21861
866.137	21842
866.269	21713
866.4	21747
866.531	21785
866.662	21732
866.793	21861
866.924	21728
867.055	21850
867.186	21835
867.317	21831
867.448	21568
867.579	21747
867.71	21682
867.841	21652
867.972	21785
868.103	21755
868.233	21698
868.364	21808
868.495	21842
868.625	21934
868.756	22177
868.886	22010
869.017	21960
869.147	22154
869.278	22063
869.408	22010
869.539	22067
869.669	22025
869.799	22128
869.929	22139
870.06	22070
870.19	22284
870.32	22211
870.45	22360
870.58	22360
870.71	22478
870.84	22474
870.97	22246
871.1	22375
871.23	22538
871.36	22592
871.489	22394
871.619	22615
871.749	22713
871.879	22611
872.008	22710
872.138	22687
872.267	22588
872.397	22341
872.526	22299
872.656	22519
872.785	22268
872.915	22557
873.044	22622
873.173	22706
873.303	22683
873.432	22691
873.561	22809
873.69	22580
873.819	22675
873.948	22713
874.077	22710
874.206	22577
874.335	22538
874.464	22744
874.593	22923
874.722	22763
874.851	22915
874.979	22847
875.108	22919
875.237	22786
875.365	22869
875.494	22839
875.623	22736
875.751	22740
875.88	22778
876.008	22786
876.136	22961
876.265	23220
876.393	23334
876.521	23326
876.65	23322
876.778	23136
876.906	23174
877.034	23193
877.162	23113
877.29	23124
877.418	23132
877.546	23166
877.674	23052
877.802	23174
877.93	23204
878.058	23254
878.185	23037
878.313	23014
878.441	23212
878.568	23003
878.696	23090
878.824	23242
878.951	23307
879.079	23474
879.206	23471
879.333	23421
879.461	23204
879.588	23246
879.715	23383
879.842	23497
879.97	23174
880.097	22927
880.224	22862
880.351	23079
880.478	23025
880.605	23044
880.732	22976
880.859	23200
880.986	22915
881.112	23121
881.239	22892
881.366	22850
881.493	22607
881.619	22630
881.746	22668
881.872	22656
881.999	22474
882.125	22516
882.252	22592
882.378	22649
882.505	22710
882.631	22459
882.757	22303
882.883	22398
883.01	22234
883.136	22314
883.262	22078
883.388	22105
883.514	22177
883.64	22253
883.766	22287
883.892	22040
884.018	22067
884.143	22124
884.269	22238
884.395	22063
884.52	21816
884.646	21911
884.772	21865
884.897	21892
885.023	21937
885.148	21903
885.274	21941
885.399	21930
885.524	21869
885.65	21888
885.775	21804
885.9	21926
886.025	21972
886.15	21918
886.275	21755
886.4	21854
886.525	21945
886.65	21831
886.775	21663
886.9	21918
887.025	22188
887.149	21846
887.274	21739
887.399	21720
887.523	21500
887.648	21641
887.773	21587
887.897	21732
888.021	21698
888.146	21564
888.27	21720
888.395	21686
888.519	21568
888.643	21644
888.767	21690
888.891	21595
889.015	21496
889.139	21549
889.263	21401
889.387	21507
889.511	21488
889.635	21496
889.759	21389
889.883	21378
890.006	21397
890.13	21622
890.254	21256
890.377	21275
890.501	21268
890.624	21203
890.748	21249
890.871	21051
890.995	21001
891.118	20918
891.241	21009
891.364	21020
891.488	21150
891.611	20925
891.734	20937
891.857	21039
891.98	20925
892.103	21192
892.226	20910
892.349	20952
892.471	20792
892.594	20910
892.717	20941
892.839	20804
892.962	20937
893.085	20891
893.207	20887
893.33	20823
893.452	20743
893.575	20720
893.697	20845
893.819	21028
893.941	21055
894.064	20929
894.186	20872
894.308	20762
894.43	20880
894.552	20990
894.674	20979
894.796	20785
894.918	20845
895.04	20777
895.161	20925
895.283	20994
895.405	20739
895.526	20834
895.648	20792
895.769	20914
895.891	21062
896.012	20899
896.134	20887
896.255	20834
896.376	20750
896.498	20777
896.619	20906
896.74	21017
896.861	20948
896.982	21302
897.103	21374
897.224	21214
897.345	21100
897.466	20967
897.587	21131
897.708	21222
897.828	21154
897.949	20941
898.07	20963
898.19	21066
898.311	21207
898.431	21062
898.552	20967
898.672	21058
898.792	21005
898.913	21055
899.033	20982
899.153	20842
899.273	20739
899.393	20773
899.513	20800
899.633	20705
899.753	20887
899.873	20670
899.993	20815
900.113	20617
900.232	20724
900.352	20746
900.472	20571
900.591	20598
900.711	20701
900.83	20518
900.95	20750
901.069	20583
901.189	20545
901.308	20237
901.427	20024
901.546	20153
901.665	20122
901.784	20103
901.904	19947
902.023	19925
902.141	19833
902.26	19655
902.379	19757
902.498	19647
902.617	19533
902.735	19662
902.854	19639
902.973	19529
903.091	19259
903.21	19228
903.328	19335
903.446	19209
903.565	19023
903.683	18935
903.801	19065
903.919	19183
904.038	19206
904.156	18939
904.274	18814
904.392	18825
904.51	18859
904.627	18787
904.745	18928
904.863	18749
904.981	18642
905.098	18467
905.216	18498
905.334	18486
905.451	18467
905.569	18448
905.686	18410
905.803	18395
905.921	18239
906.038	18437
906.155	18266
906.272	18182
906.389	18209
906.506	18057
906.623	17893
906.74	18091
906.857	17958
906.974	17923
907.091	18083
907.208	18038
907.324	17984
907.441	18034
907.557	17775
907.674	17653
907.79	17638
907.907	17638
908.023	17703
908.139	17767
908.256	17535
908.372	17577
908.488	17505
908.604	17471
908.72	17425
908.836	17452
908.952	17296
909.068	17417
909.184	17433
909.3	17414
909.415	17364
909.531	17391
909.647	17121
909.762	17105
909.878	17162
909.993	17003
910.108	17117
910.224	17045
910.339	17071
910.454	16999
910.57	16881
910.685	16786
910.8	17060
910.915	17025
911.03	16831
911.145	16767
911.259	16702
911.374	16569
911.489	16725
911.604	16538
911.718	16352
911.833	16481
911.947	16379
912.062	16211
912.176	16462
912.291	16466
912.405	16436
912.519	16653
912.633	16626
912.748	16440
912.862	16421
912.976	16272
913.09	16082
913.204	16131
913.318	16261
913.431	16261
913.545	16284
913.659	16394
913.772	16211
913.886	16013
914	16032
914.113	16048
914.226	16116
914.34	16124
914.453	15918
914.566	16025
914.68	15865
914.793	15918
914.906	15717
915.019	15599
915.132	15580
915.245	15625
915.358	15591
915.47	15614
915.583	15682
915.696	15656
915.809	15701
915.921	15755
916.034	15481
916.146	15526
916.259	15420
916.371	15549
916.483	15568
916.595	15488
916.708	15443
916.82	15469
916.932	15393
917.044	15332
917.156	15256
917.268	15184
917.38	15378
917.491	15245
917.603	15214
917.715	15321
917.826	15279
917.938	15207
918.049	15005
918.161	15264
918.272	15302
918.384	15260
918.495	15192
918.606	14941
918.717	14960
918.828	15005
918.939	15032
919.05	14773
919.161	14960
919.272	14716
919.383	14823
919.494	15028
919.604	15176
919.715	14880
919.826	14868
919.936	14895
920.047	15055
920.157	14899
920.267	15032
920.378	14853
920.488	14941
920.598	15131
920.708	15264
920.818	15013
920.928	15013
921.038	15237
921.148	15135
921.258	14876
921.368	14765
921.477	14632
921.587	14689
921.697	14560
921.806	14724
921.916	14522
922.025	14305
922.134	14271
922.244	14199
922.353	14206
922.462	14149
922.571	14252
922.68	14012
922.789	13852
922.898	13925
923.007	13776
923.116	13887
923.224	13826
923.333	13890
923.442	13772
923.55	13681
923.659	13830
923.767	13738
923.876	13632
923.984	13651
924.092	13636
924.201	13731
924.309	13620
924.417	13609
924.525	13609
924.633	13616
924.741	14446
924.849	13282
924.956	13472
925.064	13304
925.172	13282
925.279	13301
925.387	13354
925.494	13232
925.602	13457
925.709	13392
925.816	13198
925.924	13183
926.031	13285
926.138	13278
926.245	13278
926.352	13145
926.459	13343
926.566	13346
926.673	13255
926.779	12958
926.886	13084
926.993	12905
927.099	12901
927.206	12848
927.312	12863
927.419	12882
927.525	12703
927.631	12901
927.737	12700
927.843	12753
927.95	12585
928.056	12665
928.162	12662
928.267	12662
928.373	13377
928.479	12738
928.585	12563
928.69	12597
928.796	12612
928.901	12525
929.007	12323
929.112	12502
929.218	12452
929.323	12448
929.428	12334
929.533	12418
929.638	12247
929.743	12300
929.848	12304
929.953	12281
930.058	12247
930.163	12091
930.267	12072
930.372	12182
930.477	12003
930.581	12292
930.685	12163
930.79	11958
930.894	11931
930.998	11916
931.103	12015
931.207	11684
931.311	11570
931.415	11532
931.519	11315
931.623	11250
