Data from test_V78500241_1812.txt Node
Date: Fri Mar 25 15:54:21 CST 2022
User: usil
Spectrometer: V785-0024
Trigger mode: 0
Integration Time (sec): 4.000000E-1
Scans to average: 1
Nonlinearity correction enabled: false
Boxcar width: 0
Storing dark spectrum: false
XAxis mode: Wavelengths
Number of Pixels in Spectrum: 1024
>>>>>Begin Spectral Data<<<<<
801.071	28694
801.214	28675
801.356	28436
801.499	28478
801.641	28390
801.783	28314
801.926	28443
802.068	28333
802.211	28322
802.353	28124
802.496	28036
802.638	28078
802.78	27979
802.923	27937
803.065	27789
803.208	27975
803.35	28021
803.492	28143
803.635	28158
803.777	28082
803.919	28147
804.061	28500
804.204	28356
804.346	28128
804.488	28196
804.63	28253
804.773	28116
804.915	28363
805.057	28432
805.199	28333
805.341	28417
805.483	28424
805.626	28348
805.768	28265
805.91	28462
806.052	28455
806.194	28246
806.336	28523
806.478	28417
806.62	28512
806.762	28500
806.904	28717
807.046	29018
807.188	28782
807.33	28763
807.472	28862
807.614	28778
807.756	28869
807.898	28778
808.04	28797
808.182	28607
808.324	28835
808.465	28717
808.607	29022
808.749	29071
808.891	29155
809.033	29242
809.174	29212
809.316	29170
809.458	29151
809.6	28942
809.741	29273
809.883	29227
810.025	29440
810.166	29395
810.308	29512
810.45	29296
810.591	29326
810.733	29284
810.875	29147
811.016	28987
811.158	29048
811.299	29155
811.441	29421
811.582	29204
811.724	29151
811.865	29079
812.007	29151
812.148	29128
812.29	29261
812.431	29296
812.573	29459
812.714	29467
812.855	29703
812.997	29813
813.138	29802
813.279	29783
813.421	29790
813.562	29649
813.703	29543
813.845	29261
813.986	29086
814.127	29052
814.268	28900
814.41	28930
814.551	28869
814.692	28850
814.833	28828
814.974	28896
815.115	28927
815.256	28790
815.397	28599
815.539	28679
815.68	28698
815.821	28668
815.962	28668
816.103	28592
816.244	28409
816.385	28436
816.526	28314
816.666	28139
816.807	28105
816.948	28215
817.089	28367
817.23	28097
817.371	28230
817.512	28318
817.653	27998
817.793	28021
817.934	28131
818.075	28249
818.216	28147
818.356	28067
818.497	28010
818.638	27888
818.778	27930
818.919	27857
819.06	28013
819.2	27941
819.341	28013
819.481	28116
819.622	28284
819.762	28413
819.903	28573
820.043	28440
820.184	28436
820.324	28325
820.465	28299
820.605	28204
820.746	28333
820.886	28223
821.026	28223
821.167	28131
821.307	28238
821.447	28341
821.588	28025
821.728	27949
821.868	27842
822.008	27682
822.149	27698
822.289	27492
822.429	27287
822.569	27226
822.709	27237
822.849	27256
822.99	27119
823.13	27085
823.27	27077
823.41	27017
823.55	26777
823.69	26990
823.83	27058
823.97	27024
824.11	26708
824.25	26785
824.389	26781
824.529	26830
824.669	26872
824.809	26906
824.949	26918
825.089	26857
825.228	26895
825.368	26708
825.508	26579
825.648	26617
825.787	26682
825.927	26629
826.067	26746
826.206	26689
826.346	26701
826.485	26785
826.625	26632
826.765	26720
826.904	26625
827.044	26461
827.183	26480
827.323	26358
827.462	26446
827.601	26324
827.741	26442
827.88	26549
828.02	26271
828.159	26492
828.298	26339
828.437	26549
828.577	26389
828.716	26453
828.855	26385
828.994	26191
829.134	26225
829.273	26077
829.412	25974
829.551	26199
829.69	26043
829.829	26035
829.968	26199
830.107	26225
830.246	25986
830.385	25982
830.524	25959
830.663	25917
830.802	25791
830.941	25677
831.08	25658
831.219	25826
831.357	25784
831.496	25947
831.635	25746
831.774	25613
831.913	25457
832.051	25556
832.19	25582
832.329	25400
832.467	25362
832.606	25369
832.744	25160
832.883	25358
833.022	25270
833.16	25415
833.299	25449
833.437	25335
833.576	25396
833.714	25457
833.852	25430
833.991	25396
834.129	25434
834.267	25419
834.406	25324
834.544	25377
834.682	25453
834.821	25415
834.959	25586
835.097	25282
835.235	25434
835.373	25297
835.511	25274
835.65	25152
835.788	25365
835.926	25133
836.064	25000
836.202	25099
836.34	25126
836.478	25339
836.615	25293
836.753	25251
836.891	25297
837.029	25148
837.167	25080
837.305	25088
837.443	25050
837.58	25012
837.718	25133
837.856	25107
837.993	25023
838.131	25091
838.269	25000
838.406	24935
838.544	24882
838.681	24673
838.819	24661
838.956	24570
839.094	24525
839.231	24597
839.369	24764
839.506	24871
839.643	24779
839.781	24570
839.918	24426
840.055	24661
840.193	24460
840.33	24410
840.467	24429
840.604	24544
840.742	24711
840.879	24357
841.016	24369
841.153	24281
841.29	24635
841.427	24513
841.564	24376
841.701	24319
841.838	24334
841.975	24258
842.112	24399
842.249	24308
842.385	24133
842.522	24319
842.659	24273
842.796	24178
842.933	24152
843.069	24076
843.206	24041
843.343	24159
843.479	24220
843.616	24098
843.752	24015
843.889	23863
844.025	24148
844.162	23939
844.298	24068
844.435	23870
844.571	23889
844.708	24083
844.844	24136
844.98	24068
845.117	23992
845.253	23908
845.389	23729
845.525	23729
845.661	23786
845.798	23786
845.934	23676
846.07	23832
846.206	23665
846.342	23859
846.478	23649
846.614	23531
846.75	23376
846.886	23429
847.022	23490
847.158	23379
847.294	23364
847.429	23368
847.565	23349
847.701	23535
847.837	23166
847.972	23102
848.108	23121
848.244	23318
848.379	23151
848.515	23033
848.65	22873
848.786	22938
848.921	23185
849.057	23025
849.192	23155
849.328	23067
849.463	23060
849.598	22900
849.734	22786
849.869	22869
850.004	22774
850.14	22786
850.275	22744
850.41	22653
850.545	22778
850.68	22546
850.815	22797
850.95	22713
851.085	23079
851.22	22858
851.355	22664
851.49	22740
851.625	22744
851.76	22687
851.895	22786
852.03	22618
852.165	22786
852.299	22809
852.434	22843
852.569	22904
852.703	22797
852.838	22828
852.973	23018
853.107	22828
853.242	22649
853.376	22634
853.511	22531
853.645	22485
853.78	22744
853.914	22607
854.048	22637
854.183	22527
854.317	22694
854.451	22755
854.585	22550
854.72	22649
854.854	22611
854.988	22546
855.122	22478
855.256	22440
855.39	22508
855.524	22637
855.658	22630
855.792	22630
855.926	22656
856.06	22694
856.194	22782
856.327	22542
856.461	22523
856.595	22474
856.729	22649
856.862	22725
856.996	22717
857.13	22763
857.263	22672
857.397	22679
857.53	22542
857.664	22691
857.797	22611
857.931	22679
858.064	22592
858.197	22691
858.331	22615
858.464	22497
858.597	22497
858.731	22462
858.864	22580
858.997	22455
859.13	22535
859.263	22596
859.396	22683
859.529	22607
859.662	22519
859.795	22523
859.928	22596
860.061	22698
860.194	22771
860.327	22637
860.46	22607
860.592	22668
860.725	22634
860.858	22668
860.99	22573
861.123	22451
861.256	22535
861.388	22417
861.521	23326
861.653	22466
861.786	22310
861.918	22497
862.05	22402
862.183	22497
862.315	22436
862.447	22573
862.58	22470
862.712	22249
862.844	22363
862.976	22405
863.108	22284
863.24	22759
863.372	22154
863.504	22367
863.636	22337
863.768	22322
863.9	22306
864.032	22063
864.164	22257
864.296	22261
864.428	22291
864.559	22459
864.691	22402
864.823	22322
864.954	22135
865.086	22230
865.217	22242
865.349	22051
865.48	22124
865.612	22185
865.743	22329
865.875	22128
866.006	22101
866.137	22116
866.269	22120
866.4	22158
866.531	22147
866.662	22128
866.793	22090
866.924	21960
867.055	22109
867.186	22128
867.317	22025
867.448	22112
867.579	21953
867.71	21907
867.841	22051
867.972	22002
868.103	22109
868.233	22070
868.364	22032
868.495	22158
868.625	22211
868.756	22478
868.886	22192
869.017	22390
869.147	22432
869.278	22432
869.408	22341
869.539	22291
869.669	22462
869.799	22337
869.929	22428
870.06	22344
870.19	22763
870.32	22607
870.45	22649
870.58	22653
870.71	22850
870.84	22873
870.97	22725
871.1	22596
871.23	22843
871.36	22942
871.489	22873
871.619	22828
871.749	22972
871.879	22919
872.008	22987
872.138	22946
872.267	22961
872.397	22930
872.526	22771
872.656	22733
872.785	22828
872.915	22953
873.044	23102
873.173	22858
873.303	22995
873.432	22839
873.561	23041
873.69	22961
873.819	23044
873.948	23033
874.077	22850
874.206	22904
874.335	23064
874.464	23075
874.593	23284
874.722	23231
874.851	23239
874.979	23140
875.108	23265
875.237	23113
875.365	23022
875.494	23181
875.623	23265
875.751	23212
875.88	23090
876.008	23345
876.136	23273
876.265	23497
876.393	23771
876.521	23577
876.65	23585
876.778	23589
876.906	23524
877.034	23570
877.162	23414
877.29	23406
877.418	23516
877.546	23608
877.674	23459
877.802	23414
877.93	23634
878.058	23421
878.185	23353
878.313	23444
878.441	23611
878.568	23261
878.696	23455
878.824	23619
878.951	23478
879.079	23733
879.206	23798
879.333	23589
879.461	23410
879.588	23505
879.715	23642
879.842	23745
879.97	23505
880.097	23334
880.224	23356
880.351	23341
880.478	23330
880.605	23174
880.732	23200
880.859	23547
880.986	23356
881.112	23311
881.239	23075
881.366	22991
881.493	22957
881.619	22881
881.746	22831
881.872	22843
881.999	22824
882.125	22801
882.252	22812
882.378	22866
882.505	22927
882.631	22767
882.757	22565
882.883	22592
883.01	22565
883.136	22580
883.262	22451
883.388	22428
883.514	22561
883.64	22440
883.766	22615
883.892	22329
884.018	22394
884.143	22527
884.269	22615
884.395	22265
884.52	22105
884.646	22246
884.772	22154
884.897	22150
885.023	22135
885.148	22204
885.274	22371
885.399	22261
885.524	22272
885.65	22192
885.775	22181
885.9	22116
886.025	22242
886.15	22261
886.275	22177
886.4	22116
886.525	22188
886.65	22109
886.775	22048
886.9	22238
887.025	22367
887.149	22135
887.274	21884
887.399	21964
887.523	21907
887.648	21949
887.773	21797
887.897	21979
888.021	22006
888.146	21880
888.27	21922
888.395	22017
888.519	22048
888.643	21861
888.767	21941
888.891	21797
889.015	21770
889.139	21793
889.263	21743
889.387	21800
889.511	22051
889.635	21869
889.759	21682
889.883	21709
890.006	21808
890.13	21686
890.254	21671
890.377	21641
890.501	21504
890.624	21408
890.748	21507
890.871	21336
890.995	21291
891.118	21230
891.241	21260
891.364	21321
891.488	21317
891.611	21279
891.734	21268
891.857	21325
891.98	21169
892.103	21310
892.226	21336
892.349	21237
892.471	21005
892.594	21150
892.717	21226
892.839	21199
892.962	21222
893.085	21222
893.207	21184
893.33	21138
893.452	21051
893.575	21104
893.697	21074
893.819	21233
893.941	21397
894.064	21203
894.186	21138
894.308	21028
894.43	21131
894.552	21237
894.674	21176
894.796	20998
894.918	21123
895.04	21077
895.161	21157
895.283	21180
895.405	21131
895.526	21093
895.648	21039
895.769	21157
895.891	21237
896.012	21283
896.134	21116
896.255	21176
896.376	21074
896.498	21188
896.619	21199
896.74	21252
896.861	21192
896.982	21389
897.103	21488
897.224	21412
897.345	21317
897.466	21207
897.587	21317
897.708	21485
897.828	21313
897.949	21313
898.07	21127
898.19	21302
898.311	21370
898.431	21268
898.552	21283
898.672	21363
898.792	21325
898.913	21370
899.033	21085
899.153	21157
899.273	21032
899.393	21093
899.513	21074
899.633	21123
899.753	21085
899.873	21051
899.993	21081
900.113	20994
900.232	21058
900.352	20952
900.472	20887
900.591	20876
900.711	20823
900.83	20636
900.95	20906
901.069	20910
901.189	20735
901.308	20617
901.427	20492
901.546	20461
901.665	20351
901.784	20412
901.904	20282
902.023	20073
902.141	20065
902.26	19894
902.379	19921
902.498	20012
902.617	19860
902.735	19902
902.854	19902
902.973	19731
903.091	19571
903.21	19480
903.328	19616
903.446	19430
903.565	19320
903.683	19346
903.801	19206
903.919	19335
904.038	19236
904.156	19065
904.274	19183
904.392	19110
904.51	19145
904.627	19065
904.745	19183
904.863	19107
904.981	18859
905.098	18806
905.216	18757
905.334	18802
905.451	18787
905.569	18650
905.686	18795
905.803	18757
905.921	18563
906.038	18593
906.155	18593
906.272	18426
906.389	18441
906.506	18346
906.623	18334
906.74	18262
906.857	18228
906.974	18254
907.091	18304
907.208	18365
907.324	18266
907.441	18346
907.557	17992
907.674	17992
907.79	17866
907.907	17923
908.023	17961
908.139	18064
908.256	17988
908.372	17859
908.488	17760
908.604	17779
908.72	17722
908.836	17760
908.952	17756
909.068	17737
909.184	17824
909.3	17710
909.415	17802
909.531	17779
909.647	17474
909.762	17459
909.878	17455
909.993	17376
910.108	17364
910.224	17288
910.339	17383
910.454	17337
910.57	17185
910.685	17212
910.8	17360
910.915	17318
911.03	17231
911.145	17022
911.259	17105
911.374	16953
911.489	16968
911.604	16835
911.718	16679
911.833	16588
911.947	16691
912.062	16489
912.176	16729
912.291	16820
912.405	16679
912.519	16873
912.633	17018
912.748	16729
912.862	16649
912.976	16565
913.09	16561
913.204	16451
913.318	16554
913.431	16611
913.545	16626
913.659	16637
913.772	16474
913.886	16333
914	16341
914.113	16432
914.226	16409
914.34	16325
914.453	16246
914.566	16451
914.68	16276
914.793	16181
914.906	16010
915.019	15941
915.132	15918
915.245	15937
915.358	15899
915.47	16010
915.583	15918
915.696	15983
915.809	16006
915.921	16029
916.034	15827
916.146	15762
916.259	15637
916.371	15930
916.483	15781
916.595	15606
916.708	15743
916.82	15770
916.932	15644
917.044	15637
917.156	15690
917.268	15629
917.38	15622
917.491	15492
917.603	15458
917.715	15603
917.826	15652
917.938	15466
918.049	15332
918.161	15580
918.272	15701
918.384	15622
918.495	15462
918.606	15317
918.717	15245
918.828	15252
918.939	15325
919.05	15104
919.161	15252
919.272	15074
919.383	15188
919.494	15348
919.604	15443
919.715	15237
919.826	15218
919.936	15131
920.047	15272
920.157	15268
920.267	15447
920.378	15329
920.488	15169
920.598	15393
920.708	15424
920.818	15325
920.928	15336
921.038	15572
921.148	15340
921.258	15112
921.368	15058
921.477	14918
921.587	14872
921.697	14754
921.806	14994
921.916	14804
922.025	14617
922.134	14568
922.244	14503
922.353	14606
922.462	14457
922.571	14381
922.68	14324
922.789	14172
922.898	14286
923.007	14221
923.116	14214
923.224	14206
923.333	14115
923.442	14073
923.55	13951
923.659	14103
923.767	14149
923.876	14020
923.984	14024
924.092	13909
924.201	14012
924.309	13856
924.417	13921
924.525	13788
924.633	13803
924.741	14606
924.849	13620
924.956	13746
925.064	13681
925.172	13628
925.279	13575
925.387	13624
925.494	13567
925.602	13689
925.709	13666
925.816	13468
925.924	13483
926.031	13616
926.138	13571
926.245	13464
926.352	13438
926.459	13518
926.566	13594
926.673	13468
926.779	13388
926.886	13358
926.993	13164
927.099	13190
927.206	13088
927.312	13141
927.419	13152
927.525	13038
927.631	13206
927.737	13027
927.843	12966
927.95	12810
928.056	12947
928.162	12985
928.267	12920
928.373	13655
928.479	13088
928.585	12810
928.69	12776
928.796	12882
928.901	12844
929.007	12639
929.112	12745
929.218	12768
929.323	12688
929.428	12555
929.533	12856
929.638	12540
929.743	12700
929.848	12582
929.953	12574
930.058	12513
930.163	12277
930.267	12372
930.372	12433
930.477	12273
930.581	12559
930.685	12353
930.79	12235
930.894	12182
930.998	12129
931.103	12243
931.207	11977
931.311	11863
931.415	11798
931.519	11581
931.623	11619
