Data from test_V78500241_3.txt Node
Date: Fri Mar 25 15:41:49 CST 2022
User: usil
Spectrometer: V785-0024
Trigger mode: 0
Integration Time (sec): 4.000000E-1
Scans to average: 1
Nonlinearity correction enabled: false
Boxcar width: 0
Storing dark spectrum: false
XAxis mode: Wavelengths
Number of Pixels in Spectrum: 1024
>>>>>Begin Spectral Data<<<<<
801.071	27176
801.214	27028
801.356	26826
801.499	26796
801.641	26492
801.783	26560
801.926	26533
802.068	26518
802.211	26583
802.353	26419
802.496	26221
802.638	26199
802.78	26221
802.923	26142
803.065	26084
803.208	26043
803.35	26073
803.492	26202
803.635	26180
803.777	26138
803.919	26103
804.061	26419
804.204	26199
804.346	26088
804.488	25837
804.63	25921
804.773	25875
804.915	25989
805.057	26058
805.199	25879
805.341	26043
805.483	26084
805.626	26069
805.768	25997
805.91	26149
806.052	26259
806.194	25856
806.336	26317
806.478	26206
806.62	26088
806.762	26149
806.904	26252
807.046	26446
807.188	26366
807.33	26324
807.472	26488
807.614	26351
807.756	26324
807.898	26339
808.04	26282
808.182	26130
808.324	26225
808.465	26191
808.607	26332
808.749	26450
808.891	26648
809.033	26564
809.174	26495
809.316	26461
809.458	26495
809.6	26347
809.741	26511
809.883	26480
810.025	26762
810.166	26769
810.308	26785
810.45	26758
810.591	26575
810.733	26393
810.875	26446
811.016	26278
811.158	26240
811.299	26404
811.441	26511
811.582	26446
811.724	26336
811.865	26351
812.007	26259
812.148	26263
812.29	26237
812.431	26503
812.573	26640
812.714	26823
812.855	26811
812.997	26880
813.138	27070
813.279	26952
813.421	26940
813.562	26857
813.703	26613
813.845	26549
813.986	26164
814.127	26054
814.268	25883
814.41	25951
814.551	25841
814.692	25856
814.833	25791
814.974	25837
815.115	25719
815.256	25784
815.397	25586
815.539	25647
815.68	25537
815.821	25335
815.962	25502
816.103	25499
816.244	25400
816.385	25278
816.526	25217
816.666	25129
816.807	24852
816.948	25019
817.089	24989
817.23	24939
817.371	24920
817.512	24901
817.653	24833
817.793	24916
817.934	24962
818.075	24947
818.216	24871
818.356	24772
818.497	24707
818.638	24578
818.778	24635
818.919	24601
819.06	24631
819.2	24738
819.341	24757
819.481	24897
819.622	24817
819.762	25061
819.903	25088
820.043	24916
820.184	24875
820.324	24814
820.465	24981
820.605	24886
820.746	24802
820.886	24787
821.026	24863
821.167	24829
821.307	24817
821.447	24772
821.588	24601
821.728	24532
821.868	24353
822.008	24095
822.149	24319
822.289	24159
822.429	24018
822.569	23817
822.709	23767
822.849	23642
822.99	23562
823.13	23684
823.27	23554
823.41	23345
823.55	23410
823.69	23467
823.83	23505
823.97	23307
824.11	23071
824.25	23117
824.389	22995
824.529	23303
824.669	23143
824.809	23337
824.949	23303
825.089	23273
825.228	23166
825.368	22957
825.508	22824
825.648	23052
825.787	22991
825.927	22980
826.067	23018
826.206	22824
826.346	22953
826.485	22972
826.625	22980
826.765	23067
826.904	22896
827.044	22603
827.183	22626
827.323	22611
827.462	22687
827.601	22645
827.741	22561
827.88	22580
828.02	22398
828.159	22542
828.298	22626
828.437	22523
828.577	22565
828.716	22546
828.855	22424
828.994	22325
829.134	22265
829.273	22257
829.412	22230
829.551	22112
829.69	22219
829.829	22257
829.968	22322
830.107	22352
830.246	22310
830.385	22158
830.524	22067
830.663	21949
830.802	21956
830.941	21835
831.08	21800
831.219	21964
831.357	21884
831.496	22044
831.635	21770
831.774	21652
831.913	21732
832.051	21523
832.19	21557
832.329	21633
832.467	21359
832.606	21386
832.744	21397
832.883	21393
833.022	21488
833.16	21340
833.299	21458
833.437	21351
833.576	21469
833.714	21504
833.852	21492
833.991	21439
834.129	21549
834.267	21443
834.406	21363
834.544	21477
834.682	21348
834.821	21450
834.959	21694
835.097	21310
835.235	21462
835.373	21382
835.511	21264
835.65	21412
835.788	21340
835.926	21173
836.064	20990
836.202	21188
836.34	21268
836.478	21249
836.615	21214
836.753	21287
836.891	21401
837.029	21279
837.167	21211
837.305	21150
837.443	21089
837.58	21108
837.718	21192
837.856	21070
837.993	21089
838.131	21116
838.269	20979
838.406	21074
838.544	20937
838.681	20796
838.819	20629
838.956	20651
839.094	20545
839.231	20659
839.369	20602
839.506	20853
839.643	20769
839.781	20659
839.918	20442
840.055	20549
840.193	20552
840.33	20412
840.467	20465
840.604	20613
840.742	20773
840.879	20389
841.016	20313
841.153	20252
841.29	20541
841.427	20484
841.564	20389
841.701	20374
841.838	20381
841.975	20294
842.112	20366
842.249	20355
842.385	20244
842.522	20339
842.659	20115
842.796	20088
842.933	20088
843.069	20119
843.206	20050
843.343	20126
843.479	20157
843.616	20195
843.752	19868
843.889	19826
844.025	19967
844.162	19799
844.298	19951
844.435	19909
844.571	19837
844.708	19837
844.844	19955
844.98	19959
845.117	20008
845.253	19757
845.389	19719
845.525	19723
845.661	19597
845.798	19533
845.934	19544
846.07	19483
846.206	19548
846.342	19765
846.478	19609
846.614	19358
846.75	19331
846.886	19266
847.022	19499
847.158	19499
847.294	19354
847.429	19304
847.565	19335
847.701	19499
847.837	19076
847.972	18924
848.108	19236
848.244	19145
848.379	18901
848.515	18905
848.65	18764
848.786	18894
848.921	18806
849.057	19034
849.192	18954
849.328	18837
849.463	18916
849.598	18852
849.734	18798
849.869	18650
850.004	18692
850.14	18661
850.275	18616
850.41	18498
850.545	18585
850.68	18509
850.815	18650
850.95	18566
851.085	18772
851.22	18597
851.355	18700
851.49	18486
851.625	18509
851.76	18574
851.895	18471
852.03	18494
852.165	18566
852.299	18525
852.434	18589
852.569	18540
852.703	18403
852.838	18631
852.973	18753
853.107	18642
853.242	18498
853.376	18506
853.511	18247
853.645	18395
853.78	18582
853.914	18414
854.048	18300
854.183	18376
854.317	18429
854.451	18570
854.585	18350
854.72	18418
854.854	18433
854.988	18251
855.122	18346
855.256	18254
855.39	18353
855.524	18494
855.658	18437
855.792	18407
855.926	18399
856.06	18498
856.194	18540
856.327	18330
856.461	18281
856.595	18346
856.729	18308
856.862	18521
856.996	18483
857.13	18350
857.263	18502
857.397	18452
857.53	18353
857.664	18361
857.797	18460
857.931	18509
858.064	18490
858.197	18346
858.331	18266
858.464	18319
858.597	18140
858.731	18232
858.864	18353
858.997	18281
859.13	18289
859.263	18376
859.396	18445
859.529	18346
859.662	18235
859.795	18273
859.928	18239
860.061	18441
860.194	18445
860.327	18285
860.46	18186
860.592	18289
860.725	18502
860.858	18372
860.99	18254
861.123	18114
861.256	18148
861.388	18319
861.521	18894
861.653	18174
861.786	18186
861.918	18258
862.05	18277
862.183	18399
862.315	18391
862.447	18426
862.58	18323
862.712	17996
862.844	17980
862.976	18190
863.108	18152
863.24	18407
863.372	17893
863.504	18045
863.636	18015
863.768	18087
863.9	17973
864.032	17923
864.164	18038
864.296	18041
864.428	18201
864.559	18167
864.691	18083
864.823	18049
864.954	17996
865.086	18034
865.217	17893
865.349	17927
865.48	18060
865.612	17931
865.743	18159
865.875	17965
866.006	17870
866.137	17977
866.269	17923
866.4	18064
866.531	17977
866.662	17836
866.793	17843
866.924	17893
867.055	17942
867.186	17836
867.317	17855
867.448	17855
867.579	17836
867.71	17779
867.841	17775
867.972	17897
868.103	17824
868.233	17969
868.364	17950
868.495	18011
868.625	18125
868.756	18216
868.886	18045
869.017	18190
869.147	18201
869.278	18243
869.408	18129
869.539	18041
869.669	18266
869.799	18174
869.929	18239
870.06	18171
870.19	18433
870.32	18445
870.45	18570
870.58	18532
870.71	18540
870.84	18673
870.97	18559
871.1	18479
871.23	18749
871.36	18642
871.489	18627
871.619	18779
871.749	18745
871.879	18821
872.008	18840
872.138	18722
872.267	18719
872.397	18540
872.526	18597
872.656	18646
872.785	18620
872.915	18764
873.044	18897
873.173	18734
873.303	18760
873.432	18745
873.561	18764
873.69	18806
873.819	18711
873.948	18894
874.077	18719
874.206	18738
874.335	18848
874.464	19027
874.593	19080
874.722	19053
874.851	19046
874.979	19156
875.108	19148
875.237	19008
875.365	18909
875.494	18943
875.623	19164
875.751	19046
875.88	19137
876.008	19171
876.136	19282
876.265	19594
876.393	19715
876.521	19601
876.65	19430
876.778	19567
876.906	19472
877.034	19320
877.162	19521
877.29	19369
877.418	19396
877.546	19499
877.674	19552
877.802	19449
877.93	19339
878.058	19407
878.185	19244
878.313	19403
878.441	19438
878.568	19282
878.696	19392
878.824	19400
878.951	19575
879.079	19544
879.206	19738
879.333	19655
879.461	19502
879.588	19521
879.715	19559
879.842	19807
879.97	19609
880.097	19232
880.224	19285
880.351	19274
880.478	19285
880.605	19206
880.732	19179
880.859	19575
880.986	19369
881.112	19320
881.239	19099
881.366	19023
881.493	19034
881.619	18875
881.746	18878
881.872	18897
881.999	18844
882.125	18795
882.252	18958
882.378	18954
882.505	18973
882.631	18810
882.757	18658
882.883	18711
883.01	18700
883.136	18597
883.262	18498
883.388	18498
883.514	18669
883.64	18658
883.766	18604
883.892	18566
884.018	18471
884.143	18673
884.269	18749
884.395	18422
884.52	18445
884.646	18452
884.772	18292
884.897	18239
885.023	18452
885.148	18388
885.274	18498
885.399	18570
885.524	18445
885.65	18395
885.775	18315
885.9	18353
886.025	18566
886.15	18464
886.275	18266
886.4	18148
886.525	18292
886.65	18205
886.775	18277
886.9	18532
887.025	18635
887.149	18369
887.274	18110
887.399	18072
887.523	18087
887.648	18091
887.773	18015
887.897	18262
888.021	18041
888.146	18019
888.27	18167
888.395	18251
888.519	18205
888.643	18197
888.767	18125
888.891	17999
889.015	17840
889.139	17999
889.263	17885
889.387	18057
889.511	18155
889.635	18007
889.759	17805
889.883	17920
890.006	17821
890.13	18022
890.254	17817
890.377	17805
890.501	17729
890.624	17680
890.748	17752
890.871	17585
890.995	17486
891.118	17455
891.241	17562
891.364	17604
891.488	17592
891.611	17436
891.734	17505
891.857	17615
891.98	17585
892.103	17611
892.226	17589
892.349	17455
892.471	17383
892.594	17482
892.717	17558
892.839	17509
892.962	17493
893.085	17630
893.207	17482
893.33	17398
893.452	17383
893.575	17558
893.697	17486
893.819	17642
893.941	17779
894.064	17608
894.186	17497
894.308	17516
894.43	17707
894.552	17748
894.674	17600
894.796	17486
894.918	17444
895.04	17459
895.161	17638
895.283	17532
895.405	17528
895.526	17535
895.648	17619
895.769	17604
895.891	17619
896.012	17581
896.134	17589
896.255	17554
896.376	17558
896.498	17592
896.619	17767
896.74	17539
896.861	17737
896.982	17931
897.103	18125
897.224	17984
897.345	17878
897.466	17836
897.587	17790
897.708	18053
897.828	17851
897.949	17805
898.07	17611
898.19	17897
898.311	17965
898.431	17779
898.552	17843
898.672	17916
898.792	17980
898.913	17779
899.033	17783
899.153	17596
899.273	17512
899.393	17653
899.513	17562
899.633	17608
899.753	17532
899.873	17570
899.993	17653
900.113	17573
900.232	17672
900.352	17554
900.472	17516
900.591	17474
900.711	17452
900.83	17376
900.95	17482
901.069	17585
901.189	17345
901.308	17136
901.427	17010
901.546	17147
901.665	17155
901.784	17193
901.904	16984
902.023	16885
902.141	16664
902.26	16645
902.379	16736
902.498	16641
902.617	16580
902.735	16630
902.854	16558
902.973	16546
903.091	16257
903.21	16211
903.328	16223
903.446	16185
903.565	16109
903.683	16143
903.801	15922
903.919	16029
904.038	16086
904.156	15937
904.274	16048
904.392	15812
904.51	15895
904.627	15892
904.745	15975
904.863	15831
904.981	15652
905.098	15538
905.216	15557
905.334	15515
905.451	15545
905.569	15542
905.686	15660
905.803	15519
905.921	15420
906.038	15424
906.155	15310
906.272	15321
906.389	15264
906.506	15051
906.623	15203
906.74	15119
906.857	14967
906.974	15001
907.091	15085
907.208	15184
907.324	15032
907.441	14967
907.557	14876
907.674	14750
907.79	14667
907.907	14731
908.023	14807
908.139	14796
908.256	14712
908.372	14587
908.488	14514
908.604	14469
908.72	14480
908.836	14431
908.952	14400
909.068	14492
909.184	14560
909.3	14507
909.415	14434
909.531	14328
909.647	14298
909.762	14149
909.878	14092
909.993	14282
910.108	14130
910.224	14130
910.339	14157
910.454	14130
910.57	14073
910.685	13906
910.8	14183
910.915	14149
911.03	14031
911.145	13849
911.259	13772
911.374	13772
911.489	13807
911.604	13651
911.718	13559
911.833	13559
911.947	13525
912.062	13464
912.176	13601
912.291	13533
912.405	13662
912.519	13841
912.633	13708
912.748	13605
912.862	13556
912.976	13472
913.09	13293
913.204	13320
913.318	13392
913.431	13415
913.545	13457
913.659	13487
913.772	13419
913.886	13175
914	13221
914.113	13312
914.226	13327
914.34	13324
914.453	13099
914.566	13259
914.68	13164
914.793	13160
914.906	12958
915.019	12905
915.132	12875
915.245	12901
915.358	12916
915.47	12970
915.583	12977
915.696	12890
915.809	12993
915.921	13046
916.034	12890
916.146	12886
916.259	12882
916.371	12977
916.483	12894
916.595	12779
916.708	12772
916.82	12791
916.932	12837
917.044	12829
917.156	12764
917.268	12616
917.38	12779
917.491	12566
917.603	12677
917.715	12700
917.826	12722
917.938	12601
918.049	12525
918.161	12559
918.272	12760
918.384	12734
918.495	12601
918.606	12445
918.717	12403
918.828	12509
918.939	12502
919.05	12323
919.161	12437
919.272	12186
919.383	12372
919.494	12486
919.604	12760
919.715	12395
919.826	12319
919.936	12376
920.047	12388
920.157	12334
920.267	12627
920.378	12464
920.488	12388
920.598	12551
920.708	12856
920.818	12585
920.928	12574
921.038	12711
921.148	12597
921.258	12407
921.368	12319
921.477	12197
921.587	12117
921.697	12068
921.806	12194
921.916	12083
922.025	11836
922.134	11878
922.244	11870
922.353	11950
922.462	11764
922.571	11668
922.68	11577
922.789	11547
922.898	11482
923.007	11429
923.116	11547
923.224	11512
923.333	11486
923.442	11307
923.55	11410
923.659	11379
923.767	11436
923.876	11360
923.984	11265
924.092	11353
924.201	11337
924.309	11387
924.417	11341
924.525	11235
924.633	11254
924.741	12159
924.849	11060
924.956	11170
925.064	11025
925.172	10995
925.279	11090
925.387	11045
925.494	11067
925.602	11166
925.709	11086
925.816	10965
925.924	10999
926.031	11185
926.138	10965
926.245	11086
926.352	10831
926.459	11045
926.566	11124
926.673	10991
926.779	10900
926.886	10812
926.993	10725
927.099	10656
927.206	10596
927.312	10649
927.419	10706
927.525	10717
927.631	10679
927.737	10596
927.843	10512
927.95	10405
928.056	10538
928.162	10554
928.267	10584
928.373	11166
928.479	10634
928.585	10436
928.69	10580
928.796	10523
928.901	10371
929.007	10261
929.112	10436
929.218	10352
929.323	10306
929.428	10363
929.533	10443
929.638	10215
929.743	10272
929.848	10352
929.953	10276
930.058	10147
930.163	10082
930.267	10063
930.372	10162
930.477	9899
930.581	10169
930.685	10074
930.79	9895
930.894	9918
930.998	9991
931.103	9972
931.207	9671
931.311	9591
931.415	9549
931.519	9321
931.623	9363
