Data from test_V78500241_2224.txt Node
Date: Fri Mar 25 15:57:12 CST 2022
User: usil
Spectrometer: V785-0024
Trigger mode: 0
Integration Time (sec): 4.000000E-1
Scans to average: 1
Nonlinearity correction enabled: false
Boxcar width: 0
Storing dark spectrum: false
XAxis mode: Wavelengths
Number of Pixels in Spectrum: 1024
>>>>>Begin Spectral Data<<<<<
801.071	29132
801.214	29022
801.356	28896
801.499	28820
801.641	28767
801.783	28683
801.926	28805
802.068	28801
802.211	28790
802.353	28546
802.496	28341
802.638	28508
802.78	28573
802.923	28413
803.065	28382
803.208	28455
803.35	28622
803.492	28561
803.635	28588
803.777	28573
803.919	28793
804.061	28915
804.204	28687
804.346	28577
804.488	28573
804.63	28740
804.773	28634
804.915	28755
805.057	28824
805.199	28774
805.341	28755
805.483	28911
805.626	28854
805.768	28816
805.91	28858
806.052	28999
806.194	28782
806.336	29025
806.478	28820
806.62	28782
806.762	28911
806.904	29105
807.046	29341
807.188	29299
807.33	29277
807.472	29284
807.614	29250
807.756	29307
807.898	29208
808.04	29079
808.182	29128
808.324	29334
808.465	29284
808.607	29474
808.749	29512
808.891	29676
809.033	29623
809.174	29752
809.316	29554
809.458	29619
809.6	29547
809.741	29657
809.883	29684
810.025	29798
810.166	29874
810.308	29855
810.45	29897
810.591	29904
810.733	29634
810.875	29653
811.016	29748
811.158	29547
811.299	29596
811.441	29756
811.582	29756
811.724	29668
811.865	29524
812.007	29653
812.148	29459
812.29	29707
812.431	29908
812.573	29977
812.714	30110
812.855	30144
812.997	30155
813.138	30410
813.279	30357
813.421	30300
813.562	30045
813.703	30022
813.845	29847
813.986	29691
814.127	29375
814.268	29349
814.41	29410
814.551	29402
814.692	29353
814.833	29280
814.974	29265
815.115	29246
815.256	29303
815.397	29258
815.539	29265
815.68	29128
815.821	29067
815.962	29151
816.103	29204
816.244	28991
816.385	29044
816.526	28949
816.666	28809
816.807	28672
816.948	28733
817.089	28748
817.23	28615
817.371	28771
817.512	28706
817.653	28588
817.793	28637
817.934	28675
818.075	28546
818.216	28694
818.356	28691
818.497	28683
818.638	28584
818.778	28660
818.919	28447
819.06	28470
819.2	28485
819.341	28622
819.481	28675
819.622	28736
819.762	28995
819.903	28771
820.043	28919
820.184	28873
820.324	28854
820.465	28885
820.605	28824
820.746	28767
820.886	28729
821.026	28782
821.167	28839
821.307	28915
821.447	28786
821.588	28592
821.728	28421
821.868	28325
822.008	28246
822.149	28169
822.289	28192
822.429	27972
822.569	27888
822.709	27835
822.849	27698
822.99	27660
823.13	27686
823.27	27717
823.41	27412
823.55	27332
823.69	27511
823.83	27488
823.97	27397
824.11	27321
824.25	27287
824.389	27351
824.529	27393
824.669	27329
824.809	27496
824.949	27386
825.089	27374
825.228	27420
825.368	27085
825.508	27154
825.648	27161
825.787	27291
825.927	27310
826.067	27108
826.206	27355
826.346	27150
826.485	27199
826.625	27119
826.765	27180
826.904	27207
827.044	27074
827.183	26902
827.323	26891
827.462	26887
827.601	27009
827.741	26956
827.88	27005
828.02	26857
828.159	26887
828.298	26823
828.437	27043
828.577	26861
828.716	26963
828.855	26830
828.994	26674
829.134	26731
829.273	26693
829.412	26465
829.551	26651
829.69	26579
829.829	26644
829.968	26648
830.107	26758
830.246	26583
830.385	26640
830.524	26609
830.663	26358
830.802	26271
830.941	26149
831.08	26119
831.219	26248
831.357	26324
831.496	26278
831.635	26191
831.774	26237
831.913	25989
832.051	26077
832.19	26005
832.329	25970
832.467	25818
832.606	25921
832.744	25849
832.883	25940
833.022	25818
833.16	25860
833.299	25856
833.437	25921
833.576	25894
833.714	25898
833.852	25986
833.991	25940
834.129	25986
834.267	26107
834.406	25879
834.544	25917
834.682	25986
834.821	25993
834.959	26035
835.097	25791
835.235	25951
835.373	26043
835.511	25875
835.65	25757
835.788	25799
835.926	25780
836.064	25620
836.202	25556
836.34	25757
836.478	25795
836.615	25689
836.753	25845
836.891	25875
837.029	25750
837.167	25845
837.305	25803
837.443	25616
837.58	25601
837.718	25639
837.856	25628
837.993	25502
838.131	25483
838.269	25468
838.406	25521
838.544	25365
838.681	25244
838.819	25304
838.956	25091
839.094	25034
839.231	24996
839.369	25213
839.506	25510
839.643	25407
839.781	25221
839.918	24935
840.055	25179
840.193	25015
840.33	24901
840.467	24962
840.604	25103
840.742	25171
840.879	24863
841.016	24897
841.153	24802
841.29	25008
841.427	25042
841.564	24848
841.701	24954
841.838	24882
841.975	24772
842.112	24783
842.249	24772
842.385	24833
842.522	24897
842.659	24810
842.796	24726
842.933	24631
843.069	24578
843.206	24570
843.343	24726
843.479	24779
843.616	24642
843.752	24494
843.889	24536
844.025	24623
844.162	24266
844.298	24502
844.435	24505
844.571	24391
844.708	24422
844.844	24627
844.98	24620
845.117	24585
845.253	24536
845.389	24483
845.525	24270
845.661	24372
845.798	24072
845.934	24327
846.07	24133
846.206	24266
846.342	24262
846.478	24235
846.614	23980
846.75	23920
846.886	23920
847.022	23946
847.158	24026
847.294	24030
847.429	23901
847.565	23783
847.701	24178
847.837	23596
847.972	23718
848.108	23680
848.244	23490
848.379	23478
848.515	23547
848.65	23482
848.786	23444
848.921	23573
849.057	23528
849.192	23547
849.328	23551
849.463	23512
849.598	23585
849.734	23387
849.869	23337
850.004	23330
850.14	23349
850.275	23269
850.41	23296
850.545	23265
850.68	23315
850.815	23376
850.95	23379
851.085	23376
851.22	23345
851.355	23204
851.49	23212
851.625	23326
851.76	23242
851.895	23200
852.03	23261
852.165	23242
852.299	23391
852.434	23296
852.569	23288
852.703	23216
852.838	23216
852.973	23440
853.107	23322
853.242	23159
853.376	23044
853.511	23022
853.645	22984
853.78	23185
853.914	23170
854.048	22980
854.183	23113
854.317	23041
854.451	23239
854.585	23090
854.72	23060
854.854	23151
854.988	22927
855.122	22961
855.256	23022
855.39	23128
855.524	23136
855.658	23132
855.792	23113
855.926	23105
856.06	23079
856.194	23197
856.327	23037
856.461	22987
856.595	23086
856.729	23166
856.862	23246
856.996	23075
857.13	23162
857.263	23151
857.397	23181
857.53	23155
857.664	23064
857.797	23022
857.931	23181
858.064	23124
858.197	23166
858.331	23067
858.464	22873
858.597	23018
858.731	23048
858.864	23143
858.997	22938
859.13	23037
859.263	23044
859.396	23246
859.529	23041
859.662	23064
859.795	23006
859.928	23083
860.061	23174
860.194	23280
860.327	23220
860.46	23132
860.592	23143
860.725	23296
860.858	23227
860.99	23159
861.123	23025
861.256	23102
861.388	23109
861.521	23623
861.653	22885
861.786	22752
861.918	22892
862.05	22968
862.183	22752
862.315	22938
862.447	23094
862.58	22980
862.712	22835
862.844	22771
862.976	22900
863.108	22828
863.24	23334
863.372	22778
863.504	22843
863.636	22809
863.768	22774
863.9	22839
864.032	22675
864.164	22805
864.296	22725
864.428	22904
864.559	22824
864.691	22801
864.823	22862
864.954	22771
865.086	22736
865.217	22717
865.349	22561
865.48	22679
865.612	22649
865.743	22805
865.875	22584
866.006	22493
866.137	22630
866.269	22588
866.4	22569
866.531	22569
866.662	22516
866.793	22577
866.924	22607
867.055	22599
867.186	22634
867.317	22542
867.448	22428
867.579	22577
867.71	22535
867.841	22538
867.972	22622
868.103	22512
868.233	22565
868.364	22565
868.495	22683
868.625	22809
868.756	22908
868.886	22698
869.017	22869
869.147	22968
869.278	23018
869.408	22850
869.539	22793
869.669	22961
869.799	23041
869.929	22972
870.06	23064
870.19	23200
870.32	23170
870.45	23166
870.58	23189
870.71	23204
870.84	23334
870.97	23162
871.1	23265
871.23	23398
871.36	23436
871.489	23448
871.619	23478
871.749	23391
871.879	23444
872.008	23649
872.138	23402
872.267	23455
872.397	23455
872.526	23178
872.656	23254
872.785	23368
872.915	23471
873.044	23486
873.173	23395
873.303	23463
873.432	23615
873.561	23695
873.69	23459
873.819	23497
873.948	23570
874.077	23509
874.206	23414
874.335	23395
874.464	23627
874.593	23748
874.722	23539
874.851	23649
874.979	23767
875.108	23596
875.237	23726
875.365	23627
875.494	23657
875.623	23710
875.751	23703
875.88	23741
876.008	23798
876.136	23687
876.265	23874
876.393	24159
876.521	24106
876.65	24201
876.778	24026
876.906	23977
877.034	23965
877.162	23980
877.29	24003
877.418	24041
877.546	24114
877.674	23939
877.802	24041
877.93	23935
878.058	23950
878.185	23828
878.313	23988
878.441	23958
878.568	23809
878.696	23863
878.824	23923
878.951	24102
879.079	24148
879.206	24289
879.333	24041
879.461	23923
879.588	24079
879.715	24087
879.842	24186
879.97	24163
880.097	23870
880.224	23809
880.351	23984
880.478	23912
880.605	23745
880.732	23737
880.859	23942
880.986	23882
881.112	23840
881.239	23687
881.366	23531
881.493	23516
881.619	23360
881.746	23391
881.872	23406
881.999	23296
882.125	23326
882.252	23334
882.378	23277
882.505	23421
882.631	23181
882.757	23037
882.883	23151
883.01	23067
883.136	22968
883.262	22915
883.388	22831
883.514	22995
883.64	22968
883.766	22934
883.892	22793
884.018	22774
884.143	22908
884.269	23075
884.395	22675
884.52	22588
884.646	22656
884.772	22459
884.897	22626
885.023	22698
885.148	22656
885.274	22774
885.399	22645
885.524	22653
885.65	22721
885.775	22721
885.9	22592
886.025	22759
886.15	22748
886.275	22516
886.4	22470
886.525	22679
886.65	22508
886.775	22573
886.9	22820
887.025	22744
887.149	22546
887.274	22436
887.399	22470
887.523	22329
887.648	22409
887.773	22379
887.897	22394
888.021	22394
888.146	22299
888.27	22428
888.395	22611
888.519	22462
888.643	22440
888.767	22443
888.891	22261
889.015	22177
889.139	22135
889.263	22097
889.387	22284
889.511	22341
889.635	22352
889.759	22188
889.883	22177
890.006	22230
890.13	22310
890.254	22059
890.377	22048
890.501	21953
890.624	21926
890.748	21937
890.871	21911
890.995	21614
891.118	21572
891.241	21739
891.364	21793
891.488	21812
891.611	21679
891.734	21679
891.857	21641
891.98	21705
892.103	21709
892.226	21694
892.349	21701
892.471	21526
892.594	21709
892.717	21679
892.839	21629
892.962	21736
893.085	21690
893.207	21599
893.33	21629
893.452	21675
893.575	21564
893.697	21599
893.819	21694
893.941	21857
894.064	21819
894.186	21614
894.308	21439
894.43	21622
894.552	21789
894.674	21583
894.796	21553
894.918	21603
895.04	21549
895.161	21698
895.283	21724
895.405	21538
895.526	21606
895.648	21515
895.769	21435
895.891	21629
896.012	21675
896.134	21656
896.255	21538
896.376	21542
896.498	21656
896.619	21629
896.74	21599
896.861	21648
896.982	21869
897.103	22010
897.224	21747
897.345	21717
897.466	21682
897.587	21743
897.708	21972
897.828	21884
897.949	21724
898.07	21583
898.19	21679
898.311	21739
898.431	21728
898.552	21778
898.672	21705
898.792	21842
898.913	21732
899.033	21629
899.153	21477
899.273	21500
899.393	21526
899.513	21488
899.633	21500
899.753	21595
899.873	21420
899.993	21504
900.113	21272
900.232	21485
900.352	21348
900.472	21325
900.591	21077
900.711	21272
900.83	21230
900.95	21329
901.069	21431
901.189	21077
901.308	20944
901.427	20705
901.546	20857
901.665	20739
901.784	20887
901.904	20655
902.023	20530
902.141	20423
902.26	20282
902.379	20450
902.498	20301
902.617	20389
902.735	20286
902.854	20286
902.973	20248
903.091	20024
903.21	20100
903.328	20001
903.446	19906
903.565	19734
903.683	19715
903.801	19715
903.919	19655
904.038	19647
904.156	19495
904.274	19506
904.392	19548
904.51	19582
904.627	19575
904.745	19723
904.863	19556
904.981	19232
905.098	19213
905.216	19179
905.334	19206
905.451	19080
905.569	19217
905.686	19236
905.803	19107
905.921	18981
906.038	19084
906.155	19004
906.272	18920
906.389	18848
906.506	18646
906.623	18639
906.74	18753
906.857	18612
906.974	18551
907.091	18703
907.208	18798
907.324	18696
907.441	18555
907.557	18388
907.674	18426
907.79	18311
907.907	18410
908.023	18494
908.139	18270
908.256	18407
908.372	18243
908.488	18319
908.604	18087
908.72	18068
908.836	18095
908.952	18117
909.068	18178
909.184	18277
909.3	18087
909.415	18087
909.531	18095
909.647	17870
909.762	17817
909.878	17885
909.993	17821
910.108	17870
910.224	17722
910.339	17695
910.454	17600
910.57	17570
910.685	17524
910.8	17760
910.915	17676
911.03	17467
911.145	17486
911.259	17417
911.374	17345
911.489	17330
911.604	17181
911.718	17151
911.833	17143
911.947	17109
912.062	17079
912.176	17147
912.291	17102
912.405	17155
912.519	17307
912.633	17372
912.748	17083
912.862	17064
912.976	16896
913.09	16797
913.204	16946
913.318	16904
913.431	16987
913.545	16881
913.659	17071
913.772	16839
913.886	16752
914	16710
914.113	16755
914.226	16892
914.34	16778
914.453	16531
914.566	16824
914.68	16615
914.793	16493
914.906	16352
915.019	16268
915.132	16226
915.245	16238
915.358	16341
915.47	16299
915.583	16337
915.696	16295
915.809	16417
915.921	16398
916.034	16215
916.146	16154
916.259	16090
916.371	16291
916.483	16154
916.595	16082
916.708	16017
916.82	16131
916.932	16044
917.044	15991
917.156	16010
917.268	15831
917.38	15934
917.491	15751
917.603	15884
917.715	15911
917.826	15915
917.938	15800
918.049	15766
918.161	15797
918.272	15854
918.384	15994
918.495	15743
918.606	15660
918.717	15595
918.828	15576
918.939	15656
919.05	15435
919.161	15618
919.272	15412
919.383	15523
919.494	15576
919.604	15736
919.715	15591
919.826	15500
919.936	15523
920.047	15682
920.157	15580
920.267	15762
920.378	15580
920.488	15595
920.598	15690
920.708	15808
920.818	15663
920.928	15667
921.038	15865
921.148	15747
921.258	15492
921.368	15329
921.477	15310
921.587	15272
921.697	15119
921.806	15207
921.916	15097
922.025	14933
922.134	14914
922.244	14887
922.353	14975
922.462	14788
922.571	14720
922.68	14579
922.789	14503
922.898	14568
923.007	14442
923.116	14526
923.224	14469
923.333	14526
923.442	14282
923.55	14377
923.659	14457
923.767	14450
923.876	14313
923.984	14362
924.092	14244
924.201	14237
924.309	14225
924.417	14278
924.525	14180
924.633	14161
924.741	14842
924.849	13986
924.956	14126
925.064	13997
925.172	13875
925.279	13928
925.387	13970
925.494	13811
925.602	13997
925.709	13906
925.816	13765
925.924	13811
926.031	13932
926.138	13841
926.245	13936
926.352	13753
926.459	13738
926.566	13932
926.673	13708
926.779	13708
926.886	13571
926.993	13521
927.099	13476
927.206	13365
927.312	13373
927.419	13407
927.525	13384
927.631	13480
927.737	13285
927.843	13251
927.95	13088
928.056	13331
928.162	13232
928.267	13308
928.373	13849
928.479	13247
928.585	13133
928.69	13145
928.796	13209
928.901	13053
929.007	12882
929.112	13031
929.218	12932
929.323	12981
929.428	12852
929.533	13110
929.638	12829
929.743	12909
929.848	12924
929.953	12875
930.058	12757
930.163	12639
930.267	12662
930.372	12768
930.477	12509
930.581	12875
930.685	12612
930.79	12418
930.894	12448
930.998	12448
931.103	12578
931.207	12258
931.311	12098
931.415	11992
931.519	11756
931.623	11691
