Data from test_V78500241_1619.txt Node
Date: Fri Mar 25 15:53:00 CST 2022
User: usil
Spectrometer: V785-0024
Trigger mode: 0
Integration Time (sec): 4.000000E-1
Scans to average: 1
Nonlinearity correction enabled: false
Boxcar width: 0
Storing dark spectrum: false
XAxis mode: Wavelengths
Number of Pixels in Spectrum: 1024
>>>>>Begin Spectral Data<<<<<
801.071	28409
801.214	28272
801.356	28230
801.499	28150
801.641	27991
801.783	27903
801.926	28002
802.068	27873
802.211	27926
802.353	27709
802.496	27629
802.638	27682
802.78	27538
802.923	27511
803.065	27488
803.208	27606
803.35	27656
803.492	27759
803.635	27876
803.777	27747
803.919	27785
804.061	28207
804.204	27937
804.346	27797
804.488	27694
804.63	27945
804.773	27743
804.915	27857
805.057	28082
805.199	27922
805.341	27964
805.483	28044
805.626	28086
805.768	27972
805.91	27968
806.052	27949
806.194	27941
806.336	28226
806.478	28021
806.62	28116
806.762	28154
806.904	28318
807.046	28535
807.188	28462
807.33	28261
807.472	28535
807.614	28516
807.756	28470
807.898	28337
808.04	28280
808.182	28375
808.324	28436
808.465	28474
808.607	28489
808.749	28615
808.891	28755
809.033	28888
809.174	28801
809.316	28675
809.458	28542
809.6	28725
809.741	28763
809.883	28797
810.025	28942
810.166	28881
810.308	29010
810.45	28953
810.591	28759
810.733	28729
810.875	28744
811.016	28573
811.158	28569
811.299	28949
811.441	28839
811.582	28782
811.724	28778
811.865	28611
812.007	28725
812.148	28630
812.29	28820
812.431	28927
812.573	28946
812.714	29189
812.855	29273
812.997	29280
813.138	29509
813.279	29360
813.421	29273
813.562	29162
813.703	29052
813.845	28915
813.986	28660
814.127	28588
814.268	28409
814.41	28379
814.551	28405
814.692	28485
814.833	28333
814.974	28485
815.115	28478
815.256	28200
815.397	28196
815.539	28211
815.68	28158
815.821	28135
815.962	28158
816.103	28287
816.244	28135
816.385	27953
816.526	28032
816.666	27747
816.807	27736
816.948	27618
817.089	27808
817.23	27671
817.371	27637
817.512	27587
817.653	27682
817.793	27694
817.934	27728
818.075	27686
818.216	27789
818.356	27572
818.497	27542
818.638	27397
818.778	27534
818.919	27485
819.06	27500
819.2	27606
819.341	27667
819.481	27675
819.622	27911
819.762	28032
819.903	28002
820.043	27899
820.184	27770
820.324	27842
820.465	27785
820.605	27842
820.746	27766
820.886	27663
821.026	27720
821.167	27747
821.307	27884
821.447	27682
821.588	27755
821.728	27450
821.868	27382
822.008	27249
822.149	27306
822.289	27154
822.429	26952
822.569	26800
822.709	26872
822.849	26617
822.99	26697
823.13	26602
823.27	26727
823.41	26503
823.55	26389
823.69	26374
823.83	26571
823.97	26507
824.11	26320
824.25	26221
824.389	26362
824.529	26347
824.669	26393
824.809	26530
824.949	26473
825.089	26480
825.228	26446
825.368	26069
825.508	26142
825.648	26229
825.787	26210
825.927	26278
826.067	26138
826.206	26298
826.346	26347
826.485	26358
826.625	26202
826.765	26225
826.904	26259
827.044	25879
827.183	25986
827.323	25955
827.462	25982
827.601	25932
827.741	25890
827.88	25970
828.02	25860
828.159	25959
828.298	26062
828.437	25978
828.577	25875
828.716	25986
828.855	25719
828.994	25651
829.134	25715
829.273	25811
829.412	25624
829.551	25453
829.69	25552
829.829	25548
829.968	25613
830.107	25556
830.246	25685
830.385	25559
830.524	25396
830.663	25407
830.802	25335
830.941	25175
831.08	25194
831.219	25266
831.357	25278
831.496	25537
831.635	25297
831.774	25194
831.913	25069
832.051	25038
832.19	24909
832.329	25000
832.467	24924
832.606	24810
832.744	24817
832.883	24760
833.022	24806
833.16	24928
833.299	24867
833.437	24825
833.576	24951
833.714	24913
833.852	24962
833.991	25091
834.129	25038
834.267	24977
834.406	24920
834.544	24992
834.682	25050
834.821	24977
834.959	25080
835.097	24863
835.235	24996
835.373	24989
835.511	24962
835.65	24802
835.788	24776
835.926	24795
836.064	24620
836.202	24559
836.34	24719
836.478	24867
836.615	24825
836.753	24848
836.891	24776
837.029	24707
837.167	24669
837.305	24802
837.443	24623
837.58	24566
837.718	24563
837.856	24646
837.993	24566
838.131	24665
838.269	24380
838.406	24570
838.544	24365
838.681	24254
838.819	24315
838.956	24079
839.094	24167
839.231	24171
839.369	24251
839.506	24433
839.643	24361
839.781	24098
839.918	24003
840.055	24041
840.193	24034
840.33	23904
840.467	23927
840.604	24007
840.742	24258
840.879	23870
841.016	23863
841.153	23805
841.29	24117
841.427	23893
841.564	24045
841.701	23950
841.838	23901
841.975	23901
842.112	23851
842.249	23847
842.385	23748
842.522	23908
842.659	23828
842.796	23748
842.933	23741
843.069	23771
843.206	23615
843.343	23771
843.479	23828
843.616	23699
843.752	23551
843.889	23459
844.025	23566
844.162	23531
844.298	23547
844.435	23573
844.571	23372
844.708	23577
844.844	23619
844.98	23672
845.117	23642
845.253	23467
845.389	23318
845.525	23501
845.661	23299
845.798	23376
845.934	23311
846.07	23364
846.206	23090
846.342	23273
846.478	23162
846.614	23086
846.75	22953
846.886	22915
847.022	23044
847.158	22984
847.294	22892
847.429	23109
847.565	22858
847.701	23170
847.837	22729
847.972	22839
848.108	22866
848.244	22702
848.379	22641
848.515	22634
848.65	22523
848.786	22565
848.921	22626
849.057	22615
849.192	22725
849.328	22577
849.463	22478
849.598	22516
849.734	22428
849.869	22303
850.004	22109
850.14	22348
850.275	22386
850.41	22185
850.545	22261
850.68	22306
850.815	22462
850.95	22318
851.085	22489
851.22	22352
851.355	22284
851.49	22360
851.625	22166
851.76	22310
851.895	22246
852.03	22314
852.165	22257
852.299	22481
852.434	22402
852.569	22337
852.703	22234
852.838	22314
852.973	22523
853.107	22466
853.242	22322
853.376	22192
853.511	22078
853.645	22135
853.78	22166
853.914	22135
854.048	22029
854.183	22154
854.317	22055
854.451	22382
854.585	22169
854.72	22086
854.854	22215
854.988	22112
855.122	22128
855.256	21979
855.39	22093
855.524	22139
855.658	22173
855.792	22219
855.926	22169
856.06	22093
856.194	22124
856.327	22112
856.461	22143
856.595	22032
856.729	22086
856.862	22192
856.996	22097
857.13	22139
857.263	22242
857.397	22280
857.53	21949
857.664	22086
857.797	22177
857.931	22436
858.064	22105
858.197	22299
858.331	22021
858.464	22074
858.597	22090
858.731	22044
858.864	22124
858.997	22101
859.13	22128
859.263	22215
859.396	22185
859.529	22086
859.662	22055
859.795	22120
859.928	22139
860.061	22169
860.194	22242
860.327	22238
860.46	22162
860.592	22280
860.725	22379
860.858	22295
860.99	22211
861.123	22025
861.256	22025
861.388	22131
861.521	22759
861.653	22055
861.786	21964
861.918	21880
862.05	21991
862.183	22082
862.315	22006
862.447	22128
862.58	22021
862.712	21861
862.844	21793
862.976	21918
863.108	21983
863.24	22188
863.372	21747
863.504	21956
863.636	21857
863.768	21819
863.9	21842
864.032	21766
864.164	21857
864.296	21850
864.428	21816
864.559	21793
864.691	21941
864.823	21743
864.954	21865
865.086	21812
865.217	21728
865.349	21713
865.48	21720
865.612	21698
865.743	21888
865.875	21717
866.006	21622
866.137	21690
866.269	21709
866.4	21747
866.531	21705
866.662	21618
866.793	21618
866.924	21637
867.055	21694
867.186	21755
867.317	21656
867.448	21599
867.579	21564
867.71	21591
867.841	21629
867.972	21595
868.103	21618
868.233	21652
868.364	21610
868.495	21717
868.625	21907
868.756	21979
868.886	21705
869.017	21854
869.147	22044
869.278	21934
869.408	21972
869.539	21915
869.669	22086
869.799	22040
869.929	22109
870.06	21937
870.19	22382
870.32	22211
870.45	22253
870.58	22306
870.71	22314
870.84	22325
870.97	22246
871.1	22360
871.23	22459
871.36	22455
871.489	22550
871.619	22436
871.749	22405
871.879	22523
872.008	22618
872.138	22493
872.267	22466
872.397	22379
872.526	22287
872.656	22272
872.785	22390
872.915	22546
873.044	22706
873.173	22546
873.303	22618
873.432	22538
873.561	22592
873.69	22603
873.819	22516
873.948	22744
874.077	22466
874.206	22390
874.335	22421
874.464	22622
874.593	22744
874.722	22725
874.851	22831
874.979	22675
875.108	22702
875.237	22763
875.365	22725
875.494	22713
875.623	22748
875.751	22694
875.88	22698
876.008	22930
876.136	22850
876.265	23044
876.393	23128
876.521	23250
876.65	23178
876.778	23029
876.906	23079
877.034	23064
877.162	23052
877.29	22999
877.418	23006
877.546	23197
877.674	23079
877.802	23006
877.93	23010
878.058	23006
878.185	22976
878.313	23010
878.441	23018
878.568	22847
878.696	23037
878.824	23113
878.951	23079
879.079	23208
879.206	23307
879.333	23261
879.461	23143
879.588	23041
879.715	23208
879.842	23250
879.97	23105
880.097	22805
880.224	22858
880.351	22889
880.478	22816
880.605	22831
880.732	22866
880.859	23200
880.986	22972
881.112	22900
881.239	22683
881.366	22611
881.493	22580
881.619	22538
881.746	22607
881.872	22402
881.999	22409
882.125	22421
882.252	22447
882.378	22341
882.505	22596
882.631	22291
882.757	22158
882.883	22246
883.01	22280
883.136	22143
883.262	22029
883.388	21960
883.514	22219
883.64	22101
883.766	21964
883.892	21846
884.018	21892
884.143	21964
884.269	22219
884.395	21827
884.52	21850
884.646	21804
884.772	21713
884.897	21663
885.023	21747
885.148	21838
885.274	21911
885.399	21804
885.524	21781
885.65	21694
885.775	21797
885.9	21705
886.025	21736
886.15	21861
886.275	21667
886.4	21652
886.525	21648
886.65	21698
886.775	21804
886.9	21907
887.025	21983
887.149	21800
887.274	21549
887.399	21549
887.523	21507
887.648	21370
887.773	21538
887.897	21534
888.021	21542
888.146	21549
888.27	21637
888.395	21648
888.519	21564
888.643	21603
888.767	21587
888.891	21348
889.015	21340
889.139	21291
889.263	21272
889.387	21538
889.511	21496
889.635	21443
889.759	21351
889.883	21268
890.006	21469
890.13	21329
890.254	21245
890.377	21268
890.501	21074
890.624	20910
890.748	21116
890.871	20956
890.995	20891
891.118	20800
891.241	20914
891.364	20792
891.488	20986
891.611	20952
891.734	20864
891.857	20975
891.98	20864
892.103	20895
892.226	20845
892.349	20792
892.471	20655
892.594	20826
892.717	20800
892.839	20682
892.962	20697
893.085	20842
893.207	20781
893.33	20659
893.452	20571
893.575	20883
893.697	20773
893.819	21070
893.941	21051
894.064	20902
894.186	20655
894.308	20663
894.43	20830
894.552	20857
894.674	20792
894.796	20678
894.918	20853
895.04	20716
895.161	20883
895.283	20815
895.405	20727
895.526	20758
895.648	20716
895.769	20743
895.891	20864
896.012	20880
896.134	20849
896.255	20667
896.376	20750
896.498	20739
896.619	20777
896.74	20750
896.861	20834
896.982	21066
897.103	21176
897.224	21131
897.345	20853
897.466	20910
897.587	20861
897.708	21169
897.828	20914
897.949	20876
898.07	20705
898.19	20937
898.311	21032
898.431	21005
898.552	21036
898.672	20971
898.792	21051
898.913	21123
899.033	20792
899.153	20861
899.273	20735
899.393	20659
899.513	20743
899.633	20777
899.753	20739
899.873	20594
899.993	20815
900.113	20621
900.232	20826
900.352	20598
900.472	20659
900.591	20465
900.711	20454
900.83	20465
900.95	20621
901.069	20682
901.189	20332
901.308	20126
901.427	20012
901.546	20058
901.665	20111
901.784	20081
901.904	19955
902.023	19811
902.141	19734
902.26	19662
902.379	19620
902.498	19499
902.617	19419
902.735	19605
902.854	19472
902.973	19324
903.091	19221
903.21	19137
903.328	19297
903.446	19175
903.565	19004
903.683	19004
903.801	18852
903.919	19008
904.038	18913
904.156	18738
904.274	18894
904.392	18791
904.51	18802
904.627	18631
904.745	18901
904.863	18795
904.981	18646
905.098	18395
905.216	18467
905.334	18475
905.451	18513
905.569	18460
905.686	18502
905.803	18388
905.921	18186
906.038	18319
906.155	18232
906.272	18129
906.389	18167
906.506	17817
906.623	18072
906.74	17912
906.857	17901
906.974	17916
907.091	18038
907.208	18136
907.324	17996
907.441	17809
907.557	17703
907.674	17737
907.79	17619
907.907	17619
908.023	17642
908.139	17760
908.256	17600
908.372	17570
908.488	17482
908.604	17440
908.72	17414
908.836	17326
908.952	17353
909.068	17433
909.184	17509
909.3	17311
909.415	17501
909.531	17455
909.647	17105
909.762	17200
909.878	17094
909.993	17121
910.108	17060
910.224	17006
910.339	17090
910.454	16965
910.57	16862
910.685	16729
910.8	17052
910.915	17014
911.03	16873
911.145	16755
911.259	16683
911.374	16694
911.489	16584
911.604	16561
911.718	16318
911.833	16478
911.947	16314
912.062	16322
912.176	16432
912.291	16447
912.405	16417
912.519	16599
912.633	16542
912.748	16382
912.862	16443
912.976	16325
913.09	16116
913.204	16207
913.318	16230
913.431	16428
913.545	16261
913.659	16379
913.772	16188
913.886	15941
914	16109
914.113	15964
914.226	16158
914.34	16181
914.453	15968
914.566	15979
914.68	15869
914.793	15907
914.906	15625
915.019	15542
915.132	15500
915.245	15652
915.358	15629
915.47	15629
915.583	15572
915.696	15739
915.809	15705
915.921	15762
916.034	15553
916.146	15515
916.259	15595
916.371	15637
916.483	15557
916.595	15412
916.708	15420
916.82	15469
916.932	15416
917.044	15298
917.156	15367
917.268	15283
917.38	15302
917.491	15332
917.603	15272
917.715	15275
917.826	15291
917.938	15214
918.049	15116
918.161	15131
918.272	15336
918.384	15226
918.495	15108
918.606	15211
918.717	15039
918.828	15062
918.939	14971
919.05	15024
919.161	15013
919.272	14686
919.383	14838
919.494	15020
919.604	15207
919.715	14960
919.826	14872
919.936	14941
920.047	14941
920.157	14975
920.267	15119
920.378	14967
920.488	14906
920.598	15051
920.708	15241
920.818	15062
920.928	15032
921.038	15245
921.148	15165
921.258	14895
921.368	14838
921.477	14678
921.587	14724
921.697	14594
921.806	14689
921.916	14507
922.025	14389
922.134	14267
922.244	14309
922.353	14294
922.462	14180
922.571	14214
922.68	13989
922.789	14050
922.898	13978
923.007	13967
923.116	14031
923.224	13902
923.333	13970
923.442	13765
923.55	13738
923.659	13890
923.767	13879
923.876	13719
923.984	13780
924.092	13674
924.201	13833
924.309	13715
924.417	13670
924.525	13571
924.633	13571
924.741	14530
924.849	13369
924.956	13514
925.064	13396
925.172	13293
925.279	13343
925.387	13396
925.494	13384
925.602	13441
925.709	13392
925.816	13263
925.924	13343
926.031	13411
926.138	13308
926.245	13327
926.352	13236
926.459	13255
926.566	13384
926.673	13149
926.779	13114
926.886	13160
926.993	12924
927.099	12973
927.206	12916
927.312	12814
927.419	12943
927.525	12833
927.631	12962
927.737	12730
927.843	12749
927.95	12650
928.056	12741
928.162	12700
928.267	12802
928.373	13384
928.479	12749
928.585	12513
928.69	12623
928.796	12734
928.901	12627
929.007	12353
929.112	12589
929.218	12566
929.323	12456
929.428	12327
929.533	12635
929.638	12365
929.743	12544
929.848	12448
929.953	12395
930.058	12319
930.163	12045
930.267	12144
930.372	12254
930.477	12053
930.581	12258
930.685	12220
930.79	12026
930.894	12087
930.998	11958
931.103	12213
931.207	11737
931.311	11581
931.415	11619
931.519	11387
931.623	11356
