Data from test_V78500241_2291.txt Node
Date: Fri Mar 25 15:57:40 CST 2022
User: usil
Spectrometer: V785-0024
Trigger mode: 0
Integration Time (sec): 4.000000E-1
Scans to average: 1
Nonlinearity correction enabled: false
Boxcar width: 0
Storing dark spectrum: false
XAxis mode: Wavelengths
Number of Pixels in Spectrum: 1024
>>>>>Begin Spectral Data<<<<<
801.071	28687
801.214	28873
801.356	28615
801.499	28489
801.641	28443
801.783	28485
801.926	28447
802.068	28390
802.211	28230
802.353	28299
802.496	28280
802.638	28215
802.78	28063
802.923	28090
803.065	27983
803.208	27949
803.35	28116
803.492	28310
803.635	28360
803.777	28185
803.919	28398
804.061	28580
804.204	28382
804.346	28280
804.488	28455
804.63	28265
804.773	28401
804.915	28382
805.057	28592
805.199	28474
805.341	28565
805.483	28443
805.626	28489
805.768	28443
805.91	28736
806.052	28664
806.194	28504
806.336	28637
806.478	28497
806.62	28466
806.762	28607
806.904	28759
807.046	29090
807.188	28999
807.33	29037
807.472	29010
807.614	28991
807.756	28930
807.898	28828
808.04	28710
808.182	28820
808.324	28919
808.465	28839
808.607	28953
808.749	29151
808.891	29193
809.033	29535
809.174	29292
809.316	29197
809.458	29105
809.6	29155
809.741	29303
809.883	29368
810.025	29608
810.166	29490
810.308	29474
810.45	29452
810.591	29482
810.733	29292
810.875	29220
811.016	29143
811.158	29124
811.299	29341
811.441	29459
811.582	29395
811.724	29204
811.865	29014
812.007	29166
812.148	29239
812.29	29395
812.431	29459
812.573	29611
812.714	29649
812.855	29790
812.997	29786
813.138	30045
813.279	29882
813.421	29653
813.562	29630
813.703	29570
813.845	29467
813.986	29307
814.127	28854
814.268	29010
814.41	28972
814.551	28900
814.692	29060
814.833	28900
814.974	28759
815.115	28957
815.256	28930
815.397	28972
815.539	28782
815.68	28778
815.821	28672
815.962	28793
816.103	28801
816.244	28752
816.385	28527
816.526	28596
816.666	28295
816.807	28268
816.948	28417
817.089	28356
817.23	28379
817.371	28280
817.512	28344
817.653	28363
817.793	28074
817.934	28253
818.075	28337
818.216	28287
818.356	28090
818.497	27994
818.638	28025
818.778	27892
818.919	28040
819.06	28063
819.2	28150
819.341	28386
819.481	28341
819.622	28538
819.762	28599
819.903	28542
820.043	28630
820.184	28303
820.324	28363
820.465	28516
820.605	28497
820.746	28421
820.886	28242
821.026	28527
821.167	28348
821.307	28516
821.447	28265
821.588	28211
821.728	28215
821.868	27865
822.008	27930
822.149	27720
822.289	27743
822.429	27500
822.569	27336
822.709	27466
822.849	27180
822.99	27264
823.13	27252
823.27	27188
823.41	27074
823.55	27036
823.69	26979
823.83	27062
823.97	27055
824.11	26868
824.25	27005
824.389	26910
824.529	26921
824.669	26921
824.809	26918
824.949	27001
825.089	27089
825.228	26940
825.368	26651
825.508	26769
825.648	26864
825.787	26804
825.927	26788
826.067	26857
826.206	26735
826.346	26944
826.485	26834
826.625	26769
826.765	26857
826.904	26960
827.044	26579
827.183	26632
827.323	26564
827.462	26564
827.601	26530
827.741	26488
827.88	26583
828.02	26366
828.159	26598
828.298	26549
828.437	26495
828.577	26442
828.716	26560
828.855	26461
828.994	26339
829.134	26233
829.273	26313
829.412	26081
829.551	26126
829.69	26275
829.829	26180
829.968	26259
830.107	26259
830.246	26176
830.385	26153
830.524	26081
830.663	25966
830.802	25917
830.941	25727
831.08	25753
831.219	25944
831.357	25814
831.496	26092
831.635	25940
831.774	25677
831.913	25757
832.051	25772
832.19	25586
832.329	25586
832.467	25400
832.606	25449
832.744	25335
832.883	25537
833.022	25468
833.16	25548
833.299	25415
833.437	25358
833.576	25586
833.714	25521
833.852	25578
833.991	25533
834.129	25548
834.267	25529
834.406	25624
834.544	25544
834.682	25609
834.821	25460
834.959	25704
835.097	25502
835.235	25620
835.373	25590
835.511	25533
835.65	25479
835.788	25293
835.926	25206
836.064	25129
836.202	25129
836.34	25304
836.478	25377
836.615	25426
836.753	25346
836.891	25350
837.029	25392
837.167	25202
837.305	25141
837.443	25232
837.58	25213
837.718	25141
837.856	25236
837.993	25148
838.131	25190
838.269	25148
838.406	25152
838.544	24970
838.681	24943
838.819	24817
838.956	24635
839.094	24612
839.231	24760
839.369	24825
839.506	24939
839.643	24871
839.781	24730
839.918	24521
840.055	24730
840.193	24684
840.33	24612
840.467	24681
840.604	24661
840.742	24802
840.879	24429
841.016	24593
841.153	24422
841.29	24696
841.427	24525
841.564	24513
841.701	24540
841.838	24502
841.975	24353
842.112	24388
842.249	24376
842.385	24266
842.522	24540
842.659	24353
842.796	24323
842.933	24273
843.069	24213
843.206	24262
843.343	24258
843.479	24285
843.616	24342
843.752	24182
843.889	24155
844.025	24216
844.162	23999
844.298	24228
844.435	24003
844.571	24125
844.708	24114
844.844	24228
844.98	24171
845.117	24171
845.253	24007
845.389	23920
845.525	23969
845.661	23904
845.798	23821
845.934	23714
846.07	23935
846.206	23779
846.342	23847
846.478	23710
846.614	23577
846.75	23463
846.886	23581
847.022	23642
847.158	23493
847.294	23516
847.429	23668
847.565	23562
847.701	23779
847.837	23280
847.972	23147
848.108	23406
848.244	23254
848.379	23193
848.515	23140
848.65	23109
848.786	23048
848.921	23094
849.057	23299
849.192	23258
849.328	23258
849.463	23128
849.598	23025
849.734	22991
849.869	23033
850.004	22896
850.14	22866
850.275	22839
850.41	22828
850.545	22790
850.68	22744
850.815	23037
850.95	22911
851.085	23079
851.22	23193
851.355	22828
851.49	22896
851.625	22957
851.76	22752
851.895	22702
852.03	22748
852.165	22999
852.299	22816
852.434	22839
852.569	22923
852.703	22839
852.838	22980
852.973	23006
853.107	22923
853.242	22774
853.376	22713
853.511	22637
853.645	22687
853.78	22820
853.914	22603
854.048	22736
854.183	22694
854.317	22744
854.451	22873
854.585	22679
854.72	22675
854.854	22725
854.988	22653
855.122	22748
855.256	22675
855.39	22664
855.524	22850
855.658	22790
855.792	22702
855.926	22801
856.06	22763
856.194	22744
856.327	22653
856.461	22584
856.595	22538
856.729	22748
856.862	22721
856.996	22672
857.13	22850
857.263	22847
857.397	22679
857.53	22596
857.664	22725
857.797	22733
857.931	22759
858.064	22736
858.197	22877
858.331	22630
858.464	22607
858.597	22561
858.731	22774
858.864	22694
858.997	22561
859.13	22759
859.263	22561
859.396	22687
859.529	22683
859.662	22656
859.795	22596
859.928	22630
860.061	22843
860.194	22885
860.327	22717
860.46	22656
860.592	22877
860.725	22664
860.858	22904
860.99	22611
861.123	22527
861.256	22786
861.388	22668
861.521	23414
861.653	22561
861.786	22459
861.918	22504
862.05	22508
862.183	22577
862.315	22618
862.447	22645
862.58	22649
862.712	22417
862.844	22417
862.976	22421
863.108	22455
863.24	22862
863.372	22348
863.504	22405
863.636	22447
863.768	22489
863.9	22478
864.032	22223
864.164	22276
864.296	22447
864.428	22424
864.559	22348
864.691	22394
864.823	22379
864.954	22402
865.086	22386
865.217	22261
865.349	22192
865.48	22139
865.612	22257
865.743	22356
865.875	22333
866.006	22284
866.137	22356
866.269	22177
866.4	22215
866.531	22147
866.662	22215
866.793	22207
866.924	22253
867.055	22124
867.186	22242
867.317	22147
867.448	22135
867.579	22139
867.71	22112
867.841	22044
867.972	22162
868.103	22120
868.233	22204
868.364	22234
868.495	22379
868.625	22459
868.756	22474
868.886	22398
869.017	22363
869.147	22466
869.278	22527
869.408	22421
869.539	22363
869.669	22455
869.799	22557
869.929	22565
870.06	22462
870.19	22717
870.32	22812
870.45	22755
870.58	22839
870.71	22965
870.84	22908
870.97	22938
871.1	22812
871.23	22980
871.36	22984
871.489	22991
871.619	22995
871.749	23064
871.879	23113
872.008	23117
872.138	23056
872.267	23018
872.397	22987
872.526	22934
872.656	22896
872.785	22896
872.915	23086
873.044	23151
873.173	23003
873.303	23140
873.432	23094
873.561	23121
873.69	23060
873.819	23037
873.948	23185
874.077	23060
874.206	23056
874.335	23025
874.464	23136
874.593	23239
874.722	23242
874.851	23261
874.979	23208
875.108	23315
875.237	23216
875.365	23060
875.494	23269
875.623	23429
875.751	23193
875.88	23273
876.008	23296
876.136	23436
876.265	23611
876.393	23851
876.521	23684
876.65	23779
876.778	23668
876.906	23547
877.034	23516
877.162	23646
877.29	23615
877.418	23760
877.546	23684
877.674	23524
877.802	23615
877.93	23528
878.058	23551
878.185	23562
878.313	23585
878.441	23520
878.568	23429
878.696	23440
878.824	23573
878.951	23653
879.079	23745
879.206	23775
879.333	23767
879.461	23600
879.588	23665
879.715	23668
879.842	23893
879.97	23680
880.097	23410
880.224	23505
880.351	23531
880.478	23444
880.605	23337
880.732	23497
880.859	23619
880.986	23467
881.112	23528
881.239	23311
881.366	23098
881.493	23102
881.619	23018
881.746	23003
881.872	22896
881.999	22850
882.125	22828
882.252	23147
882.378	22923
882.505	23022
882.631	22881
882.757	22717
882.883	22797
883.01	22736
883.136	22557
883.262	22569
883.388	22603
883.514	22626
883.64	22710
883.766	22459
883.892	22379
884.018	22500
884.143	22569
884.269	22542
884.395	22466
884.52	22291
884.646	22318
884.772	22219
884.897	22188
885.023	22333
885.148	22375
885.274	22497
885.399	22367
885.524	22303
885.65	22348
885.775	22360
885.9	22310
886.025	22246
886.15	22238
886.275	22158
886.4	22173
886.525	22379
886.65	22276
886.775	22086
886.9	22390
887.025	22455
887.149	22215
887.274	21998
887.399	21975
887.523	21979
887.648	21895
887.773	21838
887.897	22006
888.021	22090
888.146	21979
888.27	22067
888.395	22067
888.519	22040
888.643	22029
888.767	21983
888.891	21842
889.015	21816
889.139	21819
889.263	21755
889.387	21945
889.511	22002
889.635	21838
889.759	21854
889.883	21831
890.006	21827
890.13	21850
890.254	21701
890.377	21766
890.501	21572
890.624	21587
890.748	21629
890.871	21454
890.995	21367
891.118	21283
891.241	21241
891.364	21389
891.488	21473
891.611	21408
891.734	21397
891.857	21386
891.98	21329
892.103	21416
892.226	21393
892.349	21222
892.471	21180
892.594	21203
892.717	21154
892.839	21203
892.962	21252
893.085	21321
893.207	21260
893.33	21214
893.452	21146
893.575	21264
893.697	21180
893.819	21374
893.941	21386
894.064	21283
894.186	21241
894.308	21161
894.43	21302
894.552	21473
894.674	21348
894.796	21085
894.918	21306
895.04	21237
895.161	21264
895.283	21313
895.405	21142
895.526	21237
895.648	21085
895.769	21245
895.891	21264
896.012	21317
896.134	21287
896.255	21256
896.376	21131
896.498	21211
896.619	21321
896.74	21169
896.861	21279
896.982	21466
897.103	21648
897.224	21443
897.345	21302
897.466	21340
897.587	21382
897.708	21614
897.828	21447
897.949	21428
898.07	21329
898.19	21469
898.311	21485
898.431	21428
898.552	21412
898.672	21412
898.792	21496
898.913	21344
899.033	21336
899.153	21214
899.273	21089
899.393	21203
899.513	21199
899.633	21077
899.753	21214
899.873	21157
899.993	21203
900.113	21096
900.232	21176
900.352	21112
900.472	21017
900.591	20910
900.711	20861
900.83	20891
900.95	21017
901.069	21074
901.189	20754
901.308	20613
901.427	20541
901.546	20438
901.665	20556
901.784	20469
901.904	20256
902.023	20332
902.141	20027
902.26	20020
902.379	20016
902.498	19913
902.617	19940
902.735	20069
902.854	19875
902.973	19887
903.091	19658
903.21	19578
903.328	19556
903.446	19472
903.565	19506
903.683	19518
903.801	19335
903.919	19400
904.038	19335
904.156	19183
904.274	19217
904.392	19209
904.51	19206
904.627	19278
904.745	19202
904.863	19251
904.981	18973
905.098	18897
905.216	18810
905.334	18962
905.451	18905
905.569	18757
905.686	18901
905.803	18783
905.921	18772
906.038	18852
906.155	18681
906.272	18555
906.389	18521
906.506	18506
906.623	18361
906.74	18369
906.857	18251
906.974	18247
907.091	18418
907.208	18372
907.324	18323
907.441	18281
907.557	18091
907.674	18194
907.79	18049
907.907	18133
908.023	18133
908.139	18174
908.256	18041
908.372	17992
908.488	17969
908.604	17824
908.72	17817
908.836	17805
908.952	17771
909.068	17817
909.184	17916
909.3	17863
909.415	17828
909.531	17832
909.647	17596
909.762	17623
909.878	17455
909.993	17524
910.108	17478
910.224	17471
910.339	17356
910.454	17277
910.57	17280
910.685	17189
910.8	17406
910.915	17467
911.03	17189
911.145	17090
911.259	17105
911.374	17033
911.489	16946
911.604	16908
911.718	16809
911.833	16839
911.947	16752
912.062	16660
912.176	16858
912.291	16881
912.405	16759
912.519	17083
912.633	16957
912.748	16824
912.862	16824
912.976	16691
913.09	16584
913.204	16554
913.318	16634
913.431	16809
913.545	16630
913.659	16660
913.772	16542
913.886	16325
914	16394
914.113	16386
914.226	16523
914.34	16561
914.453	16322
914.566	16390
914.68	16344
914.793	16154
914.906	15987
915.019	15956
915.132	15956
915.245	15979
915.358	15934
915.47	15960
915.583	16029
915.696	16013
915.809	16010
915.921	16105
916.034	16029
916.146	15865
916.259	15850
916.371	15953
916.483	15903
916.595	15743
916.708	15736
916.82	15762
916.932	15633
917.044	15797
917.156	15728
917.268	15549
917.38	15595
917.491	15542
917.603	15603
917.715	15732
917.826	15766
917.938	15557
918.049	15443
918.161	15564
918.272	15709
918.384	15633
918.495	15587
918.606	15431
918.717	15310
918.828	15401
918.939	15367
919.05	15279
919.161	15325
919.272	15055
919.383	15146
919.494	15393
919.604	15580
919.715	15287
919.826	15169
919.936	15268
920.047	15424
920.157	15340
920.267	15557
920.378	15435
920.488	15260
920.598	15443
920.708	15568
920.818	15443
920.928	15374
921.038	15576
921.148	15610
921.258	15272
921.368	15207
921.477	14990
921.587	14971
921.697	14880
921.806	15009
921.916	14861
922.025	14739
922.134	14583
922.244	14556
922.353	14739
922.462	14602
922.571	14408
922.68	14305
922.789	14298
922.898	14305
923.007	14256
923.116	14225
923.224	14199
923.333	14199
923.442	14126
923.55	14084
923.659	14172
923.767	14107
923.876	14081
923.984	14168
924.092	14069
924.201	14062
924.309	14050
924.417	13959
924.525	13970
924.633	13997
924.741	14838
924.849	13681
924.956	13890
925.064	13712
925.172	13590
925.279	13734
925.387	13715
925.494	13601
925.602	13715
925.709	13708
925.816	13464
925.924	13651
926.031	13708
926.138	13643
926.245	13620
926.352	13578
926.459	13609
926.566	13552
926.673	13548
926.779	13377
926.886	13365
926.993	13263
927.099	13247
927.206	13110
927.312	13206
927.419	13225
927.525	13175
927.631	13141
927.737	13107
927.843	13099
927.95	12993
928.056	13008
928.162	12935
928.267	13031
928.373	13636
928.479	13149
928.585	12878
928.69	12890
928.796	12993
928.901	12802
929.007	12741
929.112	12947
929.218	12776
929.323	12795
929.428	12688
929.533	12821
929.638	12578
929.743	12662
929.848	12677
929.953	12646
930.058	12475
930.163	12414
930.267	12422
930.372	12502
930.477	12281
930.581	12521
930.685	12376
930.79	12308
930.894	12277
930.998	12254
931.103	12365
931.207	12045
931.311	11847
931.415	11733
931.519	11665
931.623	11573
