Data from test_V78500241_2424.txt Node
Date: Fri Mar 25 15:58:35 CST 2022
User: usil
Spectrometer: V785-0024
Trigger mode: 0
Integration Time (sec): 4.000000E-1
Scans to average: 1
Nonlinearity correction enabled: false
Boxcar width: 0
Storing dark spectrum: false
XAxis mode: Wavelengths
Number of Pixels in Spectrum: 1024
>>>>>Begin Spectral Data<<<<<
801.071	28782
801.214	28759
801.356	28531
801.499	28257
801.641	28436
801.783	28207
801.926	28405
802.068	28284
802.211	28215
802.353	28162
802.496	28067
802.638	28074
802.78	28006
802.923	28010
803.065	27812
803.208	28017
803.35	28181
803.492	28059
803.635	28105
803.777	28036
803.919	28188
804.061	28554
804.204	28329
804.346	28082
804.488	28067
804.63	28158
804.773	28253
804.915	28314
805.057	28455
805.199	28299
805.341	28348
805.483	28401
805.626	28371
805.768	28291
805.91	28428
806.052	28299
806.194	28261
806.336	28656
806.478	28401
806.62	28401
806.762	28622
806.904	28607
807.046	28797
807.188	28786
807.33	28839
807.472	29025
807.614	28877
807.756	28892
807.898	28660
808.04	28580
808.182	28637
808.324	28710
808.465	28752
808.607	28881
808.749	29029
808.891	29185
809.033	29269
809.174	29124
809.316	29071
809.458	29170
809.6	28984
809.741	29265
809.883	29277
810.025	29387
810.166	29410
810.308	29398
810.45	29410
810.591	29307
810.733	29162
810.875	28980
811.016	29083
811.158	28919
811.299	29162
811.441	29265
811.582	29261
811.724	29109
811.865	29151
812.007	29239
812.148	29048
812.29	29086
812.431	29231
812.573	29444
812.714	29604
812.855	29623
812.997	29756
813.138	29866
813.279	29798
813.421	29581
813.562	29623
813.703	29497
813.845	29318
813.986	29090
814.127	28942
814.268	28858
814.41	28805
814.551	28854
814.692	28968
814.833	28740
814.974	28923
815.115	28869
815.256	28672
815.397	28729
815.539	28694
815.68	28584
815.821	28668
815.962	28641
816.103	28592
816.244	28516
816.385	28550
816.526	28348
816.666	28204
816.807	28101
816.948	28325
817.089	28341
817.23	28131
817.371	28036
817.512	28032
817.653	28181
817.793	28188
817.934	28166
818.075	28192
818.216	28139
818.356	28101
818.497	28074
818.638	27705
818.778	27880
818.919	27911
819.06	27937
819.2	27991
819.341	28112
819.481	28013
819.622	28219
819.762	28443
819.903	28276
820.043	28261
820.184	28253
820.324	28223
820.465	28284
820.605	28238
820.746	28200
820.886	27930
821.026	28219
821.167	28150
821.307	28226
821.447	28219
821.588	28150
821.728	27819
821.868	27778
822.008	27618
822.149	27599
822.289	27705
822.429	27412
822.569	27313
822.709	27367
822.849	27165
822.99	27093
823.13	27131
823.27	27176
823.41	26895
823.55	26815
823.69	27058
823.83	26975
823.97	26937
824.11	26735
824.25	26655
824.389	26712
824.529	26864
824.669	26838
824.809	26895
824.949	26842
825.089	26838
825.228	26868
825.368	26716
825.508	26545
825.648	26686
825.787	26644
825.927	26796
826.067	26663
826.206	26552
826.346	26613
826.485	26769
826.625	26533
826.765	26758
826.904	26929
827.044	26530
827.183	26385
827.323	26358
827.462	26457
827.601	26587
827.741	26244
827.88	26324
828.02	26225
828.159	26355
828.298	26476
828.437	26377
828.577	26434
828.716	26518
828.855	26233
828.994	26084
829.134	25982
829.273	26043
829.412	26054
829.551	26027
829.69	26024
829.829	26005
829.968	26065
830.107	26024
830.246	25993
830.385	26039
830.524	25944
830.663	25875
830.802	25780
830.941	25639
831.08	25689
831.219	25681
831.357	25590
831.496	25898
831.635	25693
831.774	25571
831.913	25518
832.051	25422
832.19	25422
832.329	25415
832.467	25324
832.606	25244
832.744	25244
832.883	25400
833.022	25289
833.16	25266
833.299	25183
833.437	25316
833.576	25373
833.714	25365
833.852	25343
833.991	25400
834.129	25422
834.267	25514
834.406	25476
834.544	25518
834.682	25365
834.821	25354
834.959	25499
835.097	25430
835.235	25335
835.373	25362
835.511	25365
835.65	25297
835.788	25278
835.926	25160
836.064	25027
836.202	25080
836.34	25190
836.478	25339
836.615	25282
836.753	25156
836.891	25179
837.029	25171
837.167	25091
837.305	25171
837.443	25015
837.58	25023
837.718	24989
837.856	25095
837.993	25050
838.131	24951
838.269	25015
838.406	24962
838.544	24882
838.681	24821
838.819	24738
838.956	24460
839.094	24551
839.231	24669
839.369	24642
839.506	24787
839.643	24783
839.781	24502
839.918	24540
840.055	24578
840.193	24346
840.33	24350
840.467	24448
840.604	24502
840.742	24700
840.879	24311
841.016	24258
841.153	24247
841.29	24517
841.427	24445
841.564	24498
841.701	24338
841.838	24410
841.975	24281
842.112	24152
842.249	24346
842.385	24152
842.522	24376
842.659	24262
842.796	24136
842.933	24182
843.069	24049
843.206	24095
843.343	24228
843.479	24076
843.616	24152
843.752	23840
843.889	23984
844.025	24007
844.162	23912
844.298	24068
844.435	23832
844.571	23973
844.708	23889
844.844	24095
844.98	24041
845.117	24068
845.253	23836
845.389	23828
845.525	23817
845.661	23729
845.798	23687
845.934	23684
846.07	23638
846.206	23752
846.342	23748
846.478	23611
846.614	23501
846.75	23353
846.886	23417
847.022	23474
847.158	23356
847.294	23364
847.429	23398
847.565	23425
847.701	23634
847.837	23136
847.972	23052
848.108	23193
848.244	23121
848.379	23044
848.515	22976
848.65	22892
848.786	22961
848.921	23010
849.057	23090
849.192	23140
849.328	23014
849.463	23083
849.598	23003
849.734	22782
849.869	22824
850.004	22862
850.14	22809
850.275	22736
850.41	22546
850.545	22812
850.68	22710
850.815	22672
850.95	22759
851.085	22946
851.22	22771
851.355	22637
851.49	22675
851.625	22630
851.76	22713
851.895	22656
852.03	22626
852.165	22790
852.299	22698
852.434	22843
852.569	22828
852.703	22847
852.838	22778
852.973	22934
853.107	22858
853.242	22706
853.376	22573
853.511	22500
853.645	22531
853.78	22713
853.914	22653
854.048	22569
854.183	22489
854.317	22554
854.451	22790
854.585	22546
854.72	22455
854.854	22664
854.988	22535
855.122	22588
855.256	22428
855.39	22504
855.524	22550
855.658	22519
855.792	22535
855.926	22656
856.06	22637
856.194	22592
856.327	22592
856.461	22538
856.595	22531
856.729	22516
856.862	22706
856.996	22713
857.13	22546
857.263	22622
857.397	22618
857.53	22569
857.664	22573
857.797	22596
857.931	22626
858.064	22710
858.197	22698
858.331	22508
858.464	22516
858.597	22432
858.731	22443
858.864	22512
858.997	22538
859.13	22660
859.263	22508
859.396	22733
859.529	22527
859.662	22550
859.795	22577
859.928	22512
860.061	22713
860.194	22660
860.327	22508
860.46	22573
860.592	22592
860.725	22702
860.858	22672
860.99	22588
861.123	22489
861.256	22493
861.388	22462
861.521	23254
861.653	22291
861.786	22322
861.918	22413
862.05	22417
862.183	22557
862.315	22428
862.447	22577
862.58	22474
862.712	22257
862.844	22265
862.976	22421
863.108	22291
863.24	22717
863.372	22219
863.504	22306
863.636	22310
863.768	22272
863.9	22344
864.032	22287
864.164	22272
864.296	22272
864.428	22363
864.559	22363
864.691	22185
864.823	22341
864.954	22230
865.086	22131
865.217	22101
865.349	22029
865.48	22086
865.612	22150
865.743	22291
865.875	22219
866.006	22200
866.137	22074
866.269	22109
866.4	22055
866.531	22074
866.662	22048
866.793	21975
866.924	22013
867.055	21994
867.186	22147
867.317	22074
867.448	21918
867.579	21926
867.71	21994
867.841	21934
867.972	22010
868.103	21998
868.233	22162
868.364	22086
868.495	22154
868.625	22314
868.756	22348
868.886	22238
869.017	22314
869.147	22363
869.278	22413
869.408	22375
869.539	22291
869.669	22367
869.799	22249
869.929	22398
870.06	22413
870.19	22592
870.32	22634
870.45	22588
870.58	22736
870.71	22786
870.84	22790
870.97	22812
871.1	22649
871.23	22774
871.36	22831
871.489	22828
871.619	22866
871.749	22961
871.879	23003
872.008	23018
872.138	22866
872.267	22854
872.397	22820
872.526	22675
872.656	22660
872.785	22702
872.915	23006
873.044	23064
873.173	22938
873.303	22984
873.432	23090
873.561	22896
873.69	22987
873.819	22900
873.948	22862
874.077	23048
874.206	22877
874.335	22946
874.464	23006
874.593	23124
874.722	23071
874.851	23231
874.979	23033
875.108	23204
875.237	23025
875.365	22946
875.494	22980
875.623	23143
875.751	23128
875.88	23140
876.008	23189
876.136	23349
876.265	23433
876.393	23524
876.521	23638
876.65	23573
876.778	23608
876.906	23360
877.034	23509
877.162	23493
877.29	23421
877.418	23433
877.546	23463
877.674	23353
877.802	23398
877.93	23414
878.058	23440
878.185	23402
878.313	23360
878.441	23501
878.568	23269
878.696	23452
878.824	23406
878.951	23589
879.079	23649
879.206	23817
879.333	23558
879.461	23543
879.588	23600
879.715	23684
879.842	23783
879.97	23634
880.097	23326
880.224	23326
880.351	23349
880.478	23318
880.605	23178
880.732	23341
880.859	23665
880.986	23185
881.112	23296
881.239	23075
881.366	23067
881.493	22927
881.619	22782
881.746	22987
881.872	22915
881.999	22744
882.125	22850
882.252	22809
882.378	22793
882.505	22831
882.631	22717
882.757	22542
882.883	22577
883.01	22470
883.136	22421
883.262	22470
883.388	22459
883.514	22474
883.64	22489
883.766	22447
883.892	22341
884.018	22382
884.143	22462
884.269	22493
884.395	22322
884.52	22120
884.646	22211
884.772	22116
884.897	22154
885.023	22177
885.148	22291
885.274	22375
885.399	22436
885.524	22112
885.65	22055
885.775	22158
885.9	22040
886.025	22234
886.15	22276
886.275	22109
886.4	22055
886.525	22185
886.65	22131
886.775	22059
886.9	22230
887.025	22363
887.149	22139
887.274	21968
887.399	21880
887.523	21949
887.648	21903
887.773	21827
887.897	21953
888.021	21846
888.146	21895
888.27	22025
888.395	22067
888.519	21918
888.643	21915
888.767	21975
888.891	21736
889.015	21751
889.139	21759
889.263	21686
889.387	21679
889.511	21941
889.635	21876
889.759	21625
889.883	21633
890.006	21762
890.13	21728
890.254	21583
890.377	21587
890.501	21477
890.624	21561
890.748	21450
890.871	21310
890.995	21260
891.118	21093
891.241	21405
891.364	21279
891.488	21351
891.611	21237
891.734	21233
891.857	21313
891.98	21264
892.103	21359
892.226	21264
892.349	21279
892.471	21066
892.594	21039
892.717	21192
892.839	21123
892.962	21165
893.085	21272
893.207	21123
893.33	21218
893.452	21093
893.575	21138
893.697	21142
893.819	21275
893.941	21340
894.064	21207
894.186	21093
894.308	21017
894.43	21169
894.552	21203
894.674	21211
894.796	21100
894.918	21039
895.04	21154
895.161	21211
895.283	21154
895.405	21032
895.526	21096
895.648	21058
895.769	21150
895.891	21085
896.012	21317
896.134	21135
896.255	21119
896.376	21093
896.498	21028
896.619	21169
896.74	21131
896.861	21150
896.982	21473
897.103	21538
897.224	21302
897.345	21241
897.466	21256
897.587	21462
897.708	21450
897.828	21420
897.949	21313
898.07	21165
898.19	21313
898.311	21454
898.431	21230
898.552	21348
898.672	21408
898.792	21283
898.913	21230
899.033	21275
899.153	21108
899.273	21062
899.393	21032
899.513	21077
899.633	21096
899.753	21017
899.873	21039
899.993	21173
900.113	21005
900.232	21013
900.352	20921
900.472	20811
900.591	20857
900.711	20807
900.83	20746
900.95	20925
901.069	20967
901.189	20693
901.308	20507
901.427	20320
901.546	20385
901.665	20309
901.784	20385
901.904	20267
902.023	20084
902.141	19932
902.26	19955
902.379	20005
902.498	19940
902.617	19852
902.735	19906
902.854	19784
902.973	19784
903.091	19502
903.21	19540
903.328	19449
903.446	19460
903.565	19441
903.683	19434
903.801	19282
903.919	19358
904.038	19251
904.156	19129
904.274	19164
904.392	19015
904.51	19012
904.627	19031
904.745	19091
904.863	19072
904.981	18954
905.098	18795
905.216	18829
905.334	18795
905.451	18760
905.569	18829
905.686	18745
905.803	18814
905.921	18623
906.038	18650
906.155	18589
906.272	18410
906.389	18433
906.506	18418
906.623	18277
906.74	18342
906.857	18216
906.974	18171
907.091	18327
907.208	18483
907.324	18228
907.441	18209
907.557	17954
907.674	18030
907.79	17965
907.907	18045
908.023	18072
908.139	17969
908.256	17904
908.372	17882
908.488	17836
908.604	17714
908.72	17722
908.836	17695
908.952	17634
909.068	17737
909.184	17847
909.3	17703
909.415	17745
909.531	17726
909.647	17528
909.762	17406
909.878	17360
909.993	17436
910.108	17364
910.224	17353
910.339	17326
910.454	17239
910.57	17212
910.685	17155
910.8	17383
910.915	17334
911.03	17189
911.145	16984
911.259	16991
911.374	17033
911.489	16938
911.604	16930
911.718	16721
911.833	16778
911.947	16660
912.062	16554
912.176	16721
912.291	16683
912.405	16805
912.519	16831
912.633	16793
912.748	16767
912.862	16580
912.976	16550
913.09	16424
913.204	16417
913.318	16527
913.431	16626
913.545	16607
913.659	16611
913.772	16371
913.886	16314
914	16322
914.113	16402
914.226	16432
914.34	16303
914.453	16188
914.566	16398
914.68	16196
914.793	16131
914.906	16013
915.019	15835
915.132	15983
915.245	15812
915.358	15831
915.47	15835
915.583	15899
915.696	15956
915.809	15968
915.921	15937
916.034	15804
916.146	15797
916.259	15755
916.371	15892
916.483	15739
916.595	15717
916.708	15728
916.82	15766
916.932	15675
917.044	15656
917.156	15629
917.268	15633
917.38	15572
917.491	15526
917.603	15564
917.715	15618
917.826	15625
917.938	15439
918.049	15256
918.161	15428
918.272	15519
918.384	15576
918.495	15428
918.606	15374
918.717	15291
918.828	15348
918.939	15287
919.05	15233
919.161	15351
919.272	15062
919.383	15123
919.494	15367
919.604	15397
919.715	15233
919.826	15100
919.936	15203
920.047	15313
920.157	15199
920.267	15466
920.378	15157
920.488	15142
920.598	15306
920.708	15561
920.818	15378
920.928	15351
921.038	15500
921.148	15393
921.258	15252
921.368	15009
921.477	14807
921.587	14891
921.697	14868
921.806	14899
921.916	14750
922.025	14667
922.134	14575
922.244	14606
922.353	14594
922.462	14442
922.571	14431
922.68	14317
922.789	14259
922.898	14183
923.007	14145
923.116	14187
923.224	14187
923.333	14168
923.442	14134
923.55	14058
923.659	14092
923.767	14142
923.876	14046
923.984	14024
924.092	13936
924.201	13955
924.309	13921
924.417	14031
924.525	13940
924.633	13852
924.741	14632
924.849	13666
924.956	13799
925.064	13647
925.172	13548
925.279	13537
925.387	13586
925.494	13677
925.602	13677
925.709	13586
925.816	13502
925.924	13559
926.031	13590
926.138	13483
926.245	13548
926.352	13434
926.459	13487
926.566	13510
926.673	13464
926.779	13278
926.886	13362
926.993	13110
927.099	13156
927.206	13088
927.312	13034
927.419	13190
927.525	13012
927.631	13126
927.737	13027
927.843	12913
927.95	12840
928.056	12913
928.162	12977
928.267	12996
928.373	13658
928.479	12924
928.585	12745
928.69	12878
928.796	12856
928.901	12745
929.007	12684
929.112	12734
929.218	12726
929.323	12745
929.428	12612
929.533	12768
929.638	12658
929.743	12566
929.848	12589
929.953	12616
930.058	12456
930.163	12273
930.267	12327
930.372	12452
930.477	12254
930.581	12559
930.685	12296
930.79	12251
930.894	12304
930.998	12129
931.103	12201
931.207	11969
931.311	11874
931.415	11764
931.519	11592
931.623	11512
