Data from test_V78500241_565.txt Node
Date: Fri Mar 25 15:45:42 CST 2022
User: usil
Spectrometer: V785-0024
Trigger mode: 0
Integration Time (sec): 4.000000E-1
Scans to average: 1
Nonlinearity correction enabled: false
Boxcar width: 0
Storing dark spectrum: false
XAxis mode: Wavelengths
Number of Pixels in Spectrum: 1024
>>>>>Begin Spectral Data<<<<<
801.071	27142
801.214	27070
801.356	26967
801.499	26861
801.641	26674
801.783	26587
801.926	26792
802.068	26640
802.211	26602
802.353	26575
802.496	26347
802.638	26248
802.78	26362
802.923	26161
803.065	26199
803.208	26396
803.35	26347
803.492	26457
803.635	26377
803.777	26389
803.919	26389
804.061	26720
804.204	26457
804.346	26351
804.488	26278
804.63	26377
804.773	26195
804.915	26492
805.057	26514
805.199	26484
805.341	26522
805.483	26587
805.626	26537
805.768	26530
805.91	26598
806.052	26511
806.194	26412
806.336	26750
806.478	26765
806.62	26545
806.762	26693
806.904	26712
807.046	27036
807.188	27017
807.33	26960
807.472	27043
807.614	26883
807.756	27043
807.898	26853
808.04	26777
808.182	26750
808.324	26830
808.465	26826
808.607	26986
808.749	27195
808.891	27268
809.033	27351
809.174	27363
809.316	27291
809.458	27169
809.6	27230
809.741	27408
809.883	27283
810.025	27504
810.166	27443
810.308	27431
810.45	27382
810.591	27340
810.733	27249
810.875	27066
811.016	27024
811.158	27074
811.299	27367
811.441	27268
811.582	27218
811.724	27252
811.865	27093
812.007	27047
812.148	27218
812.29	27135
812.431	27214
812.573	27553
812.714	27633
812.855	27644
812.997	27797
813.138	27800
813.279	27778
813.421	27694
813.562	27568
813.703	27447
813.845	27374
813.986	27070
814.127	26979
814.268	26796
814.41	26819
814.551	26845
814.692	26883
814.833	26625
814.974	26720
815.115	26800
815.256	26678
815.397	26750
815.539	26693
815.68	26670
815.821	26583
815.962	26667
816.103	26526
816.244	26526
816.385	26412
816.526	26522
816.666	26256
816.807	26027
816.948	26111
817.089	26122
817.23	26130
817.371	26240
817.512	26107
817.653	26031
817.793	26031
817.934	26084
818.075	26069
818.216	26084
818.356	25951
818.497	25982
818.638	25841
818.778	25826
818.919	25807
819.06	25818
819.2	25879
819.341	25932
819.481	26050
819.622	26187
819.762	26396
819.903	26355
820.043	26237
820.184	26252
820.324	26191
820.465	26282
820.605	26092
820.746	26183
820.886	25970
821.026	26001
821.167	26084
821.307	26271
821.447	26084
821.588	25963
821.728	25845
821.868	25814
822.008	25590
822.149	25502
822.289	25479
822.429	25282
822.569	25316
822.709	25190
822.849	25141
822.99	25019
823.13	25012
823.27	24859
823.41	24829
823.55	24703
823.69	24871
823.83	24825
823.97	24795
824.11	24650
824.25	24612
824.389	24722
824.529	24688
824.669	24639
824.809	24806
824.949	24833
825.089	24692
825.228	24707
825.368	24517
825.508	24601
825.648	24498
825.787	24505
825.927	24616
826.067	24540
826.206	24551
826.346	24509
826.485	24483
826.625	24361
826.765	24623
826.904	24544
827.044	24391
827.183	24338
827.323	24205
827.462	24209
827.601	24369
827.741	24228
827.88	24376
828.02	24018
828.159	24213
828.298	24273
828.437	24388
828.577	24117
828.716	24213
828.855	24087
828.994	24022
829.134	24026
829.273	24015
829.412	23847
829.551	23923
829.69	23866
829.829	24034
829.968	23984
830.107	23927
830.246	23973
830.385	23798
830.524	23874
830.663	23657
830.802	23691
830.941	23501
831.08	23433
831.219	23604
831.357	23611
831.496	23798
831.635	23482
831.774	23528
831.913	23383
832.051	23273
832.19	23303
832.329	23387
832.467	23242
832.606	23166
832.744	23128
832.883	23140
833.022	23204
833.16	23174
833.299	23284
833.437	23334
833.576	23143
833.714	23239
833.852	23277
833.991	23383
834.129	23288
834.267	23265
834.406	23197
834.544	23185
834.682	23372
834.821	23223
834.959	23368
835.097	23185
835.235	23376
835.373	23277
835.511	23208
835.65	23102
835.788	23086
835.926	23048
836.064	22877
836.202	23037
836.34	23056
836.478	23269
836.615	23113
836.753	23170
836.891	23227
837.029	23075
837.167	23098
837.305	22965
837.443	22949
837.58	22980
837.718	23037
837.856	22995
837.993	22816
838.131	22759
838.269	22717
838.406	22805
838.544	22706
838.681	22645
838.819	22561
838.956	22356
839.094	22371
839.231	22459
839.369	22588
839.506	22748
839.643	22740
839.781	22421
839.918	22234
840.055	22417
840.193	22500
840.33	22291
840.467	22333
840.604	22386
840.742	22763
840.879	22253
841.016	22280
841.153	22109
841.29	22497
841.427	22443
841.564	22314
841.701	22242
841.838	22223
841.975	22150
842.112	22314
842.249	22105
842.385	22261
842.522	22466
842.659	22139
842.796	22044
842.933	22139
843.069	22112
843.206	22109
843.343	22112
843.479	22226
843.616	22177
843.752	21774
843.889	21857
844.025	21941
844.162	21701
844.298	21945
844.435	21865
844.571	21823
844.708	21903
844.844	22078
844.98	21953
845.117	21941
845.253	21739
845.389	21701
845.525	21838
845.661	21682
845.798	21648
845.934	21720
846.07	21580
846.206	21759
846.342	21812
846.478	21660
846.614	21485
846.75	21268
846.886	21233
847.022	21397
847.158	21492
847.294	21348
847.429	21306
847.565	21268
847.701	21545
847.837	21146
847.972	21062
848.108	21207
848.244	21055
848.379	20921
848.515	20849
848.65	20891
848.786	20925
848.921	20906
849.057	21024
849.192	21112
849.328	21066
849.463	20944
849.598	20876
849.734	20815
849.869	20746
850.004	20777
850.14	20731
850.275	20754
850.41	20625
850.545	20636
850.68	20644
850.815	20750
850.95	20606
851.085	20899
851.22	20830
851.355	20720
851.49	20579
851.625	20735
851.76	20644
851.895	20571
852.03	20484
852.165	20640
852.299	20613
852.434	20826
852.569	20632
852.703	20674
852.838	20670
852.973	20895
853.107	20765
853.242	20606
853.376	20507
853.511	20518
853.645	20514
853.78	20621
853.914	20545
854.048	20492
854.183	20495
854.317	20465
854.451	20838
854.585	20514
854.72	20434
854.854	20587
854.988	20389
855.122	20434
855.256	20320
855.39	20442
855.524	20587
855.658	20351
855.792	20602
855.926	20556
856.06	20640
856.194	20621
856.327	20473
856.461	20503
856.595	20393
856.729	20594
856.862	20522
856.996	20476
857.13	20663
857.263	20594
857.397	20636
857.53	20537
857.664	20537
857.797	20583
857.931	20655
858.064	20499
858.197	20541
858.331	20560
858.464	20400
858.597	20400
858.731	20518
858.864	20568
858.997	20427
859.13	20552
859.263	20598
859.396	20636
859.529	20526
859.662	20434
859.795	20469
859.928	20484
860.061	20617
860.194	20792
860.327	20636
860.46	20564
860.592	20701
860.725	20644
860.858	20655
860.99	20579
861.123	20393
861.256	20427
861.388	20480
861.521	21112
861.653	20347
861.786	20278
861.918	20389
862.05	20431
862.183	20492
862.315	20336
862.447	20492
862.58	20450
862.712	20229
862.844	20225
862.976	20339
863.108	20324
863.24	20735
863.372	20180
863.504	20290
863.636	20199
863.768	20191
863.9	20286
864.032	20134
864.164	20172
864.296	20164
864.428	20336
864.559	20324
864.691	20385
864.823	20199
864.954	20290
865.086	20130
865.217	20176
865.349	19963
865.48	20126
865.612	20164
865.743	20233
865.875	19963
866.006	20065
866.137	20122
866.269	20172
866.4	19974
866.531	20149
866.662	20077
866.793	20092
866.924	20058
867.055	20100
867.186	20100
867.317	19978
867.448	20046
867.579	20062
867.71	19936
867.841	20016
867.972	20077
868.103	20062
868.233	20092
868.364	20054
868.495	20225
868.625	20374
868.756	20377
868.886	20271
869.017	20309
869.147	20343
869.278	20522
869.408	20339
869.539	20282
869.669	20423
869.799	20450
869.929	20457
870.06	20438
870.19	20583
870.32	20488
870.45	20659
870.58	20785
870.71	20830
870.84	20701
870.97	20670
871.1	20788
871.23	20956
871.36	20921
871.489	20842
871.619	20868
871.749	20998
871.879	20929
872.008	21085
872.138	20891
872.267	20929
872.397	20845
872.526	20640
872.656	20842
872.785	20686
872.915	20887
873.044	20971
873.173	20937
873.303	20990
873.432	21020
873.561	21104
873.69	20895
873.819	20971
873.948	21093
874.077	21013
874.206	20887
874.335	21043
874.464	21085
874.593	21211
874.722	21119
874.851	21199
874.979	21195
875.108	21287
875.237	21055
875.365	21100
875.494	21245
875.623	21138
875.751	21142
875.88	21272
876.008	21287
876.136	21298
876.265	21682
876.393	21724
876.521	21606
876.65	21766
876.778	21629
876.906	21439
877.034	21576
877.162	21500
877.29	21534
877.418	21561
877.546	21561
877.674	21450
877.802	21473
877.93	21488
878.058	21481
878.185	21447
878.313	21542
878.441	21485
878.568	21439
878.696	21458
878.824	21701
878.951	21682
879.079	21762
879.206	21873
879.333	21732
879.461	21660
879.588	21766
879.715	21819
879.842	21819
879.97	21618
880.097	21382
880.224	21420
880.351	21530
880.478	21374
880.605	21325
880.732	21268
880.859	21530
880.986	21344
881.112	21321
881.239	21218
881.366	21093
881.493	21066
881.619	21001
881.746	20864
881.872	20880
881.999	20967
882.125	20899
882.252	20944
882.378	20876
882.505	21089
882.631	20773
882.757	20712
882.883	20735
883.01	20625
883.136	20541
883.262	20396
883.388	20575
883.514	20686
883.64	20674
883.766	20533
883.892	20313
884.018	20476
884.143	20689
884.269	20705
884.395	20473
884.52	20358
884.646	20313
884.772	20237
884.897	20233
885.023	20305
885.148	20366
885.274	20381
885.399	20252
885.524	20377
885.65	20271
885.775	20305
885.9	20263
886.025	20381
886.15	20366
886.275	20347
886.4	20218
886.525	20320
886.65	20199
886.775	20256
886.9	20480
887.025	20499
887.149	20210
887.274	20195
887.399	20027
887.523	20043
887.648	20001
887.773	19986
887.897	20115
888.021	20077
888.146	20058
888.27	20153
888.395	20214
888.519	20126
888.643	20161
888.767	20103
888.891	19913
889.015	19871
889.139	19917
889.263	19925
889.387	19959
889.511	20138
889.635	20077
889.759	19871
889.883	19974
890.006	19868
890.13	19951
890.254	19902
890.377	19746
890.501	19689
890.624	19616
890.748	19651
890.871	19460
890.995	19476
891.118	19400
891.241	19411
891.364	19521
891.488	19582
891.611	19518
891.734	19483
891.857	19540
891.98	19441
892.103	19609
892.226	19354
892.349	19411
892.471	19259
892.594	19422
892.717	19495
892.839	19232
892.962	19556
893.085	19468
893.207	19350
893.33	19320
893.452	19304
893.575	19468
893.697	19365
893.819	19586
893.941	19582
894.064	19529
894.186	19232
894.308	19422
894.43	19430
894.552	19586
894.674	19354
894.796	19312
894.918	19426
895.04	19415
895.161	19491
895.283	19335
895.405	19449
895.526	19403
895.648	19381
895.769	19388
895.891	19476
896.012	19533
896.134	19476
896.255	19514
896.376	19343
896.498	19407
896.619	19400
896.74	19537
896.861	19506
896.982	19738
897.103	19849
897.224	19761
897.345	19639
897.466	19738
897.587	19689
897.708	19799
897.828	19693
897.949	19616
898.07	19472
898.19	19533
898.311	19833
898.431	19590
898.552	19719
898.672	19727
898.792	19761
898.913	19681
899.033	19559
899.153	19445
899.273	19491
899.393	19502
899.513	19499
899.633	19491
899.753	19548
899.873	19346
899.993	19445
900.113	19396
900.232	19339
900.352	19445
900.472	19240
900.591	19274
900.711	19228
900.83	19171
900.95	19221
901.069	19285
901.189	19183
901.308	18817
901.427	18837
901.546	18844
901.665	18871
901.784	18776
901.904	18768
902.023	18593
902.141	18486
902.26	18342
902.379	18380
902.498	18277
902.617	18213
902.735	18330
902.854	18251
902.973	18277
903.091	17969
903.21	18038
903.328	17996
903.446	17961
903.565	17813
903.683	17897
903.801	17794
903.919	17897
904.038	17756
904.156	17638
904.274	17680
904.392	17577
904.51	17497
904.627	17543
904.745	17592
904.863	17634
904.981	17391
905.098	17303
905.216	17288
905.334	17349
905.451	17239
905.569	17269
905.686	17258
905.803	17197
905.921	17033
906.038	17189
906.155	17071
906.272	16949
906.389	17022
906.506	16744
906.623	16877
906.74	16748
906.857	16672
906.974	16752
907.091	16938
907.208	16877
907.324	16790
907.441	16736
907.557	16573
907.674	16451
907.79	16413
907.907	16474
908.023	16561
908.139	16592
908.256	16500
908.372	16390
908.488	16428
908.604	16341
908.72	16128
908.836	16150
908.952	16249
909.068	16215
909.184	16306
909.3	16261
909.415	16272
909.531	16230
909.647	15964
909.762	15975
909.878	15926
909.993	15934
910.108	15930
910.224	15907
910.339	16006
910.454	15899
910.57	15884
910.685	15732
910.8	15930
910.915	15835
911.03	15785
911.145	15553
911.259	15576
911.374	15553
911.489	15538
911.604	15405
911.718	15298
911.833	15294
911.947	15237
912.062	15207
912.176	15405
912.291	15428
912.405	15340
912.519	15549
912.633	15397
912.748	15302
912.862	15211
912.976	15085
913.09	15047
913.204	14967
913.318	15157
913.431	15256
913.545	15184
913.659	15108
913.772	15085
913.886	14986
914	14857
914.113	15036
914.226	14967
914.34	14918
914.453	14807
914.566	14960
914.68	14804
914.793	14830
914.906	14651
915.019	14610
915.132	14499
915.245	14533
915.358	14579
915.47	14541
915.583	14530
915.696	14594
915.809	14625
915.921	14526
916.034	14579
916.146	14450
916.259	14419
916.371	14545
916.483	14507
916.595	14389
916.708	14434
916.82	14431
916.932	14431
917.044	14434
917.156	14324
917.268	14187
917.38	14313
917.491	14096
917.603	14275
917.715	14336
917.826	14324
917.938	14142
918.049	14126
918.161	14183
918.272	14267
918.384	14320
918.495	14092
918.606	14027
918.717	13986
918.828	14058
918.939	13993
919.05	13890
919.161	14005
919.272	13807
919.383	13917
919.494	14065
919.604	14214
919.715	14069
919.826	13951
919.936	13982
920.047	14008
920.157	14031
920.267	14244
920.378	14043
920.488	13883
920.598	14134
920.708	14271
920.818	14100
920.928	14069
921.038	14187
921.148	14252
921.258	14035
921.368	13875
921.477	13685
921.587	13723
921.697	13575
921.806	13738
921.916	13571
922.025	13426
922.134	13373
922.244	13247
922.353	13430
922.462	13266
922.571	13190
922.68	13053
922.789	12993
922.898	13008
923.007	13034
923.116	13099
923.224	13046
923.333	12943
923.442	12817
923.55	12852
923.659	12840
923.767	12928
923.876	12715
923.984	12928
924.092	12730
924.201	12806
924.309	12806
924.417	12745
924.525	12722
924.633	12783
924.741	13662
924.849	12589
924.956	12734
925.064	12525
925.172	12410
925.279	12464
925.387	12528
925.494	12467
925.602	12563
925.709	12479
925.816	12376
925.924	12460
926.031	12612
926.138	12483
926.245	12509
926.352	12350
926.459	12445
926.566	12532
926.673	12330
926.779	12308
926.886	12266
926.993	12030
927.099	12076
927.206	12022
927.312	12068
927.419	12140
927.525	12026
927.631	12060
927.737	11920
927.843	11946
927.95	11836
928.056	11908
928.162	11893
928.267	11889
928.373	12639
928.479	11916
928.585	11741
928.69	11866
928.796	11863
928.901	11748
929.007	11630
929.112	11703
929.218	11726
929.323	11642
929.428	11649
929.533	11798
929.638	11646
929.743	11619
929.848	11619
929.953	11573
930.058	11482
930.163	11414
930.267	11337
930.372	11505
930.477	11280
930.581	11558
930.685	11383
930.79	11189
930.894	11223
930.998	11216
931.103	11311
931.207	10972
931.311	10919
931.415	10801
931.519	10599
931.623	10618
