Data from test_V78500241_1974.txt Node
Date: Fri Mar 25 15:55:28 CST 2022
User: usil
Spectrometer: V785-0024
Trigger mode: 0
Integration Time (sec): 4.000000E-1
Scans to average: 1
Nonlinearity correction enabled: false
Boxcar width: 0
Storing dark spectrum: false
XAxis mode: Wavelengths
Number of Pixels in Spectrum: 1024
>>>>>Begin Spectral Data<<<<<
801.071	27386
801.214	27355
801.356	27260
801.499	27036
801.641	26872
801.783	26933
801.926	26792
802.068	26940
802.211	26891
802.353	26750
802.496	26530
802.638	26492
802.78	26587
802.923	26492
803.065	26457
803.208	26412
803.35	26606
803.492	26663
803.635	26632
803.777	26522
803.919	26750
804.061	27142
804.204	26708
804.346	26739
804.488	26594
804.63	26819
804.773	26514
804.915	26762
805.057	26876
805.199	26602
805.341	26864
805.483	26864
805.626	26872
805.768	26663
805.91	26876
806.052	26899
806.194	26758
806.336	26940
806.478	26925
806.62	26834
806.762	26880
806.904	27062
807.046	27405
807.188	27275
807.33	27275
807.472	27272
807.614	27192
807.756	27291
807.898	27081
808.04	26940
808.182	27001
808.324	26948
808.465	27135
808.607	27283
808.749	27397
808.891	27458
809.033	27587
809.174	27538
809.316	27389
809.458	27447
809.6	27473
809.741	27572
809.883	27618
810.025	27861
810.166	27751
810.308	27793
810.45	27610
810.591	27648
810.733	27485
810.875	27507
811.016	27355
811.158	27351
811.299	27496
811.441	27538
811.582	27587
811.724	27519
811.865	27393
812.007	27329
812.148	27351
812.29	27580
812.431	27454
812.573	27641
812.714	27808
812.855	27838
812.997	27945
813.138	28226
813.279	27949
813.421	27991
813.562	27770
813.703	27599
813.845	27538
813.986	27294
814.127	27108
814.268	27146
814.41	27108
814.551	27077
814.692	27135
814.833	26944
814.974	26952
815.115	27081
815.256	27013
815.397	26952
815.539	26861
815.68	26842
815.821	26910
815.962	26948
816.103	26834
816.244	26724
816.385	26716
816.526	26503
816.666	26438
816.807	26267
816.948	26343
817.089	26362
817.23	26374
817.371	26343
817.512	26366
817.653	26305
817.793	26317
817.934	26244
818.075	26362
818.216	26366
818.356	26339
818.497	26206
818.638	26031
818.778	26180
818.919	26138
819.06	26221
819.2	26115
819.341	26317
819.481	26362
819.622	26431
819.762	26678
819.903	26606
820.043	26393
820.184	26419
820.324	26419
820.465	26469
820.605	26514
820.746	26362
820.886	26389
821.026	26408
821.167	26309
821.307	26541
821.447	26366
821.588	26301
821.728	26149
821.868	26012
822.008	25784
822.149	25757
822.289	25746
822.429	25544
822.569	25487
822.709	25556
822.849	25320
822.99	25358
823.13	25297
823.27	25240
823.41	25312
823.55	25114
823.69	25088
823.83	25072
823.97	25122
824.11	24939
824.25	25031
824.389	24814
824.529	24996
824.669	24909
824.809	24966
824.949	25027
825.089	25000
825.228	25050
825.368	24779
825.508	24806
825.648	24829
825.787	24810
825.927	24954
826.067	24715
826.206	24760
826.346	24779
826.485	24810
826.625	24840
826.765	24973
826.904	24821
827.044	24593
827.183	24582
827.323	24616
827.462	24646
827.601	24498
827.741	24475
827.88	24475
828.02	24346
828.159	24513
828.298	24399
828.437	24585
828.577	24323
828.716	24460
828.855	24376
828.994	24235
829.134	24266
829.273	24197
829.412	24155
829.551	24159
829.69	24197
829.829	24235
829.968	24281
830.107	24330
830.246	24209
830.385	24327
830.524	24041
830.663	24018
830.802	23935
830.941	23786
831.08	23714
831.219	23954
831.357	23912
831.496	23942
831.635	23870
831.774	23863
831.913	23638
832.051	23547
832.19	23623
832.329	23661
832.467	23505
832.606	23463
832.744	23467
832.883	23448
833.022	23406
833.16	23509
833.299	23592
833.437	23444
833.576	23653
833.714	23551
833.852	23657
833.991	23509
834.129	23524
834.267	23638
834.406	23482
834.544	23600
834.682	23551
834.821	23467
834.959	23615
835.097	23558
835.235	23459
835.373	23589
835.511	23478
835.65	23471
835.788	23379
835.926	23258
836.064	23174
836.202	23223
836.34	23353
836.478	23444
836.615	23326
836.753	23425
836.891	23417
837.029	23421
837.167	23269
837.305	23170
837.443	23318
837.58	23254
837.718	23299
837.856	23197
837.993	23185
838.131	23117
838.269	23128
838.406	23056
838.544	23117
838.681	22915
838.819	22790
838.956	22771
839.094	22763
839.231	22736
839.369	22847
839.506	22965
839.643	22885
839.781	22664
839.918	22649
840.055	22733
840.193	22611
840.33	22664
840.467	22649
840.604	22710
840.742	22896
840.879	22512
841.016	22580
841.153	22542
841.29	22710
841.427	22577
841.564	22691
841.701	22626
841.838	22462
841.975	22497
842.112	22691
842.249	22409
842.385	22462
842.522	22569
842.659	22470
842.796	22318
842.933	22363
843.069	22409
843.206	22291
843.343	22375
843.479	22390
843.616	22356
843.752	22303
843.889	22150
844.025	22356
844.162	22055
844.298	22158
844.435	22177
844.571	22086
844.708	22226
844.844	22272
844.98	22303
845.117	22219
845.253	22059
845.389	22002
845.525	22177
845.661	21937
845.798	21884
845.934	21987
846.07	21892
846.206	21903
846.342	22013
846.478	21968
846.614	21694
846.75	21637
846.886	21625
847.022	21610
847.158	21656
847.294	21595
847.429	21720
847.565	21641
847.701	21884
847.837	21374
847.972	21264
848.108	21386
848.244	21511
848.379	21264
848.515	21230
848.65	21188
848.786	21252
848.921	21154
849.057	21348
849.192	21344
849.328	21241
849.463	21272
849.598	21173
849.734	21135
849.869	21043
850.004	20990
850.14	20918
850.275	21024
850.41	20853
850.545	20929
850.68	21043
850.815	21039
850.95	20952
851.085	21207
851.22	21074
851.355	21062
851.49	20956
851.625	20956
851.76	20963
851.895	20990
852.03	20872
852.165	20963
852.299	20910
852.434	21188
852.569	20975
852.703	20899
852.838	20990
852.973	21119
853.107	21020
853.242	20792
853.376	20716
853.511	20674
853.645	20720
853.78	20971
853.914	20826
854.048	20735
854.183	20644
854.317	20769
854.451	21028
854.585	20773
854.72	20781
854.854	20899
854.988	20724
855.122	20864
855.256	20773
855.39	20876
855.524	20910
855.658	20963
855.792	20788
855.926	20868
856.06	20906
856.194	20906
856.327	20864
856.461	20663
856.595	20724
856.729	20606
856.862	20864
856.996	20815
857.13	20933
857.263	21020
857.397	20979
857.53	20823
857.664	20765
857.797	20857
857.931	21001
858.064	20826
858.197	20845
858.331	20834
858.464	20750
858.597	20598
858.731	20739
858.864	20849
858.997	20746
859.13	20845
859.263	20785
859.396	20925
859.529	20777
859.662	20918
859.795	20762
859.928	20739
860.061	21062
860.194	20990
860.327	20864
860.46	20731
860.592	20944
860.725	21009
860.858	20819
860.99	20815
861.123	20682
861.256	20689
861.388	20838
861.521	21557
861.653	20823
861.786	20514
861.918	20754
862.05	20708
862.183	20590
862.315	20796
862.447	20762
862.58	20670
862.712	20533
862.844	20396
862.976	20514
863.108	20511
863.24	21070
863.372	20503
863.504	20499
863.636	20499
863.768	20530
863.9	20613
864.032	20469
864.164	20469
864.296	20640
864.428	20621
864.559	20625
864.691	20522
864.823	20545
864.954	20465
865.086	20556
865.217	20617
865.349	20396
865.48	20412
865.612	20408
865.743	20560
865.875	20328
866.006	20377
866.137	20400
866.269	20419
866.4	20374
866.531	20343
866.662	20434
866.793	20259
866.924	20381
867.055	20495
867.186	20362
867.317	20282
867.448	20320
867.579	20313
867.71	20294
867.841	20244
867.972	20328
868.103	20393
868.233	20282
868.364	20286
868.495	20522
868.625	20617
868.756	20830
868.886	20632
869.017	20571
869.147	20598
869.278	20716
869.408	20701
869.539	20568
869.669	20644
869.799	20731
869.929	20720
870.06	20754
870.19	20933
870.32	20834
870.45	20853
870.58	21020
870.71	21024
870.84	21127
870.97	20960
871.1	21043
871.23	21230
871.36	21203
871.489	21089
871.619	21275
871.749	21336
871.879	21184
872.008	21275
872.138	21211
872.267	21116
872.397	20902
872.526	21043
872.656	21089
872.785	21062
872.915	21218
873.044	21348
873.173	21241
873.303	21116
873.432	21264
873.561	21302
873.69	21313
873.819	21184
873.948	21363
874.077	21230
874.206	21173
874.335	21272
874.464	21291
874.593	21454
874.722	21488
874.851	21450
874.979	21538
875.108	21526
875.237	21488
875.365	21294
875.494	21450
875.623	21485
875.751	21389
875.88	21496
876.008	21534
876.136	21698
876.265	21865
876.393	21888
876.521	21903
876.65	21884
876.778	21945
876.906	21816
877.034	21759
877.162	21800
877.29	21739
877.418	21945
877.546	21816
877.674	21892
877.802	21857
877.93	21865
878.058	21739
878.185	21652
878.313	21785
878.441	21812
878.568	21652
878.696	21797
878.824	21892
878.951	21903
879.079	21991
879.206	22059
879.333	21991
879.461	21724
879.588	21857
879.715	21892
879.842	22093
879.97	22013
880.097	21720
880.224	21736
880.351	21793
880.478	21568
880.605	21648
880.732	21751
880.859	21865
880.986	21530
881.112	21652
881.239	21534
881.366	21279
881.493	21325
881.619	21226
881.746	21279
881.872	21199
881.999	21176
882.125	21108
882.252	21294
882.378	21157
882.505	21241
882.631	21123
882.757	20800
882.883	20933
883.01	20849
883.136	20785
883.262	20857
883.388	20845
883.514	21032
883.64	20864
883.766	20864
883.892	20750
884.018	20708
884.143	20899
884.269	20960
884.395	20648
884.52	20629
884.646	20590
884.772	20495
884.897	20454
885.023	20686
885.148	20632
885.274	20701
885.399	20705
885.524	20549
885.65	20549
885.775	20663
885.9	20655
886.025	20708
886.15	20746
886.275	20507
886.4	20594
886.525	20526
886.65	20530
886.775	20396
886.9	20625
887.025	20667
887.149	20503
887.274	20408
887.399	20294
887.523	20381
887.648	20301
887.773	20183
887.897	20347
888.021	20313
888.146	20191
888.27	20328
888.395	20336
888.519	20579
888.643	20328
888.767	20400
888.891	20404
889.015	20298
889.139	20259
889.263	20065
889.387	20168
889.511	20381
889.635	20214
889.759	20107
889.883	20225
890.006	20138
890.13	20294
890.254	20054
890.377	19947
890.501	19993
890.624	19761
890.748	19913
890.871	19757
890.995	19753
891.118	19700
891.241	19860
891.364	19693
891.488	19826
891.611	19765
891.734	19769
891.857	19822
891.98	19658
892.103	19868
892.226	19772
892.349	19734
892.471	19510
892.594	19738
892.717	19746
892.839	19620
892.962	19761
893.085	19731
893.207	19750
893.33	19632
893.452	19590
893.575	19681
893.697	19677
893.819	19772
893.941	19913
894.064	19670
894.186	19704
894.308	19563
894.43	19765
894.552	19719
894.674	19742
894.796	19666
894.918	19643
895.04	19613
895.161	19643
895.283	19753
895.405	19556
895.526	19715
895.648	19647
895.769	19738
895.891	19719
896.012	19852
896.134	19677
896.255	19662
896.376	19590
896.498	19761
896.619	19734
896.74	19704
896.861	19799
896.982	20024
897.103	20176
897.224	19898
897.345	19818
897.466	19734
897.587	19902
897.708	20020
897.828	19925
897.949	19875
898.07	19677
898.19	19890
898.311	20050
898.431	19822
898.552	19845
898.672	20016
898.792	19936
898.913	19814
899.033	19921
899.153	19715
899.273	19647
899.393	19765
899.513	19658
899.633	19609
899.753	19746
899.873	19594
899.993	19681
900.113	19609
900.232	19658
900.352	19499
900.472	19590
900.591	19430
900.711	19457
900.83	19457
900.95	19464
901.069	19537
901.189	19343
901.308	19156
901.427	19012
901.546	19076
901.665	19038
901.784	18996
901.904	18993
902.023	18810
902.141	18677
902.26	18661
902.379	18566
902.498	18753
902.617	18544
902.735	18544
902.854	18494
902.973	18407
903.091	18277
903.21	18190
903.328	18235
903.446	18152
903.565	18045
903.683	18110
903.801	17760
903.919	17977
904.038	17984
904.156	17786
904.274	17958
904.392	17901
904.51	17737
904.627	17805
904.745	17843
904.863	17809
904.981	17680
905.098	17501
905.216	17493
905.334	17509
905.451	17444
905.569	17463
905.686	17535
905.803	17539
905.921	17261
906.038	17280
906.155	17277
906.272	17273
906.389	17166
906.506	17071
906.623	16972
906.74	16923
906.857	16923
906.974	16961
907.091	17029
907.208	17105
907.324	16987
907.441	16938
907.557	16679
907.674	16847
907.79	16618
907.907	16752
908.023	16763
908.139	16683
908.256	16584
908.372	16599
908.488	16656
908.604	16554
908.72	16440
908.836	16474
908.952	16390
909.068	16344
909.184	16603
909.3	16455
909.415	16459
909.531	16459
909.647	16173
909.762	16173
909.878	16135
909.993	16124
910.108	16211
910.224	16040
910.339	16112
910.454	16006
910.57	15979
910.685	15987
910.8	16230
910.915	16150
911.03	15895
911.145	15846
911.259	15705
911.374	15755
911.489	15679
911.604	15580
911.718	15454
911.833	15469
911.947	15374
912.062	15412
912.176	15530
912.291	15587
912.405	15523
912.519	15766
912.633	15667
912.748	15606
912.862	15557
912.976	15386
913.09	15176
913.204	15313
913.318	15344
913.431	15492
913.545	15317
913.659	15458
913.772	15275
913.886	15119
914	15214
914.113	15165
914.226	15233
914.34	15146
914.453	15055
914.566	15097
914.68	15009
914.793	15104
914.906	14807
915.019	14811
915.132	14716
915.245	14773
915.358	14785
915.47	14788
915.583	14792
915.696	14842
915.809	14853
915.921	14937
916.034	14792
916.146	14587
916.259	14594
916.371	14804
916.483	14754
916.595	14583
916.708	14602
916.82	14575
916.932	14621
917.044	14499
917.156	14469
917.268	14454
917.38	14438
917.491	14415
917.603	14419
917.715	14526
917.826	14450
917.938	14374
918.049	14244
918.161	14408
918.272	14499
918.384	14446
918.495	14347
918.606	14206
918.717	14180
918.828	14225
918.939	14237
919.05	14183
919.161	14107
919.272	13974
919.383	14031
919.494	14240
919.604	14404
919.715	14168
919.826	14096
919.936	14149
920.047	14168
920.157	14168
920.267	14423
920.378	14138
920.488	14096
920.598	14320
920.708	14514
920.818	14313
920.928	14317
921.038	14488
921.148	14465
921.258	14058
921.368	14035
921.477	13883
921.587	13894
921.697	13811
921.806	13837
921.916	13769
922.025	13651
922.134	13578
922.244	13464
922.353	13624
922.462	13453
922.571	13354
922.68	13308
922.789	13183
922.898	13263
923.007	13187
923.116	13301
923.224	13194
923.333	13198
923.442	13129
923.55	13019
923.659	13168
923.767	13171
923.876	13038
923.984	13099
924.092	12966
924.201	12932
924.309	12958
924.417	12920
924.525	12825
924.633	12890
924.741	13871
924.849	12642
924.956	12776
925.064	12692
925.172	12604
925.279	12631
925.387	12681
925.494	12658
925.602	12669
925.709	12722
925.816	12559
925.924	12631
926.031	12703
926.138	12589
926.245	12635
926.352	12585
926.459	12654
926.566	12730
926.673	12471
926.779	12353
926.886	12399
926.993	12292
927.099	12228
927.206	12194
927.312	12228
927.419	12239
927.525	12110
927.631	12239
927.737	12133
927.843	12049
927.95	12022
928.056	12026
928.162	12068
928.267	12083
928.373	12692
928.479	12136
928.585	11935
928.69	12019
928.796	12022
928.901	11912
929.007	11786
929.112	11901
929.218	11870
929.323	11775
929.428	11821
929.533	11893
929.638	11668
929.743	11718
929.848	11771
929.953	11718
930.058	11665
930.163	11448
930.267	11505
930.372	11638
930.477	11524
930.581	11657
930.685	11493
930.79	11353
930.894	11395
930.998	11364
931.103	11532
931.207	11143
931.311	11029
931.415	10999
931.519	10725
931.623	10801
