Data from test_V78500241_676.txt Node
Date: Fri Mar 25 15:46:29 CST 2022
User: usil
Spectrometer: V785-0024
Trigger mode: 0
Integration Time (sec): 4.000000E-1
Scans to average: 1
Nonlinearity correction enabled: false
Boxcar width: 0
Storing dark spectrum: false
XAxis mode: Wavelengths
Number of Pixels in Spectrum: 1024
>>>>>Begin Spectral Data<<<<<
801.071	28040
801.214	27911
801.356	27686
801.499	27701
801.641	27576
801.783	27603
801.926	27736
802.068	27583
802.211	27454
802.353	27313
802.496	27230
802.638	27203
802.78	27211
802.923	27074
803.065	27184
803.208	27058
803.35	27332
803.492	27252
803.635	27386
803.777	27370
803.919	27466
804.061	27797
804.204	27462
804.346	27355
804.488	27298
804.63	27252
804.773	27317
804.915	27355
805.057	27469
805.199	27340
805.341	27557
805.483	27564
805.626	27587
805.768	27431
805.91	27606
806.052	27568
806.194	27401
806.336	27819
806.478	27561
806.62	27576
806.762	27713
806.904	27895
807.046	28067
807.188	28074
807.33	27998
807.472	28029
807.614	27846
807.756	27956
807.898	27892
808.04	27770
808.182	27720
808.324	27941
808.465	27808
808.607	28025
808.749	28143
808.891	28337
809.033	28398
809.174	28421
809.316	28025
809.458	28101
809.6	28200
809.741	28367
809.883	28272
810.025	28497
810.166	28531
810.308	28462
810.45	28447
810.591	28344
810.733	28322
810.875	28070
811.016	28143
811.158	28059
811.299	28249
811.441	28390
811.582	28512
811.724	28128
811.865	28211
812.007	28223
812.148	28200
812.29	28234
812.431	28497
812.573	28577
812.714	28535
812.855	28622
812.997	28831
813.138	28934
813.279	28991
813.421	28774
813.562	28748
813.703	28713
813.845	28375
813.986	28287
814.127	27998
814.268	27949
814.41	27835
814.551	27808
814.692	28006
814.833	27892
814.974	27899
815.115	27998
815.256	27762
815.397	27709
815.539	27739
815.68	27705
815.821	27705
815.962	27622
816.103	27690
816.244	27511
816.385	27622
816.526	27481
816.666	27359
816.807	27188
816.948	27405
817.089	27199
817.23	27176
817.371	27233
817.512	27112
817.653	27188
817.793	27157
817.934	27233
818.075	27298
818.216	27237
818.356	27302
818.497	27089
818.638	27005
818.778	27070
818.919	26792
819.06	27070
819.2	27154
819.341	27264
819.481	27157
819.622	27485
819.762	27618
819.903	27462
820.043	27291
820.184	27264
820.324	27340
820.465	27481
820.605	27389
820.746	27264
820.886	27222
821.026	27359
821.167	27363
821.307	27317
821.447	27184
821.588	27119
821.728	27100
821.868	26838
822.008	26659
822.149	26640
822.289	26811
822.429	26282
822.569	26434
822.709	26450
822.849	26240
822.99	26195
823.13	26229
823.27	25951
823.41	26058
823.55	25887
823.69	25966
823.83	26043
823.97	26008
824.11	25704
824.25	25753
824.389	25765
824.529	25963
824.669	25761
824.809	26043
824.949	26039
825.089	25925
825.228	25860
825.368	25689
825.508	25784
825.648	25639
825.787	25666
825.927	25658
826.067	25746
826.206	25616
826.346	25639
826.485	25628
826.625	25571
826.765	25875
826.904	25822
827.044	25502
827.183	25533
827.323	25403
827.462	25506
827.601	25518
827.741	25487
827.88	25441
828.02	25373
828.159	25457
828.298	25445
828.437	25457
828.577	25438
828.716	25426
828.855	25278
828.994	25183
829.134	25206
829.273	25190
829.412	25072
829.551	25103
829.69	25103
829.829	25152
829.968	25050
830.107	25244
830.246	25053
830.385	25057
830.524	24970
830.663	24962
830.802	24844
830.941	24684
831.08	24669
831.219	24844
831.357	24798
831.496	24863
831.635	24665
831.774	24646
831.913	24620
832.051	24467
832.19	24513
832.329	24502
832.467	24498
832.606	24270
832.744	24384
832.883	24334
833.022	24270
833.16	24414
833.299	24494
833.437	24433
833.576	24426
833.714	24399
833.852	24684
833.991	24452
834.129	24555
834.267	24437
834.406	24445
834.544	24441
834.682	24433
834.821	24342
834.959	24502
835.097	24372
835.235	24426
835.373	24399
835.511	24334
835.65	24251
835.788	24308
835.926	24148
836.064	24053
836.202	24213
836.34	24338
836.478	24384
836.615	24167
836.753	24342
836.891	24315
837.029	24346
837.167	24197
837.305	24159
837.443	24102
837.58	24163
837.718	24163
837.856	24148
837.993	24083
838.131	24102
838.269	23923
838.406	23992
838.544	23996
838.681	23623
838.819	23764
838.956	23551
839.094	23516
839.231	23543
839.369	23767
839.506	24026
839.643	23786
839.781	23703
839.918	23531
840.055	23707
840.193	23634
840.33	23482
840.467	23421
840.604	23619
840.742	23802
840.879	23372
841.016	23452
841.153	23296
841.29	23562
841.427	23478
841.564	23638
841.701	23455
841.838	23558
841.975	23296
842.112	23436
842.249	23330
842.385	23273
842.522	23459
842.659	23223
842.796	23261
842.933	23216
843.069	23212
843.206	23216
843.343	23296
843.479	23151
843.616	23254
843.752	23075
843.889	22942
844.025	23113
844.162	22984
844.298	23117
844.435	23048
844.571	22927
844.708	22980
844.844	23155
844.98	23128
845.117	23113
845.253	22987
845.389	22839
845.525	22793
845.661	23029
845.798	22706
845.934	22930
846.07	22862
846.206	22752
846.342	22881
846.478	22759
846.614	22592
846.75	22405
846.886	22504
847.022	22573
847.158	22455
847.294	22592
847.429	22417
847.565	22310
847.701	22702
847.837	22166
847.972	22147
848.108	22265
848.244	22325
848.379	22223
848.515	22093
848.65	21991
848.786	22154
848.921	22166
849.057	22116
849.192	22059
849.328	22169
849.463	22032
849.598	22090
849.734	22093
849.869	22006
850.004	21766
850.14	21759
850.275	21785
850.41	21854
850.545	21797
850.68	21747
850.815	21964
850.95	21827
851.085	21975
851.22	21968
851.355	21793
851.49	21838
851.625	21785
851.76	21835
851.895	21785
852.03	21713
852.165	21797
852.299	21899
852.434	21857
852.569	21842
852.703	21793
852.838	21934
852.973	21934
853.107	21991
853.242	21739
853.376	21743
853.511	21458
853.645	21720
853.78	21778
853.914	21675
854.048	21682
854.183	21519
854.317	21614
854.451	21835
854.585	21648
854.72	21603
854.854	21694
854.988	21587
855.122	21644
855.256	21595
855.39	21572
855.524	21595
855.658	21675
855.792	21660
855.926	21694
856.06	21591
856.194	21797
856.327	21618
856.461	21519
856.595	21698
856.729	21542
856.862	21766
856.996	21759
857.13	21652
857.263	21762
857.397	21778
857.53	21599
857.664	21732
857.797	21838
857.931	21732
858.064	21698
858.197	21842
858.331	21622
858.464	21561
858.597	21682
858.731	21663
858.864	21576
858.997	21553
859.13	21599
859.263	21660
859.396	21797
859.529	21618
859.662	21667
859.795	21603
859.928	21660
860.061	21770
860.194	22010
860.327	21766
860.46	21637
860.592	21743
860.725	21781
860.858	21808
860.99	21564
861.123	21538
861.256	21450
861.388	21492
861.521	22329
861.653	21629
861.786	21431
861.918	21481
862.05	21458
862.183	21682
862.315	21648
862.447	21625
862.58	21595
862.712	21469
862.844	21389
862.976	21568
863.108	21420
863.24	21720
863.372	21389
863.504	21389
863.636	21443
863.768	21412
863.9	21420
864.032	21252
864.164	21283
864.296	21477
864.428	21401
864.559	21439
864.691	21481
864.823	21256
864.954	21203
865.086	21348
865.217	21317
865.349	21184
865.48	21329
865.612	21154
865.743	21359
865.875	21226
866.006	21195
866.137	21279
866.269	21135
866.4	21226
866.531	21260
866.662	21291
866.793	21233
866.924	21237
867.055	21127
867.186	21275
867.317	21093
867.448	21043
867.579	21116
867.71	21123
867.841	21089
867.972	21161
868.103	21131
868.233	21195
868.364	21154
868.495	21336
868.625	21412
868.756	21462
868.886	21431
869.017	21454
869.147	21458
869.278	21614
869.408	21450
869.539	21591
869.669	21507
869.799	21481
869.929	21519
870.06	21618
870.19	21690
870.32	21770
870.45	21854
870.58	21934
870.71	21907
870.84	21827
870.97	21766
871.1	21819
871.23	22032
871.36	22067
871.489	21918
871.619	22048
871.749	22120
871.879	21972
872.008	22147
872.138	22029
872.267	22002
872.397	21861
872.526	21880
872.656	21838
872.785	21808
872.915	22021
873.044	22150
873.173	21899
873.303	22109
873.432	22082
873.561	22325
873.69	22006
873.819	22051
873.948	22051
874.077	21960
874.206	22021
874.335	22013
874.464	22154
874.593	22306
874.722	22207
874.851	22257
874.979	22314
875.108	22329
875.237	22223
875.365	22116
875.494	22268
875.623	22356
875.751	22249
875.88	22314
876.008	22276
876.136	22405
876.265	22615
876.393	22752
876.521	22626
876.65	22771
876.778	22744
876.906	22592
877.034	22535
877.162	22561
877.29	22542
877.418	22645
877.546	22557
877.674	22645
877.802	22622
877.93	22535
878.058	22379
878.185	22455
878.313	22542
878.441	22561
878.568	22535
878.696	22626
878.824	22599
878.951	22702
879.079	22736
879.206	22858
879.333	22793
879.461	22683
879.588	22721
879.715	22892
879.842	22919
879.97	22618
880.097	22447
880.224	22474
880.351	22542
880.478	22508
880.605	22382
880.732	22367
880.859	22656
880.986	22390
881.112	22466
881.239	22246
881.366	22154
881.493	22044
881.619	21994
881.746	22074
881.872	21994
881.999	22021
882.125	21892
882.252	22090
882.378	22029
882.505	22063
882.631	21850
882.757	21717
882.883	21770
883.01	21660
883.136	21667
883.262	21599
883.388	21469
883.514	21717
883.64	21747
883.766	21534
883.892	21481
884.018	21416
884.143	21690
884.269	21618
884.395	21462
884.52	21329
884.646	21325
884.772	21264
884.897	21131
885.023	21428
885.148	21450
885.274	21473
885.399	21408
885.524	21408
885.65	21389
885.775	21287
885.9	21317
886.025	21397
886.15	21504
886.275	21340
886.4	21264
886.525	21291
886.65	21207
886.775	21329
886.9	21458
887.025	21416
887.149	21306
887.274	21211
887.399	21077
887.523	21104
887.648	21062
887.773	20994
887.897	21188
888.021	21211
888.146	20880
888.27	20990
888.395	21161
888.519	21036
888.643	21070
888.767	21100
888.891	20975
889.015	20853
889.139	20998
889.263	20982
889.387	20918
889.511	20975
889.635	21005
889.759	20880
889.883	20861
890.006	20849
890.13	21077
890.254	20864
890.377	20834
890.501	20518
890.624	20609
890.748	20785
890.871	20560
890.995	20533
891.118	20393
891.241	20564
891.364	20404
891.488	20632
891.611	20473
891.734	20549
891.857	20533
891.98	20431
892.103	20461
892.226	20476
892.349	20412
892.471	20286
892.594	20427
892.717	20438
892.839	20377
892.962	20454
893.085	20469
893.207	20461
893.33	20286
893.452	20305
893.575	20396
893.697	20355
893.819	20530
893.941	20549
894.064	20385
894.186	20480
894.308	20218
894.43	20454
894.552	20469
894.674	20408
894.796	20278
894.918	20339
895.04	20218
895.161	20518
895.283	20328
895.405	20438
895.526	20282
895.648	20358
895.769	20537
895.891	20396
896.012	20564
896.134	20351
896.255	20488
896.376	20278
896.498	20385
896.619	20393
896.74	20317
896.861	20499
896.982	20686
897.103	20815
897.224	20670
897.345	20518
897.466	20492
897.587	20602
897.708	20674
897.828	20716
897.949	20393
898.07	20317
898.19	20526
898.311	20746
898.431	20473
898.552	20511
898.672	20575
898.792	20632
898.913	20571
899.033	20507
899.153	20389
899.273	20225
899.393	20358
899.513	20381
899.633	20248
899.753	20343
899.873	20275
899.993	20408
900.113	20259
900.232	20248
900.352	20248
900.472	20176
900.591	20073
900.711	20008
900.83	20020
900.95	20142
901.069	20275
901.189	20043
901.308	19791
901.427	19734
901.546	19575
901.665	19719
901.784	19753
901.904	19480
902.023	19449
902.141	19308
902.26	19282
902.379	19259
902.498	19331
902.617	19175
902.735	19263
902.854	19091
902.973	19164
903.091	18867
903.21	18905
903.328	18840
903.446	18764
903.565	18665
903.683	18753
903.801	18574
903.919	18631
904.038	18658
904.156	18650
904.274	18471
904.392	18467
904.51	18391
904.627	18395
904.745	18521
904.863	18475
904.981	18311
905.098	18034
905.216	18045
905.334	18171
905.451	18045
905.569	18053
905.686	18117
905.803	18064
905.921	17866
906.038	17988
906.155	17950
906.272	17901
906.389	17832
906.506	17707
906.623	17710
906.74	17600
906.857	17554
906.974	17436
907.091	17649
907.208	17680
907.324	17634
907.441	17535
907.557	17326
907.674	17398
907.79	17368
907.907	17311
908.023	17353
908.139	17337
908.256	17242
908.372	17208
908.488	17147
908.604	17071
908.72	17041
908.836	17071
908.952	17014
909.068	17113
909.184	17071
909.3	17075
909.415	17083
909.531	17025
909.647	16866
909.762	16828
909.878	16729
909.993	16790
910.108	16740
910.224	16736
910.339	16694
910.454	16558
910.57	16546
910.685	16470
910.8	16812
910.915	16748
911.03	16588
911.145	16402
911.259	16402
911.374	16314
911.489	16367
911.604	16139
911.718	16173
911.833	16040
911.947	15937
912.062	15987
912.176	16105
912.291	16051
912.405	16097
912.519	16280
912.633	16287
912.748	16185
912.862	16025
912.976	15892
913.09	15781
913.204	15918
913.318	15903
913.431	16036
913.545	16025
913.659	16036
913.772	15922
913.886	15671
914	15652
914.113	15785
914.226	15903
914.34	15770
914.453	15542
914.566	15770
914.68	15572
914.793	15511
914.906	15386
915.019	15283
915.132	15165
915.245	15241
915.358	15416
915.47	15294
915.583	15279
915.696	15332
915.809	15420
915.921	15428
916.034	15272
916.146	15150
916.259	15138
916.371	15260
916.483	15298
916.595	15169
916.708	15138
916.82	15180
916.932	15108
917.044	15081
917.156	15142
917.268	14956
917.38	14956
917.491	14899
917.603	14971
917.715	14979
917.826	15081
917.938	14899
918.049	14815
918.161	14845
918.272	15005
918.384	14979
918.495	14872
918.606	14762
918.717	14613
918.828	14632
918.939	14781
919.05	14560
919.161	14697
919.272	14476
919.383	14587
919.494	14663
919.604	14914
919.715	14632
919.826	14606
919.936	14708
920.047	14697
920.157	14602
920.267	14800
920.378	14689
920.488	14632
920.598	14861
920.708	14929
920.818	14792
920.928	14819
921.038	14967
921.148	14979
921.258	14571
921.368	14499
921.477	14495
921.587	14362
921.697	14256
921.806	14457
921.916	14237
922.025	14157
922.134	14130
922.244	13997
922.353	14092
922.462	13993
922.571	13856
922.68	13719
922.789	13700
922.898	13582
923.007	13628
923.116	13689
923.224	13647
923.333	13719
923.442	13628
923.55	13460
923.659	13525
923.767	13575
923.876	13476
923.984	13529
924.092	13434
924.201	13358
924.309	13400
924.417	13438
924.525	13377
924.633	13377
924.741	14328
924.849	13103
924.956	13251
925.064	13183
925.172	12973
925.279	13053
925.387	13126
925.494	13099
925.602	13103
925.709	13133
925.816	12947
925.924	13019
926.031	13110
926.138	13034
926.245	13015
926.352	12939
926.459	13133
926.566	13072
926.673	12947
926.779	12806
926.886	12848
926.993	12768
927.099	12684
927.206	12673
927.312	12627
927.419	12650
927.525	12665
927.631	12635
927.737	12604
927.843	12506
927.95	12361
928.056	12509
928.162	12563
928.267	12525
928.373	13114
928.479	12555
928.585	12338
928.69	12418
928.796	12429
928.901	12353
929.007	12159
929.112	12369
929.218	12243
929.323	12167
929.428	12239
929.533	12300
929.638	12186
929.743	12136
929.848	12266
929.953	12102
930.058	12121
930.163	11889
930.267	11954
930.372	12064
930.477	11855
930.581	12110
930.685	12019
930.79	11851
930.894	11821
930.998	11786
931.103	11980
931.207	11551
931.311	11455
931.415	11452
931.519	11246
931.623	11166
