Data from test_V78500241_2851.txt Node
Date: Fri Mar 25 16:01:33 CST 2022
User: usil
Spectrometer: V785-0024
Trigger mode: 0
Integration Time (sec): 4.000000E-1
Scans to average: 1
Nonlinearity correction enabled: false
Boxcar width: 0
Storing dark spectrum: false
XAxis mode: Wavelengths
Number of Pixels in Spectrum: 1024
>>>>>Begin Spectral Data<<<<<
801.071	28946
801.214	28927
801.356	28630
801.499	28577
801.641	28481
801.783	28622
801.926	28668
802.068	28535
802.211	28577
802.353	28352
802.496	28322
802.638	28215
802.78	28097
802.923	28063
803.065	28128
803.208	28207
803.35	28287
803.492	28405
803.635	28367
803.777	28314
803.919	28413
804.061	28873
804.204	28630
804.346	28440
804.488	28432
804.63	28386
804.773	28432
804.915	28466
805.057	28607
805.199	28417
805.341	28508
805.483	28698
805.626	28630
805.768	28500
805.91	28675
806.052	28607
806.194	28615
806.336	28938
806.478	28599
806.62	28645
806.762	28828
806.904	28839
807.046	29140
807.188	29083
807.33	29090
807.472	29204
807.614	29128
807.756	29143
807.898	29003
808.04	28930
808.182	28885
808.324	29025
808.465	29044
808.607	29356
808.749	29326
808.891	29448
809.033	29421
809.174	29509
809.316	29353
809.458	29273
809.6	29296
809.741	29326
809.883	29547
810.025	29627
810.166	29611
810.308	29608
810.45	29577
810.591	29490
810.733	29318
810.875	29311
811.016	29212
811.158	29303
811.299	29482
811.441	29543
811.582	29558
811.724	29539
811.865	29299
812.007	29387
812.148	29395
812.29	29402
812.431	29653
812.573	29718
812.714	29851
812.855	29988
812.997	30064
813.138	30133
813.279	30072
813.421	29870
813.562	29882
813.703	29604
813.845	29535
813.986	29288
814.127	29292
814.268	29155
814.41	29197
814.551	29185
814.692	29250
814.833	28953
814.974	28938
815.115	29094
815.256	28919
815.397	28953
815.539	28961
815.68	28919
815.821	28767
815.962	28980
816.103	28927
816.244	28752
816.385	28763
816.526	28649
816.666	28580
816.807	28337
816.948	28386
817.089	28592
817.23	28554
817.371	28451
817.512	28333
817.653	28306
817.793	28322
817.934	28523
818.075	28356
818.216	28478
818.356	28443
818.497	28333
818.638	28116
818.778	28109
818.919	28234
819.06	28261
819.2	28356
819.341	28405
819.481	28436
819.622	28630
819.762	28637
819.903	28645
820.043	28596
820.184	28550
820.324	28584
820.465	28504
820.605	28550
820.746	28516
820.886	28325
821.026	28565
821.167	28733
821.307	28546
821.447	28436
821.588	28310
821.728	28242
821.868	28120
822.008	27914
822.149	27975
822.289	27949
822.429	27595
822.569	27736
822.709	27568
822.849	27412
822.99	27473
823.13	27294
823.27	27272
823.41	27116
823.55	27100
823.69	27226
823.83	27264
823.97	27184
824.11	26990
824.25	26963
824.389	27055
824.529	27150
824.669	27047
824.809	27085
824.949	27249
825.089	27268
825.228	26998
825.368	27051
825.508	26929
825.648	26940
825.787	27017
825.927	26971
826.067	26929
826.206	26883
826.346	27055
826.485	26975
826.625	26921
826.765	27085
826.904	27020
827.044	26689
827.183	26670
827.323	26606
827.462	26602
827.601	26678
827.741	26648
827.88	26708
828.02	26587
828.159	26629
828.298	26724
828.437	26754
828.577	26598
828.716	26693
828.855	26533
828.994	26332
829.134	26275
829.273	26370
829.412	26400
829.551	26381
829.69	26259
829.829	26259
829.968	26514
830.107	26469
830.246	26465
830.385	26328
830.524	26214
830.663	26248
830.802	26077
830.941	26054
831.08	26012
831.219	25986
831.357	25974
831.496	26119
831.635	25940
831.774	25928
831.913	25818
832.051	25811
832.19	25830
832.329	25620
832.467	25791
832.606	25571
832.744	25594
832.883	25502
833.022	25677
833.16	25670
833.299	25662
833.437	25537
833.576	25700
833.714	25647
833.852	25799
833.991	25830
834.129	25921
834.267	25723
834.406	25772
834.544	25632
834.682	25647
834.821	25674
834.959	25921
835.097	25651
835.235	25708
835.373	25647
835.511	25635
835.65	25445
835.788	25620
835.926	25327
836.064	25388
836.202	25346
836.34	25529
836.478	25624
836.615	25335
836.753	25518
836.891	25510
837.029	25518
837.167	25491
837.305	25327
837.443	25346
837.58	25240
837.718	25343
837.856	25312
837.993	25179
838.131	25362
838.269	25194
838.406	25274
838.544	25164
838.681	24894
838.819	24859
838.956	24840
839.094	24920
839.231	24757
839.369	24958
839.506	25114
839.643	25099
839.781	24688
839.918	24757
840.055	24776
840.193	24722
840.33	24707
840.467	24764
840.604	24730
840.742	24958
840.879	24559
841.016	24570
841.153	24429
841.29	24802
841.427	24738
841.564	24559
841.701	24688
841.838	24700
841.975	24616
842.112	24616
842.249	24635
842.385	24502
842.522	24688
842.659	24517
842.796	24323
842.933	24357
843.069	24365
843.206	24258
843.343	24525
843.479	24513
843.616	24330
843.752	24292
843.889	24315
844.025	24346
844.162	24205
844.298	24197
844.435	24266
844.571	24254
844.708	24277
844.844	24361
844.98	24346
845.117	24315
845.253	24076
845.389	24045
845.525	24076
845.661	23889
845.798	23980
845.934	24011
846.07	23908
846.206	23912
846.342	24041
846.478	23992
846.614	23748
846.75	23703
846.886	23668
847.022	23668
847.158	23783
847.294	23642
847.429	23745
847.565	23600
847.701	23916
847.837	23398
847.972	23334
848.108	23539
848.244	23535
848.379	23273
848.515	23223
848.65	23242
848.786	23254
848.921	23258
849.057	23433
849.192	23429
849.328	23372
849.463	23155
849.598	23254
849.734	23124
849.869	23044
850.004	22995
850.14	22908
850.275	22968
850.41	22961
850.545	22866
850.68	23033
850.815	23132
850.95	22968
851.085	23079
851.22	23124
851.355	23014
851.49	23010
851.625	23098
851.76	23052
851.895	22862
852.03	22900
852.165	23018
852.299	23147
852.434	23071
852.569	23037
852.703	23041
852.838	23155
852.973	23098
853.107	23128
853.242	22953
853.376	22938
853.511	22748
853.645	22569
853.78	23003
853.914	22820
854.048	22694
854.183	22828
854.317	22911
854.451	22927
854.585	22828
854.72	22759
854.854	22896
854.988	22774
855.122	22805
855.256	22748
855.39	22797
855.524	22858
855.658	22866
855.792	22831
855.926	22873
856.06	22843
856.194	22885
856.327	22873
856.461	22877
856.595	22858
856.729	22896
856.862	23003
856.996	22858
857.13	23033
857.263	22953
857.397	22957
857.53	22812
857.664	22740
857.797	22923
857.931	22843
858.064	22896
858.197	22889
858.331	22904
858.464	22824
858.597	22588
858.731	22877
858.864	22778
858.997	22835
859.13	22812
859.263	22869
859.396	22854
859.529	22930
859.662	22710
859.795	22816
859.928	22820
860.061	22927
860.194	22976
860.327	22831
860.46	22911
860.592	22908
860.725	23018
860.858	22877
860.99	22835
861.123	22797
861.256	22778
861.388	22793
861.521	23566
861.653	22710
861.786	22710
861.918	22618
862.05	22542
862.183	22771
862.315	22809
862.447	22805
862.58	22664
862.712	22451
862.844	22481
862.976	22668
863.108	22702
863.24	22889
863.372	22478
863.504	22413
863.636	22588
863.768	22672
863.9	22504
864.032	22447
864.164	22409
864.296	22531
864.428	22615
864.559	22607
864.691	22603
864.823	22580
864.954	22588
865.086	22519
865.217	22523
865.349	22318
865.48	22459
865.612	22325
865.743	22474
865.875	22424
866.006	22409
866.137	22489
866.269	22390
866.4	22344
866.531	22242
866.662	22253
866.793	22356
866.924	22474
867.055	22299
867.186	22367
867.317	22352
867.448	22333
867.579	22356
867.71	22173
867.841	22299
867.972	22424
868.103	22234
868.233	22329
868.364	22238
868.495	22470
868.625	22489
868.756	22535
868.886	22493
869.017	22565
869.147	22717
869.278	22790
869.408	22531
869.539	22466
869.669	22679
869.799	22668
869.929	22675
870.06	22637
870.19	22850
870.32	22873
870.45	22892
870.58	23037
870.71	23128
870.84	23071
870.97	23064
871.1	22881
871.23	23174
871.36	23208
871.489	23098
871.619	23124
871.749	23208
871.879	23170
872.008	23322
872.138	23162
872.267	23147
872.397	23037
872.526	22938
872.656	23025
872.785	22972
872.915	23159
873.044	23181
873.173	23246
873.303	23303
873.432	23178
873.561	23212
873.69	23181
873.819	23185
873.948	23334
874.077	23231
874.206	23105
874.335	23204
874.464	23444
874.593	23410
874.722	23444
874.851	23376
874.979	23516
875.108	23566
875.237	23239
875.365	23311
875.494	23486
875.623	23463
875.751	23299
875.88	23429
876.008	23528
876.136	23478
876.265	23794
876.393	23908
876.521	23866
876.65	23885
876.778	23786
876.906	23836
877.034	23707
877.162	23665
877.29	23615
877.418	23752
877.546	23855
877.674	23794
877.802	23840
877.93	23558
878.058	23653
878.185	23657
878.313	23554
878.441	23646
878.568	23642
878.696	23653
878.824	23756
878.951	23710
879.079	23874
879.206	24148
879.333	23828
879.461	23790
879.588	23786
879.715	23882
879.842	23946
879.97	23809
880.097	23646
880.224	23493
880.351	23653
880.478	23604
880.605	23490
880.732	23570
880.859	23809
880.986	23600
881.112	23665
881.239	23398
881.366	23277
881.493	23277
881.619	23086
881.746	23105
881.872	23060
881.999	23029
882.125	23128
882.252	23128
882.378	23056
882.505	23151
882.631	23064
882.757	22805
882.883	22809
883.01	22873
883.136	22831
883.262	22660
883.388	22580
883.514	22763
883.64	22721
883.766	22550
883.892	22436
884.018	22599
884.143	22752
884.269	22805
884.395	22554
884.52	22390
884.646	22405
884.772	22226
884.897	22265
885.023	22512
885.148	22519
885.274	22649
885.399	22565
885.524	22398
885.65	22371
885.775	22557
885.9	22333
886.025	22459
886.15	22554
886.275	22246
886.4	22394
886.525	22337
886.65	22226
886.775	22306
886.9	22478
887.025	22569
887.149	22223
887.274	22143
887.399	22169
887.523	22299
887.648	22128
887.773	22105
887.897	22200
888.021	22223
888.146	21907
888.27	22173
888.395	22299
888.519	22131
888.643	22143
888.767	22230
888.891	22112
889.015	22029
889.139	22158
889.263	21903
889.387	21949
889.511	22169
889.635	22124
889.759	21857
889.883	21857
890.006	21953
890.13	22002
890.254	21960
890.377	21861
890.501	21637
890.624	21690
890.748	21652
890.871	21599
890.995	21469
891.118	21435
891.241	21462
891.364	21660
891.488	21606
891.611	21564
891.734	21416
891.857	21515
891.98	21485
892.103	21652
892.226	21420
892.349	21492
892.471	21310
892.594	21412
892.717	21469
892.839	21431
892.962	21325
893.085	21618
893.207	21485
893.33	21378
893.452	21454
893.575	21382
893.697	21462
893.819	21587
893.941	21682
894.064	21481
894.186	21336
894.308	21317
894.43	21477
894.552	21603
894.674	21439
894.796	21401
894.918	21382
895.04	21279
895.161	21321
895.283	21450
895.405	21374
895.526	21416
895.648	21317
895.769	21382
895.891	21408
896.012	21515
896.134	21428
896.255	21386
896.376	21367
896.498	21393
896.619	21401
896.74	21431
896.861	21473
896.982	21743
897.103	21854
897.224	21690
897.345	21614
897.466	21485
897.587	21549
897.708	21679
897.828	21538
897.949	21507
898.07	21454
898.19	21568
898.311	21526
898.431	21504
898.552	21633
898.672	21682
898.792	21705
898.913	21603
899.033	21405
899.153	21386
899.273	21173
899.393	21317
899.513	21332
899.633	21256
899.753	21237
899.873	21226
899.993	21249
900.113	21161
900.232	21401
900.352	21077
900.472	21089
900.591	21077
900.711	21085
900.83	21043
900.95	21146
901.069	21256
901.189	21043
901.308	20583
901.427	20594
901.546	20598
901.665	20640
901.784	20727
901.904	20465
902.023	20419
902.141	20229
902.26	20214
902.379	20195
902.498	20191
902.617	20149
902.735	20221
902.854	20180
902.973	20012
903.091	19757
903.21	19841
903.328	19837
903.446	19639
903.565	19719
903.683	19643
903.801	19422
903.919	19624
904.038	19483
904.156	19346
904.274	19384
904.392	19403
904.51	19308
904.627	19339
904.745	19392
904.863	19476
904.981	19190
905.098	19034
905.216	19057
905.334	19209
905.451	18962
905.569	18871
905.686	19057
905.803	18920
905.921	18848
906.038	18821
906.155	18810
906.272	18688
906.389	18665
906.506	18506
906.623	18639
906.74	18509
906.857	18479
906.974	18437
907.091	18582
907.208	18582
907.324	18525
907.441	18357
907.557	18262
907.674	18148
907.79	18148
907.907	18190
908.023	18266
908.139	18254
908.256	18262
908.372	18117
908.488	18133
908.604	18003
908.72	17897
908.836	17977
908.952	17893
909.068	17977
909.184	17977
909.3	17965
909.415	17904
909.531	17897
909.647	17733
909.762	17547
909.878	17581
909.993	17608
910.108	17589
910.224	17684
910.339	17573
910.454	17482
910.57	17471
910.685	17398
910.8	17619
910.915	17509
911.03	17425
911.145	17204
911.259	17269
911.374	17216
911.489	17140
911.604	17083
911.718	16938
911.833	16976
911.947	16850
912.062	16763
912.176	16968
912.291	16976
912.405	16949
912.519	17090
912.633	17136
912.748	16881
912.862	16942
912.976	16755
913.09	16611
913.204	16790
913.318	16748
913.431	16725
913.545	16866
913.659	16885
913.772	16763
913.886	16519
914	16508
914.113	16687
914.226	16713
914.34	16653
914.453	16447
914.566	16561
914.68	16455
914.793	16421
914.906	16257
915.019	16048
915.132	16109
915.245	16173
915.358	16135
915.47	16109
915.583	16109
915.696	16166
915.809	16242
915.921	16207
916.034	16048
916.146	16090
916.259	15945
916.371	16109
916.483	16059
916.595	15846
916.708	15915
916.82	15903
916.932	15838
917.044	15911
917.156	15873
917.268	15713
917.38	15751
917.491	15766
917.603	15660
917.715	15945
917.826	15827
917.938	15713
918.049	15542
918.161	15732
918.272	15850
918.384	15789
918.495	15610
918.606	15485
918.717	15485
918.828	15473
918.939	15637
919.05	15287
919.161	15412
919.272	15222
919.383	15233
919.494	15511
919.604	15652
919.715	15450
919.826	15336
919.936	15492
920.047	15469
920.157	15355
920.267	15595
920.378	15500
920.488	15359
920.598	15606
920.708	15797
920.818	15477
920.928	15553
921.038	15751
921.148	15694
921.258	15412
921.368	15264
921.477	15146
921.587	15165
921.697	15017
921.806	15074
921.916	15024
922.025	14781
922.134	14830
922.244	14678
922.353	14735
922.462	14701
922.571	14514
922.68	14385
922.789	14450
922.898	14381
923.007	14412
923.116	14450
923.224	14415
923.333	14396
923.442	14214
923.55	14237
923.659	14237
923.767	14343
923.876	14180
923.984	14187
924.092	14088
924.201	14161
924.309	14039
924.417	14199
924.525	14005
924.633	13841
924.741	14990
924.849	13909
924.956	13940
925.064	13788
925.172	13738
925.279	13757
925.387	13811
925.494	13753
925.602	13925
925.709	13811
925.816	13708
925.924	13780
926.031	13795
926.138	13620
926.245	13715
926.352	13582
926.459	13833
926.566	13723
926.673	13677
926.779	13426
926.886	13449
926.993	13407
927.099	13373
927.206	13293
927.312	13297
927.419	13373
927.525	13289
927.631	13335
927.737	13187
927.843	13076
927.95	13004
928.056	13156
928.162	13190
928.267	13088
928.373	13674
928.479	13137
928.585	12886
928.69	13023
928.796	13091
928.901	12996
929.007	12875
929.112	12962
929.218	12935
929.323	12871
929.428	12787
929.533	12935
929.638	12768
929.743	12791
929.848	12837
929.953	12726
930.058	12719
930.163	12426
930.267	12509
930.372	12681
930.477	12532
930.581	12650
930.685	12471
930.79	12426
930.894	12399
930.998	12228
931.103	12471
931.207	12098
931.311	12019
931.415	11977
931.519	11672
931.623	11672
