Data from test_V78500241_3030.txt Node
Date: Fri Mar 25 16:02:47 CST 2022
User: usil
Spectrometer: V785-0024
Trigger mode: 0
Integration Time (sec): 4.000000E-1
Scans to average: 1
Nonlinearity correction enabled: false
Boxcar width: 0
Storing dark spectrum: false
XAxis mode: Wavelengths
Number of Pixels in Spectrum: 1024
>>>>>Begin Spectral Data<<<<<
801.071	28626
801.214	28683
801.356	28519
801.499	28401
801.641	28291
801.783	28284
801.926	28447
802.068	28322
802.211	28116
802.353	28204
802.496	28074
802.638	28101
802.78	27975
802.923	27987
803.065	27823
803.208	27972
803.35	27880
803.492	28219
803.635	28169
803.777	27998
803.919	28306
804.061	28546
804.204	28341
804.346	28154
804.488	28120
804.63	28287
804.773	28265
804.915	28344
805.057	28398
805.199	28325
805.341	28360
805.483	28394
805.626	28405
805.768	28329
805.91	28382
806.052	28512
806.194	28230
806.336	28508
806.478	28443
806.62	28268
806.762	28603
806.904	28740
807.046	29003
807.188	28820
807.33	28953
807.472	28930
807.614	28767
807.756	28809
807.898	28721
808.04	28603
808.182	28668
808.324	28801
808.465	28839
808.607	28923
808.749	29208
808.891	29178
809.033	29318
809.174	29136
809.316	29083
809.458	29181
809.6	29102
809.741	29223
809.883	29189
810.025	29265
810.166	29269
810.308	29360
810.45	29334
810.591	29387
810.733	29197
810.875	29151
811.016	28999
811.158	28999
811.299	29162
811.441	29353
811.582	29231
811.724	29029
811.865	29029
812.007	29124
812.148	29151
812.29	29056
812.431	29414
812.573	29566
812.714	29547
812.855	29589
812.997	29630
813.138	29999
813.279	29714
813.421	29638
813.562	29676
813.703	29414
813.845	29368
813.986	29056
814.127	28831
814.268	28896
814.41	28866
814.551	28664
814.692	28843
814.833	28691
814.974	28755
815.115	28862
815.256	28725
815.397	28774
815.539	28672
815.68	28634
815.821	28443
815.962	28599
816.103	28713
816.244	28542
816.385	28405
816.526	28257
816.666	28196
816.807	28093
816.948	28322
817.089	28299
817.23	28265
817.371	28112
817.512	28173
817.653	28154
817.793	28055
817.934	28105
818.075	28097
818.216	28097
818.356	28147
818.497	28006
818.638	27865
818.778	27892
818.919	27869
819.06	28013
819.2	27960
819.341	28010
819.481	28120
819.622	28436
819.762	28569
819.903	28318
820.043	28337
820.184	28211
820.324	28226
820.465	28508
820.605	28303
820.746	28280
820.886	28169
821.026	28318
821.167	28154
821.307	28246
821.447	28287
821.588	28032
821.728	27953
821.868	27682
822.008	27656
822.149	27557
822.289	27667
822.429	27237
822.569	27370
822.709	27237
822.849	27157
822.99	27112
823.13	27024
823.27	27058
823.41	27081
823.55	26979
823.69	27013
823.83	26940
823.97	26800
824.11	26754
824.25	26785
824.389	26769
824.529	26800
824.669	26712
824.809	26804
824.949	26948
825.089	26872
825.228	26895
825.368	26609
825.508	26701
825.648	26530
825.787	26659
825.927	26743
826.067	26587
826.206	26697
826.346	26674
826.485	26678
826.625	26758
826.765	26796
826.904	26594
827.044	26587
827.183	26377
827.323	26286
827.462	26377
827.601	26465
827.741	26324
827.88	26404
828.02	26298
828.159	26355
828.298	26404
828.437	26480
828.577	26278
828.716	26503
828.855	26267
828.994	26077
829.134	26077
829.273	26115
829.412	26005
829.551	25951
829.69	26012
829.829	26164
829.968	26176
830.107	26081
830.246	26149
830.385	25909
830.524	25928
830.663	25951
830.802	25769
830.941	25795
831.08	25624
831.219	25715
831.357	25693
831.496	25940
831.635	25666
831.774	25639
831.913	25533
832.051	25544
832.19	25491
832.329	25499
832.467	25430
832.606	25346
832.744	25164
832.883	25209
833.022	25247
833.16	25358
833.299	25411
833.437	25304
833.576	25285
833.714	25415
833.852	25392
833.991	25514
834.129	25403
834.267	25377
834.406	25445
834.544	25559
834.682	25388
834.821	25358
834.959	25772
835.097	25365
835.235	25354
835.373	25331
835.511	25381
835.65	25263
835.788	25175
835.926	25042
836.064	25065
836.202	25027
836.34	25259
836.478	25293
836.615	25221
836.753	25225
836.891	25282
837.029	25316
837.167	25175
837.305	25247
837.443	25080
837.58	25000
837.718	25133
837.856	25141
837.993	24970
838.131	24977
838.269	24954
838.406	24935
838.544	24730
838.681	24684
838.819	24745
838.956	24479
839.094	24616
839.231	24570
839.369	24692
839.506	24905
839.643	24749
839.781	24479
839.918	24414
840.055	24433
840.193	24483
840.33	24365
840.467	24525
840.604	24422
840.742	24684
840.879	24289
841.016	24350
841.153	24384
841.29	24494
841.427	24372
841.564	24448
841.701	24460
841.838	24441
841.975	24369
842.112	24357
842.249	24144
842.385	24239
842.522	24384
842.659	24388
842.796	24133
842.933	24292
843.069	24117
843.206	24114
843.343	24407
843.479	24300
843.616	24205
843.752	23992
843.889	24003
844.025	24057
844.162	23931
844.298	24022
844.435	23958
844.571	23882
844.708	23935
844.844	24072
844.98	24110
845.117	23984
845.253	23965
845.389	23809
845.525	23786
845.661	23737
845.798	23718
845.934	23657
846.07	23596
846.206	23752
846.342	23843
846.478	23623
846.614	23353
846.75	23414
846.886	23345
847.022	23448
847.158	23383
847.294	23455
847.429	23391
847.565	23261
847.701	23570
847.837	23147
847.972	23037
848.108	23216
848.244	23117
848.379	23022
848.515	23003
848.65	23086
848.786	23083
848.921	23086
849.057	23250
849.192	23048
849.328	22953
849.463	23071
849.598	22908
849.734	22927
849.869	22862
850.004	22801
850.14	22820
850.275	22736
850.41	22740
850.545	22710
850.68	22580
850.815	22839
850.95	22660
851.085	22831
851.22	22866
851.355	22767
851.49	22664
851.625	22721
851.76	22786
851.895	22653
852.03	22706
852.165	22698
852.299	22812
852.434	22820
852.569	22759
852.703	22664
852.838	22790
852.973	22904
853.107	22873
853.242	22664
853.376	22592
853.511	22447
853.645	22573
853.78	22717
853.914	22668
854.048	22523
854.183	22546
854.317	22580
854.451	22809
854.585	22550
854.72	22596
854.854	22611
854.988	22645
855.122	22649
855.256	22443
855.39	22577
855.524	22615
855.658	22698
855.792	22649
855.926	22546
856.06	22660
856.194	22656
856.327	22607
856.461	22565
856.595	22580
856.729	22455
856.862	22580
856.996	22626
857.13	22672
857.263	22706
857.397	22641
857.53	22592
857.664	22599
857.797	22653
857.931	22626
858.064	22622
858.197	22622
858.331	22516
858.464	22554
858.597	22382
858.731	22557
858.864	22668
858.997	22577
859.13	22561
859.263	22519
859.396	22565
859.529	22550
859.662	22516
859.795	22561
859.928	22481
860.061	22790
860.194	22774
860.327	22641
860.46	22664
860.592	22687
860.725	22820
860.858	22755
860.99	22672
861.123	22493
861.256	22466
861.388	22653
861.521	23379
861.653	22405
861.786	22371
861.918	22363
862.05	22417
862.183	22546
862.315	22523
862.447	22618
862.58	22455
862.712	22276
862.844	22322
862.976	22459
863.108	22356
863.24	22626
863.372	22143
863.504	22276
863.636	22310
863.768	22280
863.9	22329
864.032	22181
864.164	22158
864.296	22322
864.428	22500
864.559	22409
864.691	22455
864.823	22215
864.954	22230
865.086	22280
865.217	22215
865.349	22154
865.48	22188
865.612	22196
865.743	22238
865.875	22131
866.006	22234
866.137	22207
866.269	22128
866.4	22192
866.531	22147
866.662	22101
866.793	22112
866.924	22032
867.055	22135
867.186	22059
867.317	21979
867.448	22124
867.579	22051
867.71	21895
867.841	22063
867.972	22131
868.103	22090
868.233	22219
868.364	22299
868.495	22253
868.625	22204
868.756	22402
868.886	22185
869.017	22299
869.147	22432
869.278	22390
869.408	22238
869.539	22360
869.669	22417
869.799	22451
869.929	22421
870.06	22402
870.19	22611
870.32	22656
870.45	22752
870.58	22664
870.71	22691
870.84	22820
870.97	22736
871.1	22839
871.23	22858
871.36	22968
871.489	22782
871.619	22900
871.749	22824
871.879	22976
872.008	23090
872.138	22938
872.267	22854
872.397	22824
872.526	22843
872.656	22831
872.785	22744
872.915	23018
873.044	23018
873.173	23079
873.303	23071
873.432	23090
873.561	23083
873.69	22991
873.819	22961
873.948	23044
874.077	23048
874.206	23067
874.335	22866
874.464	22965
874.593	23174
874.722	23117
874.851	23174
874.979	23231
875.108	23254
875.237	23052
875.365	23079
875.494	23086
875.623	23090
875.751	23090
875.88	23075
876.008	23440
876.136	23261
876.265	23490
876.393	23687
876.521	23684
876.65	23741
876.778	23661
876.906	23436
877.034	23501
877.162	23482
877.29	23459
877.418	23482
877.546	23497
877.674	23493
877.802	23429
877.93	23585
878.058	23551
878.185	23315
878.313	23501
878.441	23528
878.568	23345
878.696	23421
878.824	23577
878.951	23520
879.079	23589
879.206	23779
879.333	23581
879.461	23646
879.588	23573
879.715	23608
879.842	23813
879.97	23615
880.097	23307
880.224	23414
880.351	23193
880.478	23337
880.605	23181
880.732	23341
880.859	23433
880.986	23296
881.112	23410
881.239	23204
881.366	23014
881.493	22961
881.619	22900
881.746	22980
881.872	22965
881.999	22995
882.125	22767
882.252	22896
882.378	22900
882.505	22896
882.631	22740
882.757	22546
882.883	22641
883.01	22653
883.136	22451
883.262	22363
883.388	22405
883.514	22599
883.64	22565
883.766	22360
883.892	22265
884.018	22291
884.143	22500
884.269	22672
884.395	22280
884.52	22169
884.646	22238
884.772	22333
884.897	21945
885.023	22226
885.148	22253
885.274	22253
885.399	22234
885.524	22192
885.65	22257
885.775	22287
885.9	22044
886.025	22276
886.15	22310
886.275	22173
886.4	22097
886.525	22173
886.65	22029
886.775	22188
886.9	22360
887.025	22295
887.149	22078
887.274	21975
887.399	21979
887.523	21994
887.648	21926
887.773	21895
887.897	22086
888.021	22017
888.146	21907
888.27	22055
888.395	22109
888.519	21956
888.643	21930
888.767	21827
888.891	21869
889.015	21759
889.139	21831
889.263	21713
889.387	22044
889.511	21991
889.635	21827
889.759	21739
889.883	21641
890.006	21751
890.13	21812
890.254	21599
890.377	21736
890.501	21564
890.624	21431
890.748	21568
890.871	21336
890.995	21203
891.118	21272
891.241	21310
891.364	21264
891.488	21424
891.611	21298
891.734	21283
891.857	21313
891.98	21256
892.103	21351
892.226	21317
892.349	21100
892.471	21051
892.594	21051
892.717	21230
892.839	21275
892.962	21192
893.085	21310
893.207	21218
893.33	20971
893.452	21138
893.575	21154
893.697	21154
893.819	21382
893.941	21469
894.064	21264
894.186	21146
894.308	21142
894.43	21313
894.552	21367
894.674	21188
894.796	21093
894.918	21112
895.04	21203
895.161	21298
895.283	21287
895.405	21154
895.526	21070
895.648	21268
895.769	21070
895.891	21291
896.012	21184
896.134	21142
896.255	21192
896.376	21142
896.498	21093
896.619	21150
896.74	21116
896.861	21214
896.982	21519
897.103	21515
897.224	21336
897.345	21367
897.466	21348
897.587	21393
897.708	21431
897.828	21466
897.949	21252
898.07	21321
898.19	21272
898.311	21351
898.431	21233
898.552	21260
898.672	21382
898.792	21458
898.913	21211
899.033	21165
899.153	21104
899.273	21077
899.393	21062
899.513	21180
899.633	21070
899.753	21146
899.873	21062
899.993	21123
900.113	21028
900.232	21055
900.352	20872
900.472	20834
900.591	20788
900.711	20800
900.83	20796
900.95	20910
901.069	20929
901.189	20746
901.308	20651
901.427	20381
901.546	20408
901.665	20336
901.784	20431
901.904	20263
902.023	20168
902.141	20031
902.26	19917
902.379	20039
902.498	19940
902.617	19959
902.735	19982
902.854	19951
902.973	19788
903.091	19689
903.21	19533
903.328	19518
903.446	19533
903.565	19453
903.683	19377
903.801	19221
903.919	19316
904.038	19263
904.156	19080
904.274	19183
904.392	19137
904.51	19114
904.627	19148
904.745	19175
904.863	19179
904.981	18833
905.098	18791
905.216	18757
905.334	18932
905.451	18776
905.569	18753
905.686	18810
905.803	18707
905.921	18585
906.038	18734
906.155	18593
906.272	18490
906.389	18369
906.506	18403
906.623	18380
906.74	18277
906.857	18273
906.974	18197
907.091	18281
907.208	18384
907.324	18323
907.441	18311
907.557	18087
907.674	17973
907.79	18102
907.907	18003
908.023	18114
908.139	17999
908.256	17969
908.372	17954
908.488	17935
908.604	17783
908.72	17562
908.836	17764
908.952	17745
909.068	17802
909.184	17741
909.3	17756
909.415	17745
909.531	17615
909.647	17478
909.762	17474
909.878	17414
909.993	17520
910.108	17387
910.224	17391
910.339	17296
910.454	17337
910.57	17185
910.685	17128
910.8	17433
910.915	17421
911.03	17242
911.145	17010
911.259	16949
911.374	16991
911.489	16976
911.604	16892
911.718	16786
911.833	16771
911.947	16664
912.062	16584
912.176	16801
912.291	16759
912.405	16778
912.519	16995
912.633	16946
912.748	16820
912.862	16702
912.976	16580
913.09	16478
913.204	16580
913.318	16542
913.431	16691
913.545	16622
913.659	16672
913.772	16466
913.886	16474
914	16367
914.113	16466
914.226	16428
914.34	16466
914.453	16242
914.566	16447
914.68	16257
914.793	16162
914.906	16063
915.019	15998
915.132	15781
915.245	15934
915.358	15983
915.47	16002
915.583	15918
915.696	16021
915.809	16097
915.921	15949
916.034	15949
916.146	15789
916.259	15728
916.371	15930
916.483	15861
916.595	15819
916.708	15686
916.82	15781
916.932	15739
917.044	15774
917.156	15675
917.268	15663
917.38	15488
917.491	15507
917.603	15614
917.715	15648
917.826	15641
917.938	15477
918.049	15351
918.161	15500
918.272	15622
918.384	15656
918.495	15439
918.606	15272
918.717	15287
918.828	15348
918.939	15233
919.05	15199
919.161	15150
919.272	15066
919.383	15176
919.494	15325
919.604	15466
919.715	15195
919.826	15180
919.936	15275
920.047	15268
920.157	15211
920.267	15386
920.378	15176
920.488	15207
920.598	15386
920.708	15633
920.818	15428
920.928	15412
921.038	15511
921.148	15519
921.258	15195
921.368	15154
921.477	14982
921.587	14975
921.697	14918
921.806	14864
921.916	14785
922.025	14632
922.134	14590
922.244	14598
922.353	14617
922.462	14469
922.571	14374
922.68	14343
922.789	14351
922.898	14202
923.007	14237
923.116	14267
923.224	14282
923.333	14100
923.442	14164
923.55	14046
923.659	14073
923.767	14088
923.876	14050
923.984	14123
924.092	13902
924.201	14043
924.309	13997
924.417	14020
924.525	13921
924.633	13822
924.741	14655
924.849	13757
924.956	13909
925.064	13738
925.172	13597
925.279	13620
925.387	13616
925.494	13677
925.602	13750
925.709	13677
925.816	13506
925.924	13563
926.031	13586
926.138	13533
926.245	13525
926.352	13445
926.459	13696
926.566	13624
926.673	13419
926.779	13247
926.886	13308
926.993	13171
927.099	13213
927.206	13091
927.312	13110
927.419	13091
927.525	13145
927.631	13206
927.737	13004
927.843	13015
927.95	12878
928.056	13027
928.162	12970
928.267	12935
928.373	13571
928.479	13027
928.585	12741
928.69	12905
928.796	12928
928.901	12871
929.007	12662
929.112	12764
929.218	12749
929.323	12665
929.428	12749
929.533	12768
929.638	12517
929.743	12559
929.848	12681
929.953	12646
930.058	12403
930.163	12247
930.267	12315
930.372	12513
930.477	12315
930.581	12532
930.685	12346
930.79	12232
930.894	12281
930.998	12155
931.103	12414
931.207	11965
931.311	11798
931.415	11767
931.519	11543
931.623	11554
