Data from test_V78500241_1514.txt Node
Date: Fri Mar 25 15:52:17 CST 2022
User: usil
Spectrometer: V785-0024
Trigger mode: 0
Integration Time (sec): 4.000000E-1
Scans to average: 1
Nonlinearity correction enabled: false
Boxcar width: 0
Storing dark spectrum: false
XAxis mode: Wavelengths
Number of Pixels in Spectrum: 1024
>>>>>Begin Spectral Data<<<<<
801.071	28048
801.214	27991
801.356	27831
801.499	27865
801.641	27576
801.783	27709
801.926	27793
802.068	27701
802.211	27625
802.353	27545
802.496	27306
802.638	27389
802.78	27283
802.923	27294
803.065	27329
803.208	27260
803.35	27283
803.492	27340
803.635	27568
803.777	27492
803.919	27397
804.061	27892
804.204	27648
804.346	27336
804.488	27466
804.63	27443
804.773	27507
804.915	27587
805.057	27610
805.199	27580
805.341	27545
805.483	27857
805.626	27713
805.768	27553
805.91	27766
806.052	27762
806.194	27580
806.336	27888
806.478	27857
806.62	27724
806.762	27861
806.904	27949
807.046	28200
807.188	28135
807.33	28200
807.472	28188
807.614	28044
807.756	28055
807.898	27937
808.04	28055
808.182	27949
808.324	28078
808.465	27983
808.607	28196
808.749	28356
808.891	28493
809.033	28466
809.174	28417
809.316	28367
809.458	28325
809.6	28360
809.741	28481
809.883	28596
810.025	28630
810.166	28687
810.308	28531
810.45	28599
810.591	28607
810.733	28424
810.875	28325
811.016	28158
811.158	28375
811.299	28554
811.441	28542
811.582	28675
811.724	28447
811.865	28329
812.007	28306
812.148	28337
812.29	28462
812.431	28497
812.573	28733
812.714	28683
812.855	28771
812.997	28866
813.138	29071
813.279	29037
813.421	28873
813.562	28858
813.703	28653
813.845	28592
813.986	28371
814.127	28196
814.268	28139
814.41	28040
814.551	28166
814.692	28147
814.833	27972
814.974	27892
815.115	28135
815.256	27975
815.397	27876
815.539	27987
815.68	27865
815.821	27709
815.962	27739
816.103	27838
816.244	27831
816.385	27633
816.526	27675
816.666	27412
816.807	27294
816.948	27469
817.089	27382
817.23	27450
817.371	27294
817.512	27363
817.653	27294
817.793	27233
817.934	27469
818.075	27344
818.216	27329
818.356	27321
818.497	27195
818.638	27112
818.778	27252
818.919	27093
819.06	27218
819.2	27374
819.341	27298
819.481	27252
819.622	27469
819.762	27606
819.903	27542
820.043	27500
820.184	27492
820.324	27481
820.465	27431
820.605	27507
820.746	27496
820.886	27378
821.026	27496
821.167	27511
821.307	27587
821.447	27435
821.588	27264
821.728	27157
821.868	26906
822.008	26777
822.149	26849
822.289	26746
822.429	26427
822.569	26663
822.709	26374
822.849	26370
822.99	26336
823.13	26294
823.27	26256
823.41	26039
823.55	26012
823.69	26271
823.83	26107
823.97	26187
824.11	26012
824.25	25841
824.389	26046
824.529	25986
824.669	26115
824.809	26221
824.949	26092
825.089	26183
825.228	26065
825.368	25780
825.508	25750
825.648	25833
825.787	25917
825.927	25944
826.067	25883
826.206	25894
826.346	25982
826.485	26001
826.625	25917
826.765	25951
826.904	25890
827.044	25677
827.183	25559
827.323	25533
827.462	25620
827.601	25609
827.741	25613
827.88	25609
828.02	25533
828.159	25643
828.298	25575
828.437	25514
828.577	25548
828.716	25632
828.855	25430
828.994	25358
829.134	25274
829.273	25312
829.412	25308
829.551	25304
829.69	25164
829.829	25282
829.968	25422
830.107	25419
830.246	25240
830.385	25247
830.524	25114
830.663	25031
830.802	25072
830.941	25015
831.08	24863
831.219	24935
831.357	25015
831.496	25251
831.635	24817
831.774	24760
831.913	24806
832.051	24726
832.19	24642
832.329	24593
832.467	24661
832.606	24502
832.744	24585
832.883	24566
833.022	24585
833.16	24521
833.299	24608
833.437	24551
833.576	24635
833.714	24681
833.852	24593
833.991	24536
834.129	24722
834.267	24726
834.406	24616
834.544	24688
834.682	24540
834.821	24509
834.959	24673
835.097	24658
835.235	24650
835.373	24692
835.511	24574
835.65	24544
835.788	24452
835.926	24372
836.064	24216
836.202	24308
836.34	24464
836.478	24585
836.615	24342
836.753	24479
836.891	24445
837.029	24467
837.167	24357
837.305	24410
837.443	24342
837.58	24334
837.718	24258
837.856	24350
837.993	24239
838.131	24232
838.269	24178
838.406	24376
838.544	24011
838.681	23931
838.819	23912
838.956	23775
839.094	23726
839.231	23783
839.369	23946
839.506	24034
839.643	23939
839.781	23893
839.918	23718
840.055	23802
840.193	23733
840.33	23592
840.467	23695
840.604	23676
840.742	23920
840.879	23566
841.016	23687
841.153	23539
841.29	23733
841.427	23695
841.564	23657
841.701	23672
841.838	23596
841.975	23505
842.112	23528
842.249	23581
842.385	23410
842.522	23687
842.659	23452
842.796	23322
842.933	23459
843.069	23280
843.206	23429
843.343	23486
843.479	23349
843.616	23356
843.752	23239
843.889	23223
844.025	23421
844.162	23098
844.298	23220
844.435	23212
844.571	23155
844.708	23155
844.844	23261
844.98	23356
845.117	23440
845.253	23079
845.389	23041
845.525	23022
845.661	23083
845.798	22927
845.934	22892
846.07	23010
846.206	23067
846.342	23029
846.478	22858
846.614	22717
846.75	22508
846.886	22675
847.022	22767
847.158	22641
847.294	22721
847.429	22660
847.565	22687
847.701	22881
847.837	22341
847.972	22375
848.108	22341
848.244	22447
848.379	22390
848.515	22238
848.65	22257
848.786	22299
848.921	22219
849.057	22360
849.192	22352
849.328	22207
849.463	22299
849.598	22234
849.734	22070
849.869	22124
850.004	22082
850.14	22044
850.275	22048
850.41	21994
850.545	21987
850.68	22097
850.815	21964
850.95	22036
851.085	22318
851.22	22158
851.355	22025
851.49	21888
851.625	22006
851.76	21979
851.895	21880
852.03	21975
852.165	22002
852.299	22017
852.434	22105
852.569	22032
852.703	22048
852.838	22013
852.973	22131
853.107	22185
853.242	21926
853.376	21816
853.511	21747
853.645	21827
853.78	21953
853.914	21888
854.048	21766
854.183	21838
854.317	21915
854.451	22044
854.585	21781
854.72	21804
854.854	21884
854.988	21861
855.122	21804
855.256	21698
855.39	21743
855.524	21903
855.658	21888
855.792	21800
855.926	21793
856.06	21876
856.194	21968
856.327	21770
856.461	21759
856.595	21789
856.729	21895
856.862	21960
856.996	21793
857.13	21781
857.263	21941
857.397	21880
857.53	21652
857.664	21846
857.797	21876
857.931	21895
858.064	21991
858.197	21838
858.331	21781
858.464	21755
858.597	21644
858.731	21808
858.864	21736
858.997	21846
859.13	21838
859.263	21747
859.396	21895
859.529	21857
859.662	21873
859.795	21774
859.928	21781
860.061	21991
860.194	22082
860.327	21884
860.46	21759
860.592	21994
860.725	22017
860.858	22013
860.99	21728
861.123	21774
861.256	21759
861.388	21857
861.521	22379
861.653	21747
861.786	21591
861.918	21732
862.05	21720
862.183	21793
862.315	21713
862.447	21816
862.58	21812
862.712	21564
862.844	21534
862.976	21728
863.108	21625
863.24	22032
863.372	21466
863.504	21511
863.636	21507
863.768	21511
863.9	21564
864.032	21500
864.164	21507
864.296	21526
864.428	21675
864.559	21656
864.691	21663
864.823	21561
864.954	21618
865.086	21538
865.217	21431
865.349	21431
865.48	21412
865.612	21408
865.743	21519
865.875	21412
866.006	21332
866.137	21401
866.269	21542
866.4	21412
866.531	21389
866.662	21355
866.793	21321
866.924	21351
867.055	21397
867.186	21355
867.317	21420
867.448	21317
867.579	21294
867.71	21211
867.841	21222
867.972	21302
868.103	21397
868.233	21252
868.364	21477
868.495	21435
868.625	21515
868.756	21743
868.886	21458
869.017	21458
869.147	21633
869.278	21625
869.408	21603
869.539	21648
869.669	21606
869.799	21701
869.929	21667
870.06	21713
870.19	21876
870.32	21926
870.45	21945
870.58	21937
870.71	22200
870.84	22029
870.97	22070
871.1	22006
871.23	22196
871.36	22181
871.489	22093
871.619	22143
871.749	22192
871.879	22211
872.008	22344
872.138	22249
872.267	22200
872.397	22059
872.526	21960
872.656	22147
872.785	22078
872.915	22211
873.044	22162
873.173	22204
873.303	22242
873.432	22318
873.561	22253
873.69	22249
873.819	22253
873.948	22204
874.077	22257
874.206	22147
874.335	22341
874.464	22333
874.593	22363
874.722	22424
874.851	22447
874.979	22500
875.108	22500
875.237	22409
875.365	22322
875.494	22451
875.623	22485
875.751	22500
875.88	22474
876.008	22508
876.136	22531
876.265	22961
876.393	23014
876.521	22828
876.65	22927
876.778	22839
876.906	22793
877.034	22793
877.162	22675
877.29	22710
877.418	22854
877.546	22824
877.674	22771
877.802	22805
877.93	22816
878.058	22790
878.185	22653
878.313	22611
878.441	22637
878.568	22531
878.696	22622
878.824	22782
878.951	22961
879.079	23029
879.206	23029
879.333	22873
879.461	22797
879.588	22854
879.715	22850
879.842	22976
879.97	22744
880.097	22664
880.224	22603
880.351	22687
880.478	22569
880.605	22546
880.732	22538
880.859	22820
880.986	22603
881.112	22683
881.239	22451
881.366	22322
881.493	22333
881.619	22188
881.746	22223
881.872	22158
881.999	22150
882.125	22074
882.252	22226
882.378	22135
882.505	22204
882.631	22147
882.757	21816
882.883	21949
883.01	21838
883.136	21869
883.262	21728
883.388	21637
883.514	21831
883.64	21930
883.766	21850
883.892	21595
884.018	21778
884.143	21770
884.269	21865
884.395	21526
884.52	21473
884.646	21580
884.772	21389
884.897	21428
885.023	21511
885.148	21679
885.274	21568
885.399	21576
885.524	21526
885.65	21481
885.775	21500
885.9	21534
886.025	21553
886.15	21614
886.275	21370
886.4	21393
886.525	21424
886.65	21538
886.775	21367
886.9	21545
887.025	21648
887.149	21359
887.274	21249
887.399	21165
887.523	21298
887.648	21370
887.773	21161
887.897	21329
888.021	21252
888.146	21203
888.27	21317
888.395	21378
888.519	21237
888.643	21275
888.767	21321
888.891	21032
889.015	21013
889.139	21058
889.263	21066
889.387	21188
889.511	21363
889.635	21169
889.759	21047
889.883	20967
890.006	20948
890.13	21047
890.254	20990
890.377	21028
890.501	20739
890.624	20807
890.748	20906
890.871	20636
890.995	20606
891.118	20488
891.241	20678
891.364	20617
891.488	20602
891.611	20621
891.734	20765
891.857	20663
891.98	20644
892.103	20720
892.226	20556
892.349	20503
892.471	20461
892.594	20488
892.717	20549
892.839	20583
892.962	20533
893.085	20625
893.207	20571
893.33	20446
893.452	20404
893.575	20503
893.697	20526
893.819	20636
893.941	20693
894.064	20678
894.186	20473
894.308	20457
894.43	20533
894.552	20693
894.674	20564
894.796	20495
894.918	20549
895.04	20575
895.161	20640
895.283	20583
895.405	20412
895.526	20632
895.648	20465
895.769	20514
895.891	20568
896.012	20594
896.134	20537
896.255	20454
896.376	20446
896.498	20415
896.619	20507
896.74	20530
896.861	20431
896.982	20842
897.103	20891
897.224	20864
897.345	20781
897.466	20648
897.587	20826
897.708	20842
897.828	20788
897.949	20682
898.07	20575
898.19	20617
898.311	20773
898.431	20796
898.552	20659
898.672	20724
898.792	20819
898.913	20762
899.033	20720
899.153	20427
899.273	20385
899.393	20370
899.513	20488
899.633	20556
899.753	20438
899.873	20408
899.993	20469
900.113	20476
900.232	20294
900.352	20309
900.472	20309
900.591	20214
900.711	20214
900.83	20259
900.95	20290
901.069	20210
901.189	20073
901.308	19982
901.427	19917
901.546	19833
901.665	19830
901.784	19875
901.904	19582
902.023	19556
902.141	19506
902.26	19396
902.379	19434
902.498	19358
902.617	19274
902.735	19301
902.854	19327
902.973	19187
903.091	19015
903.21	19099
903.328	19000
903.446	18928
903.565	18768
903.683	18783
903.801	18741
903.919	18738
904.038	18650
904.156	18563
904.274	18650
904.392	18563
904.51	18502
904.627	18585
904.745	18563
904.863	18677
904.981	18353
905.098	18266
905.216	18209
905.334	18292
905.451	18091
905.569	18247
905.686	18228
905.803	18262
905.921	17942
906.038	18110
906.155	18011
906.272	17969
906.389	17889
906.506	17863
906.623	17726
906.74	17707
906.857	17623
906.974	17600
907.091	17809
907.208	17931
907.324	17760
907.441	17634
907.557	17482
907.674	17535
907.79	17398
907.907	17436
908.023	17528
908.139	17406
908.256	17376
908.372	17395
908.488	17417
908.604	17147
908.72	17200
908.836	17174
908.952	17216
909.068	17204
909.184	17204
909.3	17136
909.415	17147
909.531	17132
909.647	16911
909.762	16881
909.878	16892
909.993	16934
910.108	16889
910.224	16816
910.339	16831
910.454	16744
910.57	16672
910.685	16668
910.8	16995
910.915	16854
911.03	16603
911.145	16596
911.259	16421
911.374	16462
911.489	16287
911.604	16329
911.718	16310
911.833	16268
911.947	16032
912.062	16131
912.176	16257
912.291	16234
912.405	16284
912.519	16440
912.633	16421
912.748	16268
912.862	16143
912.976	16048
913.09	15819
913.204	15926
913.318	16017
913.431	16177
913.545	16120
913.659	16181
913.772	15941
913.886	15941
914	15804
914.113	15876
914.226	16017
914.34	15941
914.453	15652
914.566	15838
914.68	15724
914.793	15759
914.906	15504
915.019	15469
915.132	15393
915.245	15443
915.358	15431
915.47	15462
915.583	15367
915.696	15447
915.809	15477
915.921	15458
916.034	15344
916.146	15363
916.259	15230
916.371	15458
916.483	15416
916.595	15268
916.708	15264
916.82	15119
916.932	15298
917.044	15233
917.156	15116
917.268	15066
917.38	15009
917.491	15028
917.603	14933
917.715	14975
917.826	15154
917.938	14956
918.049	14967
918.161	15036
918.272	15188
918.384	15199
918.495	15001
918.606	14823
918.717	14800
918.828	14929
918.939	14826
919.05	14701
919.161	14792
919.272	14686
919.383	14659
919.494	14921
919.604	14994
919.715	14819
919.826	14708
919.936	14705
920.047	14819
920.157	14819
920.267	14941
920.378	14689
920.488	14762
920.598	14960
920.708	15043
920.818	14880
920.928	14887
921.038	15047
921.148	15055
921.258	14724
921.368	14644
921.477	14598
921.587	14480
921.697	14313
921.806	14492
921.916	14324
922.025	14206
922.134	14271
922.244	14161
922.353	14237
922.462	14027
922.571	13982
922.68	13776
922.789	13814
922.898	13833
923.007	13769
923.116	13784
923.224	13727
923.333	13677
923.442	13559
923.55	13636
923.659	13704
923.767	13666
923.876	13632
923.984	13677
924.092	13464
924.201	13537
924.309	13499
924.417	13510
924.525	13396
924.633	13388
924.741	14290
924.849	13270
924.956	13415
925.064	13285
925.172	13152
925.279	13160
925.387	13190
925.494	13244
925.602	13198
925.709	13171
925.816	13095
925.924	13133
926.031	13301
926.138	13164
926.245	13149
926.352	12993
926.459	13118
926.566	13175
926.673	13034
926.779	12882
926.886	12848
926.993	12741
927.099	12787
927.206	12646
927.312	12658
927.419	12768
927.525	12783
927.631	12703
927.737	12650
927.843	12620
927.95	12486
928.056	12509
928.162	12544
928.267	12555
928.373	13209
928.479	12620
928.585	12380
928.69	12490
928.796	12623
928.901	12403
929.007	12395
929.112	12399
929.218	12380
929.323	12365
929.428	12289
929.533	12376
929.638	12220
929.743	12220
929.848	12365
929.953	12243
930.058	12129
930.163	11908
930.267	12068
930.372	12079
930.477	11893
930.581	12152
930.685	11946
930.79	11920
930.894	11824
930.998	11843
931.103	11912
931.207	11611
931.311	11570
931.415	11421
931.519	11261
931.623	11311
