Data from test_V78500241_2872.txt Node
Date: Fri Mar 25 16:01:41 CST 2022
User: usil
Spectrometer: V785-0024
Trigger mode: 0
Integration Time (sec): 4.000000E-1
Scans to average: 1
Nonlinearity correction enabled: false
Boxcar width: 0
Storing dark spectrum: false
XAxis mode: Wavelengths
Number of Pixels in Spectrum: 1024
>>>>>Begin Spectral Data<<<<<
801.071	29227
801.214	29132
801.356	28911
801.499	28938
801.641	28626
801.783	28752
801.926	28911
802.068	28812
802.211	28710
802.353	28637
802.496	28580
802.638	28447
802.78	28379
802.923	28489
803.065	28474
803.208	28382
803.35	28596
803.492	28748
803.635	28892
803.777	28721
803.919	28717
804.061	29098
804.204	28961
804.346	28828
804.488	28790
804.63	28668
804.773	28786
804.915	28786
805.057	28858
805.199	28850
805.341	28797
805.483	29025
805.626	29044
805.768	28869
805.91	28946
806.052	29014
806.194	28748
806.336	29060
806.478	28961
806.62	29079
806.762	29041
806.904	29334
807.046	29296
807.188	29395
807.33	29429
807.472	29444
807.614	29341
807.756	29474
807.898	29353
808.04	29273
808.182	29284
808.324	29364
808.465	29368
808.607	29444
808.749	29623
808.891	29775
809.033	29813
809.174	29642
809.316	29737
809.458	29615
809.6	29710
809.741	29878
809.883	29771
810.025	30110
810.166	29901
810.308	29946
810.45	29901
810.591	29874
810.733	29790
810.875	29729
811.016	29505
811.158	29528
811.299	29794
811.441	29794
811.582	29874
811.724	29798
811.865	29528
812.007	29680
812.148	29813
812.29	29794
812.431	29859
812.573	30007
812.714	29977
812.855	30239
812.997	30323
813.138	30407
813.279	30334
813.421	30346
813.562	30262
813.703	30098
813.845	30041
813.986	29824
814.127	29493
814.268	29562
814.41	29482
814.551	29440
814.692	29391
814.833	29375
814.974	29284
815.115	29402
815.256	29364
815.397	29421
815.539	29368
815.68	29242
815.821	29254
815.962	29307
816.103	29254
816.244	29086
816.385	28991
816.526	29094
816.666	28927
816.807	28675
816.948	28740
817.089	28866
817.23	28824
817.371	28869
817.512	28706
817.653	28752
817.793	28649
817.934	28683
818.075	28816
818.216	28835
818.356	28790
818.497	28683
818.638	28474
818.778	28481
818.919	28478
819.06	28645
819.2	28649
819.341	28713
819.481	28752
819.622	28961
819.762	29048
819.903	29014
820.043	29003
820.184	28858
820.324	29029
820.465	29041
820.605	28793
820.746	28873
820.886	28767
821.026	29048
821.167	28809
821.307	28866
821.447	28858
821.588	28748
821.728	28599
821.868	28519
822.008	28287
822.149	28219
822.289	28188
822.429	27846
822.569	27869
822.709	27949
822.849	27797
822.99	27827
823.13	27785
823.27	27751
823.41	27686
823.55	27427
823.69	27538
823.83	27667
823.97	27378
824.11	27302
824.25	27348
824.389	27374
824.529	27481
824.669	27332
824.809	27587
824.949	27378
825.089	27507
825.228	27496
825.368	27207
825.508	27294
825.648	27279
825.787	27450
825.927	27275
826.067	27374
826.206	27389
826.346	27488
826.485	27481
826.625	27348
826.765	27397
826.904	27340
827.044	27005
827.183	27100
827.323	27146
827.462	27218
827.601	26994
827.741	27074
827.88	27093
828.02	26979
828.159	26887
828.298	27081
828.437	27066
828.577	26986
828.716	26982
828.855	27009
828.994	26712
829.134	26754
829.273	26739
829.412	26598
829.551	26598
829.69	26701
829.829	26785
829.968	26686
830.107	26773
830.246	26785
830.385	26727
830.524	26621
830.663	26503
830.802	26499
830.941	26400
831.08	26259
831.219	26396
831.357	26294
831.496	26484
831.635	26328
831.774	26180
831.913	26005
832.051	26107
832.19	26119
832.329	26062
832.467	26134
832.606	25955
832.744	25963
832.883	25997
833.022	25974
833.16	25993
833.299	26043
833.437	26008
833.576	26050
833.714	26134
833.852	26214
833.991	26187
834.129	26065
834.267	26142
834.406	26062
834.544	26111
834.682	26145
834.821	26111
834.959	26111
835.097	26001
835.235	26103
835.373	26077
835.511	26039
835.65	25997
835.788	25845
835.926	25746
836.064	25670
836.202	25544
836.34	25951
836.478	25959
836.615	25868
836.753	25906
836.891	25898
837.029	25818
837.167	25833
837.305	25860
837.443	25738
837.58	25670
837.718	25769
837.856	25670
837.993	25689
838.131	25613
838.269	25533
838.406	25575
838.544	25571
838.681	25320
838.819	25346
838.956	25206
839.094	25084
839.231	25187
839.369	25411
839.506	25571
839.643	25324
839.781	25065
839.918	25110
840.055	24932
840.193	25232
840.33	24985
840.467	25050
840.604	25072
840.742	25365
840.879	24992
841.016	24932
841.153	24958
841.29	25141
841.427	24947
841.564	25171
841.701	25076
841.838	25027
841.975	24947
842.112	24909
842.249	24878
842.385	24859
842.522	25137
842.659	24837
842.796	24764
842.933	24779
843.069	24719
843.206	24909
843.343	24954
843.479	24913
843.616	24852
843.752	24620
843.889	24585
844.025	24642
844.162	24601
844.298	24749
844.435	24620
844.571	24604
844.708	24566
844.844	24703
844.98	24722
845.117	24700
845.253	24479
845.389	24559
845.525	24486
845.661	24464
845.798	24365
845.934	24323
846.07	24243
846.206	24467
846.342	24361
846.478	24258
846.614	24030
846.75	23889
846.886	24064
847.022	24072
847.158	24091
847.294	24018
847.429	24091
847.565	23885
847.701	24106
847.837	23897
847.972	23775
848.108	23779
848.244	23824
848.379	23718
848.515	23653
848.65	23577
848.786	23680
848.921	23589
849.057	23570
849.192	23657
849.328	23634
849.463	23604
849.598	23676
849.734	23478
849.869	23414
850.004	23433
850.14	23311
850.275	23440
850.41	23280
850.545	23436
850.68	23349
850.815	23444
850.95	23345
851.085	23524
851.22	23467
851.355	23452
851.49	23455
851.625	23452
851.76	23364
851.895	23345
852.03	23242
852.165	23277
852.299	23376
852.434	23436
852.569	23337
852.703	23318
852.838	23471
852.973	23562
853.107	23585
853.242	23345
853.376	23170
853.511	23185
853.645	23208
853.78	23227
853.914	23269
854.048	23178
854.183	23155
854.317	23170
854.451	23459
854.585	23208
854.72	23113
854.854	23307
854.988	23185
855.122	23227
855.256	23143
855.39	23109
855.524	23277
855.658	23284
855.792	23208
855.926	23105
856.06	23140
856.194	23254
856.327	23197
856.461	23124
856.595	23181
856.729	23151
856.862	23265
856.996	23174
857.13	23170
857.263	23231
857.397	23277
857.53	23185
857.664	23113
857.797	23178
857.931	23261
858.064	23181
858.197	23364
858.331	23239
858.464	23086
858.597	23029
858.731	23292
858.864	23083
858.997	23216
859.13	23185
859.263	23136
859.396	23166
859.529	23235
859.662	23147
859.795	23147
859.928	23261
860.061	23383
860.194	23421
860.327	23231
860.46	23280
860.592	23379
860.725	23296
860.858	23277
860.99	23102
861.123	23147
861.256	23060
861.388	23197
861.521	23973
861.653	23197
861.786	22919
861.918	22991
862.05	23132
862.183	23090
862.315	23033
862.447	23197
862.58	23151
862.712	22942
862.844	22862
862.976	23064
863.108	23048
863.24	23360
863.372	22831
863.504	22877
863.636	22892
863.768	22915
863.9	23041
864.032	22774
864.164	22889
864.296	22896
864.428	23003
864.559	22972
864.691	22953
864.823	22927
864.954	22854
865.086	22858
865.217	22797
865.349	22683
865.48	22717
865.612	22862
865.743	22889
865.875	22782
866.006	22778
866.137	22786
866.269	22831
866.4	22691
866.531	22626
866.662	22626
866.793	22736
866.924	22740
867.055	22721
867.186	22672
867.317	22660
867.448	22599
867.579	22691
867.71	22748
867.841	22691
867.972	22691
868.103	22618
868.233	22649
868.364	22782
868.495	22809
868.625	22885
868.756	23052
868.886	22911
869.017	22877
869.147	22881
869.278	23006
869.408	23083
869.539	22949
869.669	23124
869.799	23010
869.929	22987
870.06	23090
870.19	23223
870.32	23246
870.45	23239
870.58	23303
870.71	23269
870.84	23334
870.97	23379
871.1	23307
871.23	23516
871.36	23577
871.489	23414
871.619	23520
871.749	23649
871.879	23577
872.008	23596
872.138	23493
872.267	23551
872.397	23368
872.526	23246
872.656	23311
872.785	23307
872.915	23463
873.044	23623
873.173	23520
873.303	23634
873.432	23691
873.561	23570
873.69	23535
873.819	23543
873.948	23585
874.077	23573
874.206	23524
874.335	23596
874.464	23638
874.593	23752
874.722	23786
874.851	23714
874.979	23718
875.108	23878
875.237	23729
875.365	23695
875.494	23760
875.623	23828
875.751	23714
875.88	23832
876.008	23859
876.136	24045
876.265	24140
876.393	24228
876.521	24194
876.65	24194
876.778	24068
876.906	24144
877.034	24038
877.162	24079
877.29	24011
877.418	24121
877.546	24053
877.674	24159
877.802	24159
877.93	24018
878.058	24034
878.185	23950
878.313	24102
878.441	23961
878.568	23790
878.696	24091
878.824	24041
878.951	24091
879.079	24178
879.206	24376
879.333	24243
879.461	24159
879.588	24228
879.715	24262
879.842	24414
879.97	24102
880.097	23954
880.224	23969
880.351	23977
880.478	23859
880.605	23714
880.732	23946
880.859	24144
880.986	23840
881.112	23923
881.239	23741
881.366	23455
881.493	23474
881.619	23551
881.746	23406
881.872	23551
881.999	23398
882.125	23349
882.252	23497
882.378	23402
882.505	23497
882.631	23345
882.757	23128
882.883	23258
883.01	23136
883.136	23124
883.262	22797
883.388	22942
883.514	23102
883.64	23060
883.766	22869
883.892	22923
884.018	22946
884.143	23060
884.269	23197
884.395	22736
884.52	22862
884.646	22755
884.772	22592
884.897	22599
885.023	22729
885.148	22797
885.274	22869
885.399	22831
885.524	22828
885.65	22816
885.775	22713
885.9	22672
886.025	22733
886.15	22752
886.275	22672
886.4	22546
886.525	22702
886.65	22694
886.775	22717
886.9	22812
887.025	22908
887.149	22519
887.274	22596
887.399	22451
887.523	22474
887.648	22394
887.773	22474
887.897	22596
888.021	22432
888.146	22421
888.27	22523
888.395	22538
888.519	22653
888.643	22402
888.767	22596
888.891	22493
889.015	22169
889.139	22238
889.263	22131
889.387	22455
889.511	22409
889.635	22375
889.759	22261
889.883	22310
890.006	22375
890.13	22329
890.254	22181
890.377	22188
890.501	22105
890.624	21964
890.748	21934
890.871	21850
890.995	21751
891.118	21743
891.241	21934
891.364	21785
891.488	21907
891.611	21838
891.734	21873
891.857	21823
891.98	21819
892.103	21823
892.226	21739
892.349	21770
892.471	21538
892.594	21884
892.717	21751
892.839	21808
892.962	21644
893.085	21895
893.207	21778
893.33	21511
893.452	21705
893.575	21720
893.697	21629
893.819	21789
893.941	21918
894.064	21846
894.186	21629
894.308	21622
894.43	21686
894.552	21804
894.674	21698
894.796	21656
894.918	21587
895.04	21637
895.161	21682
895.283	21717
895.405	21618
895.526	21724
895.648	21747
895.769	21595
895.891	21644
896.012	21705
896.134	21736
896.255	21610
896.376	21660
896.498	21564
896.619	21831
896.74	21614
896.861	21724
896.982	21960
897.103	22078
897.224	21835
897.345	21854
897.466	21751
897.587	21831
897.708	21972
897.828	21895
897.949	21755
898.07	21660
898.19	21812
898.311	21838
898.431	21774
898.552	21789
898.672	21850
898.792	21857
898.913	21739
899.033	21846
899.153	21637
899.273	21477
899.393	21561
899.513	21583
899.633	21530
899.753	21572
899.873	21374
899.993	21580
900.113	21370
900.232	21629
900.352	21374
900.472	21367
900.591	21302
900.711	21279
900.83	21275
900.95	21405
901.069	21348
901.189	21222
901.308	20944
901.427	20796
901.546	20819
901.665	20941
901.784	20933
901.904	20777
902.023	20720
902.141	20469
902.26	20511
902.379	20408
902.498	20324
902.617	20347
902.735	20393
902.854	20332
902.973	20294
903.091	19997
903.21	20046
903.328	20012
903.446	19909
903.565	19795
903.683	19856
903.801	19685
903.919	19845
904.038	19742
904.156	19616
904.274	19597
904.392	19525
904.51	19559
904.627	19365
904.745	19594
904.863	19643
904.981	19350
905.098	19259
905.216	19168
905.334	19225
905.451	19362
905.569	19202
905.686	19327
905.803	19339
905.921	18977
906.038	19126
906.155	19034
906.272	18894
906.389	18943
906.506	18745
906.623	18753
906.74	18810
906.857	18669
906.974	18654
907.091	18837
907.208	18916
907.324	18749
907.441	18597
907.557	18490
907.674	18471
907.79	18388
907.907	18475
908.023	18437
908.139	18513
908.256	18388
908.372	18384
908.488	18380
908.604	18117
908.72	18197
908.836	18171
908.952	18144
909.068	18239
909.184	18391
909.3	18224
909.415	18213
909.531	18140
909.647	17889
909.762	17904
909.878	17805
909.993	17908
910.108	17855
910.224	17710
910.339	17729
910.454	17737
910.57	17695
910.685	17566
910.8	17935
910.915	17889
911.03	17767
911.145	17554
911.259	17414
911.374	17417
911.489	17254
911.604	17292
911.718	17231
911.833	17121
911.947	17045
912.062	17025
912.176	17117
912.291	17189
912.405	17223
912.519	17398
912.633	17280
912.748	17162
912.862	17197
912.976	16904
913.09	16919
913.204	16984
913.318	17045
913.431	17094
913.545	17025
913.659	17102
913.772	16949
913.886	16805
914	16778
914.113	16896
914.226	16965
914.34	16881
914.453	16599
914.566	16653
914.68	16550
914.793	16474
914.906	16409
915.019	16371
915.132	16246
915.245	16291
915.358	16352
915.47	16363
915.583	16421
915.696	16306
915.809	16382
915.921	16508
916.034	16314
916.146	16257
916.259	16223
916.371	16284
916.483	16276
916.595	16128
916.708	16173
916.82	16082
916.932	16105
917.044	16078
917.156	16093
917.268	15918
917.38	15983
917.491	15915
917.603	16006
917.715	16032
917.826	16032
917.938	15854
918.049	15766
918.161	15808
918.272	15987
918.384	16010
918.495	15857
918.606	15644
918.717	15656
918.828	15732
918.939	15663
919.05	15610
919.161	15591
919.272	15477
919.383	15557
919.494	15667
919.604	15831
919.715	15656
919.826	15477
919.936	15637
920.047	15724
920.157	15488
920.267	15827
920.378	15660
920.488	15526
920.598	15865
920.708	15960
920.818	15663
920.928	15732
921.038	15736
921.148	15789
921.258	15545
921.368	15542
921.477	15431
921.587	15355
921.697	15199
921.806	15378
921.916	15173
922.025	15036
922.134	14956
922.244	14861
922.353	14979
922.462	14849
922.571	14765
922.68	14583
922.789	14617
922.898	14640
923.007	14492
923.116	14552
923.224	14617
923.333	14507
923.442	14396
923.55	14358
923.659	14488
923.767	14454
923.876	14286
923.984	14415
924.092	14298
924.201	14351
924.309	14358
924.417	14252
924.525	14126
924.633	14199
924.741	15176
924.849	13982
924.956	14183
925.064	13951
925.172	13909
925.279	13936
925.387	14001
925.494	13936
925.602	14088
925.709	13970
925.816	13890
925.924	13879
926.031	13947
926.138	13906
926.245	13902
926.352	13753
926.459	13868
926.566	13875
926.673	13731
926.779	13597
926.886	13712
926.993	13575
927.099	13525
927.206	13449
927.312	13354
927.419	13529
927.525	13400
927.631	13453
927.737	13415
927.843	13304
927.95	13187
928.056	13198
928.162	13301
928.267	13415
928.373	13982
928.479	13308
928.585	13110
928.69	13126
928.796	13228
928.901	13122
929.007	12977
929.112	13145
929.218	13091
929.323	12981
929.428	12973
929.533	13110
929.638	12905
929.743	12878
929.848	12890
929.953	12943
930.058	12829
930.163	12578
930.267	12669
930.372	12817
930.477	12517
930.581	12810
930.685	12578
930.79	12536
930.894	12509
930.998	12475
931.103	12593
931.207	12209
931.311	12133
931.415	12068
931.519	11794
931.623	11855
