Data from test_V78500241_1532.txt Node
Date: Fri Mar 25 15:52:24 CST 2022
User: usil
Spectrometer: V785-0024
Trigger mode: 0
Integration Time (sec): 4.000000E-1
Scans to average: 1
Nonlinearity correction enabled: false
Boxcar width: 0
Storing dark spectrum: false
XAxis mode: Wavelengths
Number of Pixels in Spectrum: 1024
>>>>>Begin Spectral Data<<<<<
801.071	28405
801.214	28318
801.356	28128
801.499	27975
801.641	28059
801.783	28074
801.926	28032
802.068	27979
802.211	27800
802.353	27876
802.496	27709
802.638	27774
802.78	27656
802.923	27564
803.065	27686
803.208	27591
803.35	27667
803.492	27854
803.635	27930
803.777	27720
803.919	27736
804.061	28192
804.204	27914
804.346	27751
804.488	27827
804.63	27739
804.773	27781
804.915	28025
805.057	27998
805.199	27876
805.341	28067
805.483	28154
805.626	28051
805.768	28021
805.91	27903
806.052	28013
806.194	27922
806.336	28291
806.478	28105
806.62	28032
806.762	28226
806.904	28284
807.046	28565
807.188	28550
807.33	28390
807.472	28618
807.614	28409
807.756	28462
807.898	28379
808.04	28417
808.182	28276
808.324	28443
808.465	28318
808.607	28554
808.749	28615
808.891	28866
809.033	28740
809.174	28877
809.316	28759
809.458	28782
809.6	28782
809.741	28790
809.883	28824
810.025	28942
810.166	28927
810.308	28900
810.45	29018
810.591	28839
810.733	28816
810.875	28653
811.016	28546
811.158	28645
811.299	28672
811.441	28710
811.582	28854
811.724	28637
811.865	28752
812.007	28759
812.148	28618
812.29	28679
812.431	28812
812.573	28991
812.714	29143
812.855	29086
812.997	29341
813.138	29311
813.279	29258
813.421	29349
813.562	29166
813.703	29094
813.845	28919
813.986	28733
814.127	28508
814.268	28455
814.41	28523
814.551	28470
814.692	28405
814.833	28257
814.974	28386
815.115	28474
815.256	28287
815.397	28413
815.539	28261
815.68	28253
815.821	28055
815.962	28246
816.103	28226
816.244	28135
816.385	27934
816.526	27979
816.666	27770
816.807	27816
816.948	27755
817.089	27785
817.23	27823
817.371	27713
817.512	27793
817.653	27644
817.793	27652
817.934	27720
818.075	27770
818.216	27751
818.356	27568
818.497	27580
818.638	27481
818.778	27564
818.919	27416
819.06	27427
819.2	27587
819.341	27759
819.481	27755
819.622	27842
819.762	28044
819.903	27846
820.043	27960
820.184	27755
820.324	27861
820.465	27956
820.605	27873
820.746	27880
820.886	27614
821.026	27918
821.167	27869
821.307	27842
821.447	27808
821.588	27576
821.728	27618
821.868	27321
822.008	27329
822.149	27325
822.289	27195
822.429	26967
822.569	26921
822.709	26811
822.849	26750
822.99	26651
823.13	26663
823.27	26651
823.41	26560
823.55	26492
823.69	26480
823.83	26678
823.97	26484
824.11	26294
824.25	26172
824.389	26343
824.529	26423
824.669	26313
824.809	26526
824.949	26320
825.089	26431
825.228	26286
825.368	26218
825.508	26161
825.648	26214
825.787	26267
825.927	26313
826.067	26298
826.206	26320
826.346	26271
826.485	26366
826.625	26343
826.765	26358
826.904	26252
827.044	25997
827.183	25955
827.323	26001
827.462	25989
827.601	25868
827.741	25982
827.88	26020
828.02	25841
828.159	25951
828.298	25940
828.437	26062
828.577	25894
828.716	26001
828.855	25928
828.994	25765
829.134	25700
829.273	25704
829.412	25704
829.551	25582
829.69	25525
829.829	25765
829.968	25731
830.107	25689
830.246	25700
830.385	25731
830.524	25590
830.663	25487
830.802	25407
830.941	25331
831.08	25114
831.219	25251
831.357	25422
831.496	25403
831.635	25282
831.774	25232
831.913	25057
832.051	25080
832.19	24897
832.329	25038
832.467	24996
832.606	24935
832.744	24913
832.883	24913
833.022	24833
833.16	24913
833.299	24970
833.437	25008
833.576	25069
833.714	25046
833.852	25072
833.991	24992
834.129	25103
834.267	25129
834.406	24962
834.544	24985
834.682	24954
834.821	24901
834.959	25194
835.097	24985
835.235	24958
835.373	24890
835.511	24920
835.65	24810
835.788	24829
835.926	24817
836.064	24585
836.202	24654
836.34	24840
836.478	25004
836.615	24837
836.753	24707
836.891	24817
837.029	24776
837.167	24783
837.305	24681
837.443	24757
837.58	24597
837.718	24867
837.856	24700
837.993	24650
838.131	24631
838.269	24544
838.406	24517
838.544	24544
838.681	24350
838.819	24292
838.956	24201
839.094	24098
839.231	24209
839.369	24319
839.506	24547
839.643	24376
839.781	24087
839.918	24007
840.055	24114
840.193	24152
840.33	24171
840.467	24152
840.604	24076
840.742	24361
840.879	23912
841.016	23923
841.153	23965
841.29	24106
841.427	24034
841.564	24110
841.701	24003
841.838	24083
841.975	23969
842.112	23958
842.249	23908
842.385	23805
842.522	24091
842.659	23973
842.796	23760
842.933	23885
843.069	23737
843.206	23745
843.343	23832
843.479	23847
843.616	23908
843.752	23524
843.889	23566
844.025	23604
844.162	23539
844.298	23790
844.435	23604
844.571	23448
844.708	23459
844.844	23695
844.98	23737
845.117	23611
845.253	23391
845.389	23341
845.525	23364
845.661	23482
845.798	23185
845.934	23467
846.07	23269
846.206	23368
846.342	23387
846.478	23387
846.614	23121
846.75	22999
846.886	22961
847.022	23124
847.158	22942
847.294	23003
847.429	23079
847.565	22911
847.701	23239
847.837	22752
847.972	22736
848.108	22934
848.244	22725
848.379	22634
848.515	22607
848.65	22440
848.786	22733
848.921	22626
849.057	22698
849.192	22683
849.328	22668
849.463	22691
849.598	22557
849.734	22569
849.869	22287
850.004	22398
850.14	22276
850.275	22470
850.41	22242
850.545	22246
850.68	22284
850.815	22322
850.95	22424
851.085	22497
851.22	22443
851.355	22436
851.49	22310
851.625	22421
851.76	22207
851.895	22398
852.03	22303
852.165	22333
852.299	22478
852.434	22485
852.569	22367
852.703	22337
852.838	22481
852.973	22500
853.107	22379
853.242	22344
853.376	22333
853.511	22051
853.645	22200
853.78	22318
853.914	22219
854.048	22219
854.183	22154
854.317	22291
854.451	22306
854.585	22200
854.72	22112
854.854	22200
854.988	22124
855.122	22169
855.256	22131
855.39	22112
855.524	22223
855.658	22291
855.792	22234
855.926	22344
856.06	22215
856.194	22169
856.327	22204
856.461	22109
856.595	22135
856.729	22090
856.862	22348
856.996	22238
857.13	22333
857.263	22234
857.397	22261
857.53	22063
857.664	22299
857.797	22204
857.931	22367
858.064	22147
858.197	22219
858.331	22230
858.464	22139
858.597	22074
858.731	22124
858.864	22074
858.997	22044
859.13	22139
859.263	22154
859.396	22280
859.529	22143
859.662	22101
859.795	22143
859.928	22219
860.061	22295
860.194	22379
860.327	22169
860.46	22196
860.592	22280
860.725	22390
860.858	22409
860.99	22314
861.123	22215
861.256	22253
861.388	22169
861.521	22729
861.653	22124
861.786	22017
861.918	22078
862.05	22093
862.183	22124
862.315	22128
862.447	22276
862.58	22070
862.712	21975
862.844	21850
862.976	22063
863.108	21975
863.24	22379
863.372	21812
863.504	21823
863.636	21922
863.768	21911
863.9	21922
864.032	21838
864.164	21915
864.296	21918
864.428	21945
864.559	21915
864.691	21979
864.823	21884
864.954	21880
865.086	21857
865.217	21789
865.349	21831
865.48	21644
865.612	21797
865.743	21964
865.875	21709
866.006	21663
866.137	21743
866.269	21701
866.4	21785
866.531	21705
866.662	21644
866.793	21800
866.924	21789
867.055	21709
867.186	21663
867.317	21762
867.448	21637
867.579	21606
867.71	21564
867.841	21530
867.972	21698
868.103	21797
868.233	21781
868.364	21599
868.495	21781
868.625	21903
868.756	22128
868.886	21846
869.017	21991
869.147	21956
869.278	22105
869.408	22036
869.539	21895
869.669	21968
869.799	22032
869.929	22070
870.06	22067
870.19	22299
870.32	22238
870.45	22261
870.58	22287
870.71	22405
870.84	22398
870.97	22424
871.1	22379
871.23	22417
871.36	22493
871.489	22409
871.619	22580
871.749	22512
871.879	22557
872.008	22500
872.138	22466
872.267	22424
872.397	22432
872.526	22402
872.656	22424
872.785	22394
872.915	22531
873.044	22622
873.173	22519
873.303	22607
873.432	22653
873.561	22622
873.69	22554
873.819	22607
873.948	22535
874.077	22531
874.206	22504
874.335	22504
874.464	22736
874.593	22820
874.722	22843
874.851	22683
874.979	22835
875.108	22900
875.237	22717
875.365	22592
875.494	22797
875.623	22877
875.751	22771
875.88	22885
876.008	22873
876.136	22923
876.265	23204
876.393	23109
876.521	23166
876.65	23326
876.778	23166
876.906	23094
877.034	23185
877.162	23102
877.29	22995
877.418	23094
877.546	23162
877.674	23029
877.802	23056
877.93	23254
878.058	23041
878.185	23044
878.313	23094
878.441	23117
878.568	22957
878.696	23025
878.824	23079
878.951	23185
879.079	23356
879.206	23246
879.333	23242
879.461	23094
879.588	23113
879.715	23334
879.842	23429
879.97	23086
880.097	22987
880.224	22930
880.351	22934
880.478	22923
880.605	22862
880.732	22809
880.859	23204
880.986	22961
881.112	22881
881.239	22835
881.366	22713
881.493	22694
881.619	22599
881.746	22573
881.872	22653
881.999	22542
882.125	22409
882.252	22474
882.378	22470
882.505	22691
882.631	22341
882.757	22135
882.883	22268
883.01	22249
883.136	22078
883.262	22074
883.388	21975
883.514	22185
883.64	22276
883.766	21975
883.892	21888
884.018	22067
884.143	22055
884.269	22185
884.395	21797
884.52	21861
884.646	21915
884.772	21827
884.897	21770
885.023	21781
885.148	21956
885.274	21838
885.399	22044
885.524	21850
885.65	21819
885.775	21816
885.9	21804
886.025	21831
886.15	21861
886.275	21857
886.4	21781
886.525	21755
886.65	21728
886.775	21759
886.9	21857
887.025	21991
887.149	21701
887.274	21591
887.399	21625
887.523	21603
887.648	21545
887.773	21511
887.897	21671
888.021	21606
888.146	21606
888.27	21698
888.395	21656
888.519	21629
888.643	21610
888.767	21724
888.891	21500
889.015	21275
889.139	21466
889.263	21317
889.387	21420
889.511	21606
889.635	21367
889.759	21401
889.883	21211
890.006	21363
890.13	21428
890.254	21222
890.377	21306
890.501	21043
890.624	21112
890.748	21169
890.871	21005
890.995	20861
891.118	20788
891.241	20956
891.364	21001
891.488	21009
891.611	20956
891.734	20933
891.857	20937
891.98	21001
892.103	20937
892.226	20967
892.349	20876
892.471	20689
892.594	20815
892.717	20925
892.839	20842
892.962	20826
893.085	20785
893.207	20857
893.33	20716
893.452	20819
893.575	20830
893.697	20781
893.819	20918
893.941	20994
894.064	21013
894.186	20712
894.308	20746
894.43	20781
894.552	20914
894.674	20842
894.796	20739
894.918	20781
895.04	20720
895.161	20823
895.283	20796
895.405	20727
895.526	20686
895.648	20826
895.769	20891
895.891	20895
896.012	20902
896.134	20849
896.255	20826
896.376	20750
896.498	20777
896.619	20861
896.74	20716
896.861	20807
896.982	21138
897.103	21180
897.224	21119
897.345	20914
897.466	20948
897.587	20944
897.708	21180
897.828	21039
897.949	20899
898.07	20861
898.19	20986
898.311	21066
898.431	20998
898.552	20891
898.672	21047
898.792	21089
898.913	21043
899.033	20826
899.153	20838
899.273	20632
899.393	20781
899.513	20724
899.633	20625
899.753	20724
899.873	20514
899.993	20686
900.113	20754
900.232	20743
900.352	20632
900.472	20579
900.591	20469
900.711	20503
900.83	20408
900.95	20446
901.069	20507
901.189	20434
901.308	20191
901.427	20096
901.546	20180
901.665	20111
901.784	20039
901.904	19989
902.023	19989
902.141	19685
902.26	19700
902.379	19757
902.498	19578
902.617	19407
902.735	19544
902.854	19510
902.973	19445
903.091	19274
903.21	19263
903.328	19213
903.446	19206
903.565	19057
903.683	19129
903.801	18924
903.919	18958
904.038	18954
904.156	18852
904.274	18882
904.392	18867
904.51	18753
904.627	18852
904.745	18840
904.863	18833
904.981	18551
905.098	18441
905.216	18380
905.334	18559
905.451	18494
905.569	18475
905.686	18513
905.803	18475
905.921	18174
906.038	18292
906.155	18292
906.272	18182
906.389	18114
906.506	18072
906.623	17973
906.74	18015
906.857	17878
906.974	17935
907.091	18049
907.208	18213
907.324	18087
907.441	17878
907.557	17760
907.674	17691
907.79	17570
907.907	17726
908.023	17707
908.139	17764
908.256	17707
908.372	17661
908.488	17649
908.604	17493
908.72	17440
908.836	17535
908.952	17417
909.068	17440
909.184	17497
909.3	17486
909.415	17440
909.531	17379
909.647	17102
909.762	17178
909.878	17048
909.993	17105
910.108	17109
910.224	17067
910.339	17045
910.454	16972
910.57	16854
910.685	16828
910.8	17132
910.915	17094
911.03	16930
911.145	16710
911.259	16679
911.374	16713
911.489	16710
911.604	16485
911.718	16371
911.833	16363
911.947	16417
912.062	16348
912.176	16504
912.291	16466
912.405	16455
912.519	16649
912.633	16626
912.748	16531
912.862	16390
912.976	16223
913.09	16173
913.204	16265
913.318	16188
913.431	16421
913.545	16443
913.659	16325
913.772	16295
913.886	16162
914	16154
914.113	16219
914.226	16116
914.34	16059
914.453	15903
914.566	16166
914.68	15998
914.793	15911
914.906	15713
915.019	15599
915.132	15690
915.245	15633
915.358	15743
915.47	15713
915.583	15652
915.696	15656
915.809	15846
915.921	15778
916.034	15641
916.146	15572
916.259	15549
916.371	15599
916.483	15618
916.595	15397
916.708	15492
916.82	15397
916.932	15389
917.044	15431
917.156	15386
917.268	15264
917.38	15344
917.491	15291
917.603	15351
917.715	15310
917.826	15389
917.938	15222
918.049	15138
918.161	15211
918.272	15336
918.384	15389
918.495	15176
918.606	15062
918.717	15005
918.828	15032
918.939	15043
919.05	14910
919.161	14990
919.272	14781
919.383	14975
919.494	15020
919.604	15192
919.715	15020
919.826	14925
919.936	15028
920.047	14979
920.157	14960
920.267	15173
920.378	15020
920.488	14876
920.598	15169
920.708	15367
920.818	15127
920.928	15116
921.038	15325
921.148	15211
921.258	14899
921.368	14762
921.477	14701
921.587	14659
921.697	14636
921.806	14701
921.916	14568
922.025	14442
922.134	14290
922.244	14362
922.353	14355
922.462	14301
922.571	14187
922.68	14050
922.789	14008
922.898	14050
923.007	13875
923.116	13997
923.224	14039
923.333	13921
923.442	13845
923.55	13780
923.659	13818
923.767	13791
923.876	13864
923.984	13936
924.092	13662
924.201	13788
924.309	13738
924.417	13704
924.525	13651
924.633	13708
924.741	14590
924.849	13426
924.956	13483
925.064	13460
925.172	13247
925.279	13419
925.387	13445
925.494	13346
925.602	13480
925.709	13365
925.816	13266
925.924	13331
926.031	13453
926.138	13289
926.245	13350
926.352	13247
926.459	13335
926.566	13316
926.673	13240
926.779	13084
926.886	13114
926.993	13046
927.099	12859
927.206	12935
927.312	12905
927.419	12981
927.525	12901
927.631	13019
927.737	12810
927.843	12840
927.95	12639
928.056	12806
928.162	12707
928.267	12875
928.373	13384
928.479	12795
928.585	12631
928.69	12703
928.796	12707
928.901	12612
929.007	12437
929.112	12631
929.218	12620
929.323	12494
929.428	12410
929.533	12608
929.638	12380
929.743	12456
929.848	12536
929.953	12437
930.058	12323
930.163	12076
930.267	12251
930.372	12323
930.477	12083
930.581	12300
930.685	12159
930.79	11946
930.894	12083
930.998	12003
931.103	12148
931.207	11790
931.311	11756
931.415	11672
931.519	11467
931.623	11337
