Data from test_V78500241_495.txt Node
Date: Fri Mar 25 15:45:13 CST 2022
User: usil
Spectrometer: V785-0024
Trigger mode: 0
Integration Time (sec): 4.000000E-1
Scans to average: 1
Nonlinearity correction enabled: false
Boxcar width: 0
Storing dark spectrum: false
XAxis mode: Wavelengths
Number of Pixels in Spectrum: 1024
>>>>>Begin Spectral Data<<<<<
801.071	27641
801.214	27561
801.356	27340
801.499	27249
801.641	27157
801.783	27077
801.926	27249
802.068	27127
802.211	27032
802.353	27131
802.496	26876
802.638	26773
802.78	26788
802.923	26762
803.065	26796
803.208	26644
803.35	26765
803.492	26853
803.635	26826
803.777	26746
803.919	26910
804.061	27093
804.204	26887
804.346	26838
804.488	26735
804.63	26868
804.773	26899
804.915	26845
805.057	26982
805.199	26883
805.341	26998
805.483	27005
805.626	26872
805.768	26876
805.91	27100
806.052	27001
806.194	26864
806.336	27108
806.478	26998
806.62	26857
806.762	27039
806.904	27192
807.046	27488
807.188	27230
807.33	27405
807.472	27534
807.614	27443
807.756	27412
807.898	27256
808.04	27211
808.182	27226
808.324	27264
808.465	27226
808.607	27523
808.749	27542
808.891	27793
809.033	27831
809.174	27739
809.316	27751
809.458	27641
809.6	27633
809.741	27857
809.883	27644
810.025	27884
810.166	27800
810.308	27918
810.45	27675
810.591	27922
810.733	27728
810.875	27648
811.016	27504
811.158	27511
811.299	27739
811.441	27709
811.582	27682
811.724	27690
811.865	27534
812.007	27576
812.148	27488
812.29	27603
812.431	27903
812.573	28090
812.714	28048
812.855	28204
812.997	28242
813.138	28367
813.279	28276
813.421	28147
813.562	28204
813.703	27972
813.845	27884
813.986	27488
814.127	27488
814.268	27348
814.41	27340
814.551	27313
814.692	27443
814.833	27214
814.974	27340
815.115	27237
815.256	27230
815.397	27214
815.539	27184
815.68	27184
815.821	27047
815.962	27161
816.103	27089
816.244	27043
816.385	26979
816.526	26891
816.666	26792
816.807	26438
816.948	26575
817.089	26739
817.23	26609
817.371	26476
817.512	26549
817.653	26457
817.793	26503
817.934	26590
818.075	26598
818.216	26495
818.356	26518
818.497	26480
818.638	26339
818.778	26248
818.919	26446
819.06	26396
819.2	26339
819.341	26655
819.481	26503
819.622	26621
819.762	26819
819.903	26750
820.043	26514
820.184	26746
820.324	26564
820.465	26724
820.605	26670
820.746	26667
820.886	26533
821.026	26522
821.167	26659
821.307	26739
821.447	26686
821.588	26522
821.728	26317
821.868	26313
822.008	26005
822.149	26043
822.289	25982
822.429	25852
822.569	25734
822.709	25757
822.849	25453
822.99	25544
823.13	25510
823.27	25544
823.41	25426
823.55	25228
823.69	25228
823.83	25259
823.97	25221
824.11	25145
824.25	25114
824.389	25148
824.529	25369
824.669	25137
824.809	25358
824.949	25145
825.089	25266
825.228	25065
825.368	25053
825.508	25015
825.648	25107
825.787	25012
825.927	25110
826.067	25019
826.206	24973
826.346	25137
826.485	25027
826.625	24973
826.765	25038
826.904	24996
827.044	24753
827.183	24745
827.323	24703
827.462	24848
827.601	24681
827.741	24711
827.88	24745
828.02	24509
828.159	24639
828.298	24703
828.437	24726
828.577	24566
828.716	24741
828.855	24578
828.994	24304
829.134	24380
829.273	24452
829.412	24296
829.551	24384
829.69	24399
829.829	24407
829.968	24445
830.107	24483
830.246	24464
830.385	24258
830.524	24372
830.663	24270
830.802	24182
830.941	23984
831.08	23836
831.219	24110
831.357	24060
831.496	24163
831.635	23855
831.774	23950
831.913	23836
832.051	23813
832.19	23775
832.329	23805
832.467	23684
832.606	23573
832.744	23623
832.883	23745
833.022	23608
833.16	23623
833.299	23779
833.437	23752
833.576	23676
833.714	23687
833.852	23745
833.991	23813
834.129	23832
834.267	23733
834.406	23726
834.544	23790
834.682	23760
834.821	23752
834.959	23859
835.097	23661
835.235	23851
835.373	23687
835.511	23745
835.65	23634
835.788	23562
835.926	23505
836.064	23391
836.202	23471
836.34	23558
836.478	23661
836.615	23497
836.753	23543
836.891	23668
837.029	23440
837.167	23520
837.305	23539
837.443	23448
837.58	23478
837.718	23421
837.856	23459
837.993	23490
838.131	23322
838.269	23288
838.406	23239
838.544	23246
838.681	23052
838.819	22877
838.956	22942
839.094	22904
839.231	22976
839.369	23113
839.506	23425
839.643	23162
839.781	22805
839.918	22771
840.055	22965
840.193	22904
840.33	22847
840.467	22869
840.604	22847
840.742	23056
840.879	22679
841.016	22866
841.153	22767
841.29	22847
841.427	22828
841.564	22862
841.701	22873
841.838	22752
841.975	22744
842.112	22778
842.249	22607
842.385	22565
842.522	22759
842.659	22596
842.796	22523
842.933	22588
843.069	22497
843.206	22580
843.343	22527
843.479	22550
843.616	22500
843.752	22398
843.889	22348
844.025	22329
844.162	22356
844.298	22314
844.435	22272
844.571	22306
844.708	22375
844.844	22615
844.98	22489
845.117	22478
845.253	22154
845.389	22135
845.525	22272
845.661	22204
845.798	22067
845.934	22230
846.07	22093
846.206	22006
846.342	22120
846.478	22101
846.614	21911
846.75	21743
846.886	21835
847.022	21934
847.158	21968
847.294	21835
847.429	21781
847.565	21865
847.701	22036
847.837	21625
847.972	21386
848.108	21553
848.244	21599
848.379	21481
848.515	21389
848.65	21386
848.786	21439
848.921	21340
849.057	21500
849.192	21473
849.328	21481
849.463	21420
849.598	21363
849.734	21279
849.869	21264
850.004	20986
850.14	21249
850.275	21180
850.41	21039
850.545	21001
850.68	21028
850.815	21173
850.95	21047
851.085	21310
851.22	21230
851.355	21192
851.49	21074
851.625	21123
851.76	21165
851.895	21043
852.03	21123
852.165	21096
852.299	21184
852.434	21226
852.569	21096
852.703	21074
852.838	21233
852.973	21382
853.107	21245
853.242	21116
853.376	20944
853.511	20845
853.645	20982
853.78	20998
853.914	21070
854.048	20982
854.183	20853
854.317	21020
854.451	21192
854.585	20963
854.72	20910
854.854	20971
854.988	20762
855.122	21104
855.256	20849
855.39	20921
855.524	21127
855.658	20971
855.792	21009
855.926	20952
856.06	21005
856.194	21066
856.327	21005
856.461	20910
856.595	20804
856.729	20918
856.862	21043
856.996	21081
857.13	21062
857.263	21074
857.397	21051
857.53	21066
857.664	21066
857.797	21028
857.931	21062
858.064	20864
858.197	21161
858.331	20948
858.464	20864
858.597	20975
858.731	20952
858.864	20929
858.997	20963
859.13	20948
859.263	20956
859.396	21116
859.529	20944
859.662	21047
859.795	20823
859.928	21116
860.061	21176
860.194	21154
860.327	21051
860.46	20918
860.592	20975
860.725	21165
860.858	21013
860.99	21001
861.123	20758
861.256	20861
861.388	20899
861.521	21641
861.653	20857
861.786	20750
861.918	20743
862.05	20861
862.183	20838
862.315	20914
862.447	20853
862.58	20845
862.712	20697
862.844	20705
862.976	20857
863.108	20758
863.24	21062
863.372	20602
863.504	20556
863.636	20769
863.768	20739
863.9	20678
864.032	20648
864.164	20701
864.296	20648
864.428	20815
864.559	20724
864.691	20689
864.823	20636
864.954	20655
865.086	20708
865.217	20499
865.349	20442
865.48	20385
865.612	20549
865.743	20667
865.875	20552
866.006	20594
866.137	20629
866.269	20640
866.4	20537
866.531	20442
866.662	20465
866.793	20507
866.924	20434
867.055	20484
867.186	20457
867.317	20533
867.448	20404
867.579	20480
867.71	20366
867.841	20480
867.972	20412
868.103	20670
868.233	20526
868.364	20450
868.495	20507
868.625	20636
868.756	20765
868.886	20651
869.017	20712
869.147	20792
869.278	20880
869.408	20807
869.539	20788
869.669	20895
869.799	20842
869.929	20868
870.06	20773
870.19	21005
870.32	21089
870.45	21043
870.58	21176
870.71	21127
870.84	21199
870.97	21131
871.1	21131
871.23	21325
871.36	21367
871.489	21237
871.619	21249
871.749	21370
871.879	21329
872.008	21511
872.138	21332
872.267	21298
872.397	21165
872.526	21180
872.656	21093
872.785	21176
872.915	21439
873.044	21412
873.173	21374
873.303	21454
873.432	21481
873.561	21313
873.69	21428
873.819	21264
873.948	21393
874.077	21340
874.206	21325
874.335	21370
874.464	21496
874.593	21682
874.722	21564
874.851	21587
874.979	21603
875.108	21622
875.237	21599
875.365	21542
875.494	21545
875.623	21652
875.751	21553
875.88	21660
876.008	21713
876.136	21728
876.265	22017
876.393	22154
876.521	21994
876.65	22109
876.778	22002
876.906	21956
877.034	22010
877.162	21880
877.29	21800
877.418	22036
877.546	22013
877.674	22017
877.802	21953
877.93	22055
878.058	21964
878.185	21850
878.313	21964
878.441	21899
878.568	21717
878.696	21869
878.824	21998
878.951	22082
879.079	22097
879.206	22367
879.333	22181
879.461	22010
879.588	22059
879.715	21983
879.842	22318
879.97	21994
880.097	21694
880.224	21793
880.351	21865
880.478	21762
880.605	21667
880.732	21751
880.859	21884
880.986	21591
881.112	21762
881.239	21701
881.366	21561
881.493	21420
881.619	21393
881.746	21393
881.872	21348
881.999	21386
882.125	21332
882.252	21367
882.378	21363
882.505	21450
882.631	21211
882.757	21032
882.883	21195
883.01	21055
883.136	20937
883.262	20868
883.388	20861
883.514	21089
883.64	21207
883.766	20979
883.892	20807
884.018	20921
884.143	21047
884.269	20990
884.395	20788
884.52	20686
884.646	20727
884.772	20651
884.897	20621
885.023	20727
885.148	20826
885.274	20842
885.399	20838
885.524	20629
885.65	20739
885.775	20735
885.9	20590
886.025	20853
886.15	20807
886.275	20598
886.4	20609
886.525	20655
886.65	20678
886.775	20587
886.9	20845
887.025	20933
887.149	20708
887.274	20530
887.399	20484
887.523	20438
887.648	20317
887.773	20408
887.897	20488
888.021	20469
888.146	20400
888.27	20446
888.395	20609
888.519	20511
888.643	20476
888.767	20400
888.891	20457
889.015	20278
889.139	20358
889.263	20256
889.387	20389
889.511	20450
889.635	20514
889.759	20275
889.883	20180
890.006	20332
890.13	20301
890.254	20214
890.377	20149
890.501	20008
890.624	19875
890.748	20119
890.871	20001
890.995	19826
891.118	19727
891.241	19913
891.364	19902
891.488	19974
891.611	19814
891.734	19921
891.857	19932
891.98	19894
892.103	19860
892.226	19788
892.349	19655
892.471	19586
892.594	19826
892.717	19750
892.839	19727
892.962	19849
893.085	19757
893.207	19772
893.33	19670
893.452	19757
893.575	19784
893.697	19822
893.819	19921
893.941	19898
894.064	19902
894.186	19784
894.308	19742
894.43	19837
894.552	19894
894.674	19788
894.796	19704
894.918	19685
895.04	19776
895.161	19807
895.283	19753
895.405	19681
895.526	19784
895.648	19845
895.769	19803
895.891	19807
896.012	19970
896.134	19947
896.255	19799
896.376	19670
896.498	19715
896.619	19807
896.74	19818
896.861	19940
896.982	20088
897.103	20199
897.224	19997
897.345	19936
897.466	20039
897.587	20088
897.708	20100
897.828	20058
897.949	19944
898.07	19879
898.19	19890
898.311	19993
898.431	19967
898.552	19989
898.672	20024
898.792	20183
898.913	20073
899.033	19757
899.153	19837
899.273	19750
899.393	19788
899.513	19868
899.633	19811
899.753	19814
899.873	19681
899.993	19788
900.113	19791
900.232	19651
900.352	19624
900.472	19449
900.591	19556
900.711	19578
900.83	19487
900.95	19556
901.069	19613
901.189	19415
901.308	19198
901.427	19114
901.546	19148
901.665	19110
901.784	19221
901.904	19015
902.023	18943
902.141	18783
902.26	18684
902.379	18700
902.498	18703
902.617	18787
902.735	18582
902.854	18646
902.973	18585
903.091	18281
903.21	18388
903.328	18308
903.446	18197
903.565	18178
903.683	18079
903.801	18030
903.919	18091
904.038	18095
904.156	17950
904.274	17931
904.392	17817
904.51	17980
904.627	17802
904.745	17973
904.863	18007
904.981	17786
905.098	17638
905.216	17619
905.334	17600
905.451	17615
905.569	17520
905.686	17623
905.803	17516
905.921	17376
906.038	17440
906.155	17322
906.272	17246
906.389	17261
906.506	17155
906.623	17117
906.74	17109
906.857	17018
906.974	17056
907.091	17147
907.208	17242
907.324	17132
907.441	17029
907.557	16892
907.674	16889
907.79	16786
907.907	16778
908.023	16801
908.139	16927
908.256	16881
908.372	16656
908.488	16653
908.604	16451
908.72	16584
908.836	16493
908.952	16504
909.068	16558
909.184	16664
909.3	16508
909.415	16550
909.531	16679
909.647	16341
909.762	16291
909.878	16215
909.993	16314
910.108	16242
910.224	16200
910.339	16185
910.454	16097
910.57	16074
910.685	15964
910.8	16291
910.915	16150
911.03	15975
911.145	15911
911.259	15831
911.374	15926
911.489	15698
911.604	15694
911.718	15496
911.833	15622
911.947	15454
912.062	15431
912.176	15599
912.291	15580
912.405	15519
912.519	15808
912.633	15766
912.748	15564
912.862	15610
912.976	15340
913.09	15294
913.204	15359
913.318	15370
913.431	15435
913.545	15374
913.659	15580
913.772	15416
913.886	15252
914	15116
914.113	15256
914.226	15355
914.34	15279
914.453	15097
914.566	15336
914.68	15047
914.793	14971
914.906	14906
915.019	14941
915.132	14785
915.245	14842
915.358	14891
915.47	14838
915.583	14777
915.696	14823
915.809	14857
915.921	14956
916.034	14807
916.146	14727
916.259	14678
916.371	14861
916.483	14762
916.595	14750
916.708	14670
916.82	14682
916.932	14556
917.044	14659
917.156	14621
917.268	14503
917.38	14556
917.491	14484
917.603	14560
917.715	14587
917.826	14621
917.938	14431
918.049	14438
918.161	14526
918.272	14590
918.384	14549
918.495	14434
918.606	14355
918.717	14225
918.828	14267
918.939	14347
919.05	14248
919.161	14298
919.272	14043
919.383	14103
919.494	14343
919.604	14499
919.715	14237
919.826	14214
919.936	14187
920.047	14282
920.157	14248
920.267	14404
920.378	14434
920.488	14199
920.598	14385
920.708	14575
920.818	14423
920.928	14309
921.038	14602
921.148	14514
921.258	14195
921.368	14100
921.477	13982
921.587	13936
921.697	13852
921.806	14046
921.916	13822
922.025	13791
922.134	13632
922.244	13620
922.353	13704
922.462	13521
922.571	13457
922.68	13324
922.789	13304
922.898	13225
923.007	13156
923.116	13274
923.224	13183
923.333	13213
923.442	13129
923.55	13160
923.659	13069
923.767	13209
923.876	13072
923.984	13164
924.092	12977
924.201	13065
924.309	13084
924.417	13099
924.525	12928
924.633	12943
924.741	13666
924.849	12783
924.956	12962
925.064	12810
925.172	12608
925.279	12715
925.387	12722
925.494	12764
925.602	12829
925.709	12798
925.816	12566
925.924	12589
926.031	12787
926.138	12715
926.245	12642
926.352	12536
926.459	12688
926.566	12757
926.673	12608
926.779	12429
926.886	12506
926.993	12304
927.099	12292
927.206	12239
927.312	12327
927.419	12304
927.525	12266
927.631	12281
927.737	12163
927.843	12034
927.95	11969
928.056	12136
928.162	12148
928.267	12197
928.373	12715
928.479	12270
928.585	12041
928.69	12072
928.796	12064
928.901	11908
929.007	11870
929.112	11992
929.218	11843
929.323	11931
929.428	11931
929.533	11954
929.638	11771
929.743	11824
929.848	11802
929.953	11851
930.058	11790
930.163	11501
930.267	11520
930.372	11703
930.477	11505
930.581	11630
930.685	11539
930.79	11387
930.894	11383
930.998	11455
931.103	11604
931.207	11227
931.311	11052
931.415	11018
931.519	10801
931.623	10729
