Data from test_V78500241_1702.txt Node
Date: Fri Mar 25 15:53:35 CST 2022
User: usil
Spectrometer: V785-0024
Trigger mode: 0
Integration Time (sec): 4.000000E-1
Scans to average: 1
Nonlinearity correction enabled: false
Boxcar width: 0
Storing dark spectrum: false
XAxis mode: Wavelengths
Number of Pixels in Spectrum: 1024
>>>>>Begin Spectral Data<<<<<
801.071	28154
801.214	28116
801.356	27918
801.499	27755
801.641	27698
801.783	27709
801.926	27793
802.068	27663
802.211	27637
802.353	27534
802.496	27329
802.638	27340
802.78	27382
802.923	27279
803.065	27218
803.208	27367
803.35	27397
803.492	27477
803.635	27652
803.777	27439
803.919	27450
804.061	27937
804.204	27553
804.346	27595
804.488	27603
804.63	27618
804.773	27427
804.915	27637
805.057	27690
805.199	27530
805.341	27701
805.483	27694
805.626	27660
805.768	27671
805.91	27781
806.052	27842
806.194	27778
806.336	27895
806.478	27854
806.62	27660
806.762	27873
806.904	28082
807.046	28188
807.188	28268
807.33	28200
807.472	28166
807.614	28131
807.756	28124
807.898	28055
808.04	27812
808.182	28025
808.324	28074
808.465	28032
808.607	28147
808.749	28238
808.891	28474
809.033	28485
809.174	28421
809.316	28303
809.458	28242
809.6	28253
809.741	28557
809.883	28470
810.025	28702
810.166	28611
810.308	28645
810.45	28660
810.591	28577
810.733	28337
810.875	28318
811.016	28303
811.158	28242
811.299	28535
811.441	28649
811.582	28440
811.724	28382
811.865	28348
812.007	28291
812.148	28379
812.29	28451
812.431	28637
812.573	28660
812.714	28831
812.855	28927
812.997	28938
813.138	29037
813.279	29128
813.421	28911
813.562	28835
813.703	28691
813.845	28554
813.986	28318
814.127	28162
814.268	28154
814.41	28112
814.551	28215
814.692	28112
814.833	28025
814.974	27983
815.115	28124
815.256	27987
815.397	28112
815.539	27960
815.68	27770
815.821	27979
815.962	27823
816.103	27895
816.244	27667
816.385	27804
816.526	27823
816.666	27595
816.807	27306
816.948	27386
817.089	27447
817.23	27466
817.371	27264
817.512	27374
817.653	27184
817.793	27264
817.934	27481
818.075	27306
818.216	27397
818.356	27298
818.497	27275
818.638	27222
818.778	27184
818.919	27260
819.06	27062
819.2	27287
819.341	27298
819.481	27340
819.622	27507
819.762	27679
819.903	27542
820.043	27359
820.184	27542
820.324	27462
820.465	27526
820.605	27538
820.746	27507
820.886	27264
821.026	27591
821.167	27393
821.307	27504
821.447	27393
821.588	27386
821.728	27233
821.868	27055
822.008	26895
822.149	26830
822.289	26899
822.429	26613
822.569	26583
822.709	26545
822.849	26389
822.99	26294
823.13	26237
823.27	26210
823.41	26149
823.55	26069
823.69	26271
823.83	26244
823.97	26107
824.11	26039
824.25	25921
824.389	26062
824.529	26161
824.669	25955
824.809	26134
824.949	26081
825.089	26111
825.228	26092
825.368	25883
825.508	25894
825.648	25879
825.787	25898
825.927	25887
826.067	25837
826.206	25875
826.346	25849
826.485	25955
826.625	25818
826.765	26092
826.904	25833
827.044	25628
827.183	25616
827.323	25544
827.462	25567
827.601	25742
827.741	25620
827.88	25540
828.02	25453
828.159	25472
828.298	25525
828.437	25712
828.577	25468
828.716	25715
828.855	25472
828.994	25209
829.134	25190
829.273	25426
829.412	25198
829.551	25171
829.69	25251
829.829	25213
829.968	25255
830.107	25285
830.246	25228
830.385	25145
830.524	25225
830.663	24992
830.802	24897
830.941	24795
831.08	24913
831.219	24928
831.357	25061
831.496	25069
831.635	24905
831.774	24806
831.913	24776
832.051	24673
832.19	24635
832.329	24665
832.467	24585
832.606	24547
832.744	24483
832.883	24467
833.022	24521
833.16	24498
833.299	24525
833.437	24555
833.576	24741
833.714	24646
833.852	24547
833.991	24502
834.129	24768
834.267	24639
834.406	24486
834.544	24673
834.682	24604
834.821	24544
834.959	24764
835.097	24544
835.235	24688
835.373	24566
835.511	24608
835.65	24540
835.788	24437
835.926	24296
836.064	24300
836.202	24334
836.34	24380
836.478	24544
836.615	24395
836.753	24502
836.891	24399
837.029	24498
837.167	24323
837.305	24369
837.443	24296
837.58	24315
837.718	24330
837.856	24327
837.993	24201
838.131	24372
838.269	24163
838.406	24159
838.544	24144
838.681	23977
838.819	23832
838.956	23813
839.094	23707
839.231	23756
839.369	23851
839.506	24220
839.643	24049
839.781	23680
839.918	23733
840.055	23786
840.193	23638
840.33	23623
840.467	23718
840.604	23676
840.742	23946
840.879	23520
841.016	23619
841.153	23558
841.29	23585
841.427	23608
841.564	23649
841.701	23627
841.838	23512
841.975	23596
842.112	23608
842.249	23421
842.385	23417
842.522	23581
842.659	23433
842.796	23467
842.933	23463
843.069	23429
843.206	23360
843.343	23448
843.479	23364
843.616	23486
843.752	23254
843.889	23223
844.025	23383
844.162	23113
844.298	23151
844.435	23341
844.571	23265
844.708	23189
844.844	23330
844.98	23417
845.117	23265
845.253	23075
845.389	23064
845.525	23041
845.661	23010
845.798	22847
845.934	22911
846.07	22987
846.206	22866
846.342	23064
846.478	22755
846.614	22713
846.75	22599
846.886	22653
847.022	22828
847.158	22790
847.294	22843
847.429	22637
847.565	22637
847.701	22869
847.837	22386
847.972	22348
848.108	22432
848.244	22382
848.379	22337
848.515	22181
848.65	22196
848.786	22188
848.921	22299
849.057	22382
849.192	22348
849.328	22375
849.463	22215
849.598	22226
849.734	22192
849.869	22017
850.004	22006
850.14	22135
850.275	22036
850.41	21922
850.545	21873
850.68	21994
850.815	21968
850.95	22010
851.085	22211
851.22	22006
851.355	22040
851.49	22017
851.625	21964
851.76	22044
851.895	21861
852.03	21895
852.165	21960
852.299	21937
852.434	22082
852.569	22074
852.703	22070
852.838	22013
852.973	22154
853.107	22086
853.242	21941
853.376	21850
853.511	21739
853.645	21884
853.78	21884
853.914	21884
854.048	21808
854.183	21876
854.317	21774
854.451	21937
854.585	21838
854.72	21888
854.854	21823
854.988	21709
855.122	21857
855.256	21705
855.39	21743
855.524	21876
855.658	21892
855.792	21816
855.926	21720
856.06	21850
856.194	21850
856.327	21842
856.461	21793
856.595	21732
856.729	21785
856.862	21762
856.996	21808
857.13	21949
857.263	21911
857.397	21998
857.53	21816
857.664	21922
857.797	21774
857.931	21880
858.064	21895
858.197	21930
858.331	21713
858.464	21747
858.597	21751
858.731	21831
858.864	21755
858.997	21728
859.13	21831
859.263	21797
859.396	21827
859.529	21808
859.662	21785
859.795	21766
859.928	21835
860.061	22055
860.194	21994
860.327	21895
860.46	21880
860.592	21823
860.725	21968
860.858	21884
860.99	21823
861.123	21618
861.256	21751
861.388	21911
861.521	22683
861.653	21701
861.786	21587
861.918	21732
862.05	21751
862.183	21720
862.315	21770
862.447	21823
862.58	21759
862.712	21591
862.844	21504
862.976	21633
863.108	21549
863.24	21972
863.372	21523
863.504	21488
863.636	21568
863.768	21625
863.9	21690
864.032	21542
864.164	21504
864.296	21561
864.428	21701
864.559	21633
864.691	21511
864.823	21690
864.954	21561
865.086	21435
865.217	21458
865.349	21397
865.48	21386
865.612	21397
865.743	21622
865.875	21496
866.006	21504
866.137	21412
866.269	21378
866.4	21542
866.531	21393
866.662	21336
866.793	21469
866.924	21447
867.055	21412
867.186	21374
867.317	21256
867.448	21226
867.579	21348
867.71	21184
867.841	21283
867.972	21348
868.103	21428
868.233	21420
868.364	21332
868.495	21496
868.625	21622
868.756	21770
868.886	21572
869.017	21576
869.147	21644
869.278	21694
869.408	21675
869.539	21644
869.669	21526
869.799	21717
869.929	21644
870.06	21743
870.19	21846
870.32	21918
870.45	21915
870.58	22036
870.71	22219
870.84	22131
870.97	21983
871.1	22040
871.23	22154
871.36	22200
871.489	22109
871.619	22303
871.749	22109
871.879	22272
872.008	22360
872.138	22280
872.267	22116
872.397	22010
872.526	22070
872.656	22067
872.785	22139
872.915	22280
873.044	22485
873.173	22272
873.303	22337
873.432	22295
873.561	22447
873.69	22265
873.819	22223
873.948	22322
874.077	22173
874.206	22261
874.335	22246
874.464	22390
874.593	22424
874.722	22367
874.851	22481
874.979	22375
875.108	22577
875.237	22462
875.365	22291
875.494	22550
875.623	22546
875.751	22485
875.88	22519
876.008	22516
876.136	22645
876.265	22854
876.393	23052
876.521	22862
876.65	23025
876.778	22744
876.906	22744
877.034	22786
877.162	22694
877.29	22683
877.418	22790
877.546	22873
877.674	22752
877.802	22786
877.93	22797
878.058	22812
878.185	22611
878.313	22782
878.441	22702
878.568	22725
878.696	22694
878.824	22915
878.951	22847
879.079	22877
879.206	23124
879.333	22976
879.461	22839
879.588	22908
879.715	22938
879.842	23071
879.97	22866
880.097	22569
880.224	22615
880.351	22656
880.478	22687
880.605	22611
880.732	22626
880.859	22904
880.986	22645
881.112	22523
881.239	22504
881.366	22386
881.493	22280
881.619	22257
881.746	22230
881.872	22112
881.999	22131
882.125	22158
882.252	22166
882.378	22143
882.505	22314
882.631	22063
882.757	21964
882.883	21972
883.01	21892
883.136	21827
883.262	21743
883.388	21648
883.514	21827
883.64	21850
883.766	21819
883.892	21545
884.018	21625
884.143	21804
884.269	21869
884.395	21511
884.52	21466
884.646	21454
884.772	21481
884.897	21389
885.023	21545
885.148	21644
885.274	21679
885.399	21603
885.524	21526
885.65	21530
885.775	21519
885.9	21534
886.025	21568
886.15	21564
886.275	21519
886.4	21447
886.525	21496
886.65	21431
886.775	21382
886.9	21538
887.025	21663
887.149	21564
887.274	21401
887.399	21287
887.523	21241
887.648	21184
887.773	21165
887.897	21401
888.021	21351
888.146	21119
888.27	21340
888.395	21351
888.519	21355
888.643	21370
888.767	21272
888.891	21237
889.015	21112
889.139	21127
889.263	21051
889.387	21150
889.511	21332
889.635	21207
889.759	21157
889.883	20986
890.006	21123
890.13	21142
890.254	20971
890.377	20868
890.501	20883
890.624	20823
890.748	20792
890.871	20765
890.995	20632
891.118	20617
891.241	20636
891.364	20670
891.488	20902
891.611	20716
891.734	20621
891.857	20689
891.98	20651
892.103	20629
892.226	20735
892.349	20602
892.471	20461
892.594	20606
892.717	20541
892.839	20655
892.962	20560
893.085	20518
893.207	20564
893.33	20450
893.452	20374
893.575	20571
893.697	20541
893.819	20648
893.941	20651
894.064	20712
894.186	20495
894.308	20545
894.43	20678
894.552	20648
894.674	20533
894.796	20434
894.918	20473
895.04	20377
895.161	20549
895.283	20609
895.405	20412
895.526	20495
895.648	20590
895.769	20594
895.891	20655
896.012	20689
896.134	20556
896.255	20427
896.376	20415
896.498	20568
896.619	20518
896.74	20552
896.861	20663
896.982	20880
897.103	20982
897.224	20910
897.345	20864
897.466	20621
897.587	20746
897.708	20834
897.828	20849
897.949	20720
898.07	20663
898.19	20697
898.311	20777
898.431	20678
898.552	20800
898.672	20750
898.792	20724
898.913	20727
899.033	20697
899.153	20522
899.273	20476
899.393	20552
899.513	20541
899.633	20476
899.753	20469
899.873	20385
899.993	20412
900.113	20419
900.232	20347
900.352	20454
900.472	20305
900.591	20187
900.711	20164
900.83	20244
900.95	20339
901.069	20381
901.189	20267
901.308	19932
901.427	19761
901.546	19833
901.665	19795
901.784	19814
901.904	19761
902.023	19655
902.141	19415
902.26	19362
902.379	19518
902.498	19373
902.617	19312
902.735	19255
902.854	19396
902.973	19270
903.091	18989
903.21	18932
903.328	19080
903.446	18810
903.565	18875
903.683	18859
903.801	18707
903.919	18821
904.038	18837
904.156	18547
904.274	18612
904.392	18669
904.51	18616
904.627	18570
904.745	18582
904.863	18601
904.981	18384
905.098	18133
905.216	18296
905.334	18327
905.451	18182
905.569	18228
905.686	18311
905.803	18155
905.921	18045
906.038	18140
906.155	18041
906.272	17939
906.389	17893
906.506	17817
906.623	17786
906.74	17741
906.857	17729
906.974	17752
907.091	17786
907.208	17897
907.324	17805
907.441	17710
907.557	17471
907.674	17421
907.79	17425
907.907	17414
908.023	17512
908.139	17490
908.256	17406
908.372	17364
908.488	17372
908.604	17193
908.72	17147
908.836	17299
908.952	17079
909.068	17231
909.184	17200
909.3	17143
909.415	17318
909.531	17174
909.647	16896
909.762	16850
909.878	16915
909.993	16908
910.108	16881
910.224	16877
910.339	16831
910.454	16736
910.57	16694
910.685	16626
910.8	16923
910.915	16984
911.03	16672
911.145	16611
911.259	16443
911.374	16451
911.489	16375
911.604	16436
911.718	16284
911.833	16200
911.947	16143
912.062	16090
912.176	16177
912.291	16295
912.405	16291
912.519	16363
912.633	16398
912.748	16287
912.862	16238
912.976	16044
913.09	15930
913.204	16040
913.318	16051
913.431	16169
913.545	16204
913.659	16120
913.772	16032
913.886	15816
914	15873
914.113	15907
914.226	15941
914.34	15876
914.453	15793
914.566	15857
914.68	15698
914.793	15709
914.906	15561
915.019	15424
915.132	15428
915.245	15272
915.358	15473
915.47	15477
915.583	15473
915.696	15458
915.809	15530
915.921	15549
916.034	15435
916.146	15389
916.259	15367
916.371	15401
916.483	15310
916.595	15233
916.708	15245
916.82	15340
916.932	15180
917.044	15203
917.156	15237
917.268	15142
917.38	15051
917.491	15116
917.603	15017
917.715	15173
917.826	15112
917.938	14956
918.049	14921
918.161	15024
918.272	15176
918.384	15119
918.495	14994
918.606	14887
918.717	14750
918.828	14838
918.939	14842
919.05	14705
919.161	14796
919.272	14617
919.383	14670
919.494	14910
919.604	15066
919.715	14815
919.826	14773
919.936	14724
920.047	14819
920.157	14781
920.267	15009
920.378	14788
920.488	14667
920.598	14975
920.708	15066
920.818	14941
920.928	14975
921.038	15009
921.148	15081
921.258	14682
921.368	14670
921.477	14575
921.587	14579
921.697	14336
921.806	14644
921.916	14370
922.025	14187
922.134	14145
922.244	14005
922.353	14088
922.462	14088
922.571	13906
922.68	13894
922.789	13799
922.898	13795
923.007	13727
923.116	13833
923.224	13753
923.333	13807
923.442	13696
923.55	13639
923.659	13674
923.767	13647
923.876	13647
923.984	13639
924.092	13552
924.201	13514
924.309	13662
924.417	13540
924.525	13468
924.633	13384
924.741	14157
924.849	13240
924.956	13346
925.064	13297
925.172	13206
925.279	13110
925.387	13255
925.494	13206
925.602	13312
925.709	13285
925.816	13133
925.924	13095
926.031	13263
926.138	13129
926.245	13217
926.352	13046
926.459	13228
926.566	13270
926.673	13209
926.779	12939
926.886	12897
926.993	12715
927.099	12764
927.206	12730
927.312	12681
927.419	12890
927.525	12753
927.631	12719
927.737	12681
927.843	12646
927.95	12506
928.056	12623
928.162	12593
928.267	12639
928.373	13312
928.479	12597
928.585	12388
928.69	12513
928.796	12532
928.901	12445
929.007	12311
929.112	12513
929.218	12369
929.323	12327
929.428	12292
929.533	12437
929.638	12205
929.743	12292
929.848	12243
929.953	12262
930.058	12102
930.163	12053
930.267	12015
930.372	12076
930.477	11931
930.581	12178
930.685	12007
930.79	11828
930.894	11874
930.998	11817
931.103	11927
931.207	11630
931.311	11543
931.415	11501
931.519	11277
931.623	11277
