Data from test_V78500241_1130.txt Node
Date: Fri Mar 25 15:49:37 CST 2022
User: usil
Spectrometer: V785-0024
Trigger mode: 0
Integration Time (sec): 4.000000E-1
Scans to average: 1
Nonlinearity correction enabled: false
Boxcar width: 0
Storing dark spectrum: false
XAxis mode: Wavelengths
Number of Pixels in Spectrum: 1024
>>>>>Begin Spectral Data<<<<<
801.071	28538
801.214	28489
801.356	28154
801.499	28093
801.641	27907
801.783	28097
801.926	28090
802.068	28055
802.211	28006
802.353	27880
802.496	27724
802.638	27682
802.78	27553
802.923	27728
803.065	27610
803.208	27720
803.35	27759
803.492	27922
803.635	28025
803.777	27850
803.919	28010
804.061	28265
804.204	28063
804.346	27888
804.488	27823
804.63	28036
804.773	27968
804.915	27911
805.057	27983
805.199	27797
805.341	27998
805.483	28112
805.626	28097
805.768	28002
805.91	28166
806.052	28116
806.194	28082
806.336	28371
806.478	28150
806.62	28192
806.762	28215
806.904	28173
807.046	28588
807.188	28550
807.33	28478
807.472	28649
807.614	28523
807.756	28557
807.898	28481
808.04	28405
808.182	28382
808.324	28489
808.465	28436
808.607	28615
808.749	28896
808.891	28736
809.033	28987
809.174	28885
809.316	28752
809.458	28847
809.6	28835
809.741	28984
809.883	29022
810.025	29151
810.166	29178
810.308	29178
810.45	28995
810.591	28885
810.733	28923
810.875	28900
811.016	28797
811.158	28641
811.299	28995
811.441	28946
811.582	28873
811.724	28911
811.865	28786
812.007	28824
812.148	28790
812.29	28930
812.431	29094
812.573	29265
812.714	29315
812.855	29375
812.997	29440
813.138	29531
813.279	29543
813.421	29395
813.562	29326
813.703	29105
813.845	28999
813.986	28679
814.127	28740
814.268	28538
814.41	28607
814.551	28516
814.692	28580
814.833	28432
814.974	28478
815.115	28577
815.256	28531
815.397	28443
815.539	28371
815.68	28325
815.821	28181
815.962	28390
816.103	28341
816.244	28154
816.385	28124
816.526	28101
816.666	28105
816.807	27812
816.948	27888
817.089	27972
817.23	27953
817.371	27831
817.512	27850
817.653	27789
817.793	27846
817.934	27922
818.075	27880
818.216	27800
818.356	27926
818.497	27618
818.638	27473
818.778	27549
818.919	27701
819.06	27637
819.2	27739
819.341	27895
819.481	27648
819.622	27899
819.762	28295
819.903	28048
820.043	28082
820.184	28086
820.324	27865
820.465	27972
820.605	28010
820.746	27960
820.886	27892
821.026	27926
821.167	27869
821.307	28059
821.447	27739
821.588	27751
821.728	27671
821.868	27496
822.008	27302
822.149	27260
822.289	27260
822.429	27135
822.569	27066
822.709	27180
822.849	26929
822.99	26754
823.13	26853
823.27	26880
823.41	26758
823.55	26575
823.69	26735
823.83	26727
823.97	26476
824.11	26324
824.25	26400
824.389	26438
824.529	26499
824.669	26587
824.809	26606
824.949	26587
825.089	26648
825.228	26606
825.368	26446
825.508	26282
825.648	26252
825.787	26412
825.927	26469
826.067	26263
826.206	26275
826.346	26480
826.485	26389
826.625	26469
826.765	26427
826.904	26431
827.044	26153
827.183	26199
827.323	26039
827.462	26214
827.601	26039
827.741	26138
827.88	26138
828.02	25963
828.159	26130
828.298	26035
828.437	26218
828.577	25875
828.716	26092
828.855	26031
828.994	25689
829.134	25860
829.273	25871
829.412	25765
829.551	25639
829.69	25772
829.829	25624
829.968	25795
830.107	25776
830.246	25966
830.385	25788
830.524	25708
830.663	25533
830.802	25495
830.941	25301
831.08	25381
831.219	25479
831.357	25586
831.496	25696
831.635	25438
831.774	25206
831.913	25228
832.051	25080
832.19	25114
832.329	25187
832.467	25160
832.606	24928
832.744	24920
832.883	25168
833.022	24951
833.16	25015
833.299	25110
833.437	25145
833.576	25133
833.714	25084
833.852	25122
833.991	25232
834.129	25335
834.267	25107
834.406	25156
834.544	25057
834.682	24981
834.821	25084
834.959	25331
835.097	24992
835.235	25080
835.373	24996
835.511	25076
835.65	24882
835.788	25004
835.926	24749
836.064	24749
836.202	24745
836.34	24829
836.478	24829
836.615	25008
836.753	24856
836.891	24996
837.029	24901
837.167	24901
837.305	24848
837.443	24707
837.58	24894
837.718	24840
837.856	24810
837.993	24840
838.131	24878
838.269	24639
838.406	24635
838.544	24517
838.681	24323
838.819	24323
838.956	24315
839.094	24144
839.231	24258
839.369	24311
839.506	24532
839.643	24479
839.781	24334
839.918	24060
840.055	24254
840.193	24182
840.33	24083
840.467	24102
840.604	24262
840.742	24380
840.879	24026
841.016	24087
841.153	24038
841.29	24285
841.427	24182
841.564	24178
841.701	24148
841.838	24182
841.975	23999
842.112	24117
842.249	23950
842.385	24022
842.522	24201
842.659	23828
842.796	23920
842.933	23942
843.069	23851
843.206	23912
843.343	23893
843.479	23786
843.616	23817
843.752	23691
843.889	23570
844.025	23805
844.162	23630
844.298	23771
844.435	23687
844.571	23665
844.708	23581
844.844	23699
844.98	23878
845.117	23756
845.253	23642
845.389	23444
845.525	23383
845.661	23444
845.798	23528
845.934	23452
846.07	23288
846.206	23455
846.342	23501
846.478	23376
846.614	23204
846.75	23090
846.886	23113
847.022	23185
847.158	23200
847.294	23098
847.429	23098
847.565	23052
847.701	23349
847.837	22820
847.972	22812
848.108	22854
848.244	22889
848.379	22816
848.515	22767
848.65	22660
848.786	22736
848.921	22691
849.057	22717
849.192	22748
849.328	22824
849.463	22721
849.598	22630
849.734	22603
849.869	22500
850.004	22516
850.14	22478
850.275	22508
850.41	22405
850.545	22421
850.68	22428
850.815	22538
850.95	22470
851.085	22592
851.22	22561
851.355	22428
851.49	22314
851.625	22459
851.76	22417
851.895	22443
852.03	22314
852.165	22451
852.299	22485
852.434	22508
852.569	22615
852.703	22424
852.838	22649
852.973	22679
853.107	22512
853.242	22432
853.376	22356
853.511	22162
853.645	22166
853.78	22402
853.914	22295
854.048	22246
854.183	22238
854.317	22173
854.451	22394
854.585	22310
854.72	22295
854.854	22333
854.988	22215
855.122	22322
855.256	22177
855.39	22291
855.524	22451
855.658	22310
855.792	22310
855.926	22196
856.06	22325
856.194	22360
856.327	22268
856.461	22337
856.595	22204
856.729	22265
856.862	22322
856.996	22379
857.13	22211
857.263	22265
857.397	22417
857.53	22310
857.664	22352
857.797	22428
857.931	22386
858.064	22272
858.197	22428
858.331	22143
858.464	22101
858.597	22051
858.731	22341
858.864	22253
858.997	22128
859.13	22303
859.263	22192
859.396	22318
859.529	22135
859.662	22295
859.795	22242
859.928	22478
860.061	22500
860.194	22382
860.327	22356
860.46	22409
860.592	22341
860.725	22268
860.858	22246
860.99	22280
861.123	22124
861.256	22211
861.388	22246
861.521	22915
861.653	22158
861.786	22002
861.918	22124
862.05	22135
862.183	22181
862.315	22162
862.447	22188
862.58	22139
862.712	22078
862.844	21937
862.976	21934
863.108	22025
863.24	22432
863.372	21911
863.504	21945
863.636	21922
863.768	21937
863.9	22002
864.032	21945
864.164	21907
864.296	22063
864.428	22097
864.559	21972
864.691	21972
864.823	21956
864.954	21956
865.086	21941
865.217	21884
865.349	21724
865.48	21899
865.612	21926
865.743	22074
865.875	21804
866.006	21934
866.137	22021
866.269	21949
866.4	21873
866.531	21800
866.662	21770
866.793	21762
866.924	21686
867.055	21884
867.186	21819
867.317	21808
867.448	21774
867.579	21854
867.71	21781
867.841	21751
867.972	21903
868.103	21762
868.233	21907
868.364	21808
868.495	21846
868.625	21949
868.756	22169
868.886	21994
869.017	21991
869.147	22211
869.278	22017
869.408	22063
869.539	21945
869.669	22139
869.799	22093
869.929	22162
870.06	22116
870.19	22249
870.32	22291
870.45	22447
870.58	22379
870.71	22451
870.84	22630
870.97	22481
871.1	22478
871.23	22618
871.36	22653
871.489	22504
871.619	22645
871.749	22767
871.879	22717
872.008	22755
872.138	22573
872.267	22538
872.397	22421
872.526	22489
872.656	22535
872.785	22341
872.915	22713
873.044	22637
873.173	22611
873.303	22634
873.432	22668
873.561	22805
873.69	22531
873.819	22607
873.948	22596
874.077	22771
874.206	22649
874.335	22630
874.464	22607
874.593	22919
874.722	22729
874.851	22873
874.979	22976
875.108	22839
875.237	22831
875.365	22831
875.494	22828
875.623	22843
875.751	22782
875.88	22869
876.008	22934
876.136	23109
876.265	23383
876.393	23490
876.521	23341
876.65	23292
876.778	23296
876.906	23155
877.034	23143
877.162	23185
877.29	23143
877.418	23166
877.546	23231
877.674	23170
877.802	23254
877.93	23220
878.058	23064
878.185	23083
878.313	23162
878.441	23212
878.568	23109
878.696	23220
878.824	23185
878.951	23178
879.079	23417
879.206	23562
879.333	23341
879.461	23212
879.588	23334
879.715	23429
879.842	23440
879.97	23318
880.097	22919
880.224	22972
880.351	22980
880.478	23060
880.605	22999
880.732	22965
880.859	23258
880.986	22999
881.112	22980
881.239	22850
881.366	22687
881.493	22603
881.619	22573
881.746	22523
881.872	22645
881.999	22493
882.125	22535
882.252	22729
882.378	22535
882.505	22656
882.631	22538
882.757	22287
882.883	22333
883.01	22272
883.136	22147
883.262	22093
883.388	22162
883.514	22261
883.64	22207
883.766	22150
883.892	21998
884.018	22029
884.143	22238
884.269	22276
884.395	22059
884.52	21941
884.646	21850
884.772	21892
884.897	21793
885.023	21918
885.148	21964
885.274	21934
885.399	21953
885.524	21892
885.65	21831
885.775	21785
885.9	21911
886.025	21850
886.15	21816
886.275	21785
886.4	21895
886.525	21907
886.65	21778
886.775	21831
886.9	22006
887.025	22063
887.149	21873
887.274	21656
887.399	21690
887.523	21686
887.648	21549
887.773	21679
887.897	21743
888.021	21694
888.146	21785
888.27	21797
888.395	21789
888.519	21629
888.643	21732
888.767	21724
888.891	21477
889.015	21568
889.139	21462
889.263	21443
889.387	21534
889.511	21641
889.635	21576
889.759	21256
889.883	21370
890.006	21481
890.13	21500
890.254	21344
890.377	21370
890.501	21214
890.624	21165
890.748	21283
890.871	21131
890.995	21024
891.118	20925
891.241	21005
891.364	21047
891.488	21001
891.611	20982
891.734	20986
891.857	20975
891.98	21085
892.103	21096
892.226	21005
892.349	20914
892.471	20834
892.594	20994
892.717	20998
892.839	20910
892.962	20956
893.085	20937
893.207	20864
893.33	20621
893.452	20845
893.575	20941
893.697	20826
893.819	21055
893.941	21066
894.064	20952
894.186	20849
894.308	21001
894.43	20986
894.552	20967
894.674	20918
894.796	20823
894.918	20754
895.04	20796
895.161	20857
895.283	20944
895.405	20739
895.526	20883
895.648	20785
895.769	20861
895.891	20918
896.012	20857
896.134	20952
896.255	20906
896.376	20720
896.498	20864
896.619	21032
896.74	20750
896.861	20998
896.982	21104
897.103	21336
897.224	21150
897.345	21180
897.466	20994
897.587	21104
897.708	21287
897.828	21169
897.949	21100
898.07	20883
898.19	21036
898.311	21180
898.431	21093
898.552	21096
898.672	21214
898.792	21173
898.913	21081
899.033	20921
899.153	20872
899.273	20823
899.393	20857
899.513	20823
899.633	20754
899.753	20739
899.873	20883
899.993	20872
900.113	20670
900.232	20777
900.352	20788
900.472	20621
900.591	20526
900.711	20564
900.83	20518
900.95	20750
901.069	20686
901.189	20454
901.308	20221
901.427	20138
901.546	20100
901.665	20214
901.784	20229
901.904	20142
902.023	19928
902.141	19856
902.26	19746
902.379	19852
902.498	19742
902.617	19662
902.735	19704
902.854	19715
902.973	19674
903.091	19304
903.21	19270
903.328	19217
903.446	19202
903.565	19080
903.683	19072
903.801	19046
903.919	18977
904.038	18996
904.156	18962
904.274	18993
904.392	18863
904.51	18856
904.627	18894
904.745	18894
904.863	18970
904.981	18593
905.098	18593
905.216	18525
905.334	18566
905.451	18513
905.569	18585
905.686	18582
905.803	18452
905.921	18391
906.038	18433
906.155	18399
906.272	18106
906.389	18319
906.506	18125
906.623	18015
906.74	18129
906.857	17927
906.974	17973
907.091	18133
907.208	18197
907.324	18106
907.441	17901
907.557	17832
907.674	17794
907.79	17802
907.907	17824
908.023	17691
908.139	17756
908.256	17859
908.372	17718
908.488	17592
908.604	17474
908.72	17520
908.836	17573
908.952	17478
909.068	17444
909.184	17528
909.3	17444
909.415	17429
909.531	17543
909.647	17292
909.762	17174
909.878	17121
909.993	17242
910.108	17185
910.224	17098
910.339	17128
910.454	17056
910.57	17052
910.685	16938
910.8	17269
910.915	17098
911.03	16961
911.145	16889
911.259	16744
911.374	16774
911.489	16698
911.604	16596
911.718	16489
911.833	16584
911.947	16592
912.062	16287
912.176	16535
912.291	16519
912.405	16546
912.519	16694
912.633	16790
912.748	16500
912.862	16428
912.976	16375
913.09	16234
913.204	16280
913.318	16432
913.431	16352
913.545	16348
913.659	16527
913.772	16287
913.886	16196
914	16166
914.113	16158
914.226	16257
914.34	16238
914.453	16048
914.566	16204
914.68	16032
914.793	15941
914.906	15819
915.019	15770
915.132	15648
915.245	15682
915.358	15682
915.47	15743
915.583	15679
915.696	15762
915.809	15747
915.921	15785
916.034	15553
916.146	15614
916.259	15515
916.371	15732
916.483	15644
916.595	15519
916.708	15584
916.82	15515
916.932	15515
917.044	15428
917.156	15466
917.268	15408
917.38	15408
917.491	15310
917.603	15351
917.715	15359
917.826	15378
917.938	15329
918.049	15283
918.161	15233
918.272	15382
918.384	15363
918.495	15260
918.606	15135
918.717	15036
918.828	15013
918.939	15165
919.05	14990
919.161	15055
919.272	14910
919.383	14906
919.494	15287
919.604	15150
919.715	15089
919.826	14834
919.936	15009
920.047	15180
920.157	15009
920.267	15176
920.378	14979
920.488	14975
920.598	15203
920.708	15291
920.818	15150
920.928	15024
921.038	15431
921.148	15279
921.258	14998
921.368	14872
921.477	14777
921.587	14724
921.697	14670
921.806	14739
921.916	14651
922.025	14457
922.134	14404
922.244	14454
922.353	14454
922.462	14278
922.571	14134
922.68	14153
922.789	14039
922.898	14035
923.007	14096
923.116	14058
923.224	14103
923.333	13974
923.442	13925
923.55	13868
923.659	13944
923.767	13944
923.876	13841
923.984	13879
924.092	13723
924.201	13784
924.309	13883
924.417	13799
924.525	13742
924.633	13753
924.741	14473
924.849	13495
924.956	13575
925.064	13468
925.172	13403
925.279	13434
925.387	13426
925.494	13384
925.602	13449
925.709	13430
925.816	13415
925.924	13346
926.031	13449
926.138	13381
926.245	13343
926.352	13324
926.459	13301
926.566	13495
926.673	13324
926.779	13110
926.886	13206
926.993	13023
927.099	13122
927.206	12897
927.312	12985
927.419	13034
927.525	13076
927.631	12985
927.737	12844
927.843	12867
927.95	12684
928.056	12707
928.162	12768
928.267	12848
928.373	13365
928.479	12814
928.585	12616
928.69	12757
928.796	12688
928.901	12787
929.007	12521
929.112	12631
929.218	12620
929.323	12521
929.428	12506
929.533	12768
929.638	12452
929.743	12517
929.848	12426
929.953	12372
930.058	12388
930.163	12239
930.267	12190
930.372	12281
930.477	12155
930.581	12350
930.685	12182
930.79	12091
930.894	12102
930.998	12026
931.103	12171
931.207	11741
931.311	11790
931.415	11653
931.519	11482
931.623	11387
