Data from test_V78500241_549.txt Node
Date: Fri Mar 25 15:45:36 CST 2022
User: usil
Spectrometer: V785-0024
Trigger mode: 0
Integration Time (sec): 4.000000E-1
Scans to average: 1
Nonlinearity correction enabled: false
Boxcar width: 0
Storing dark spectrum: false
XAxis mode: Wavelengths
Number of Pixels in Spectrum: 1024
>>>>>Begin Spectral Data<<<<<
801.071	27641
801.214	27637
801.356	27473
801.499	27302
801.641	27332
801.783	27165
801.926	27260
802.068	27256
802.211	27256
802.353	27066
802.496	26899
802.638	26845
802.78	27017
802.923	26769
803.065	26796
803.208	26758
803.35	26800
803.492	26899
803.635	26956
803.777	26872
803.919	26986
804.061	27272
804.204	27001
804.346	27055
804.488	26937
804.63	27013
804.773	26960
804.915	27100
805.057	27146
805.199	26910
805.341	27093
805.483	27199
805.626	27222
805.768	27043
805.91	26990
806.052	27188
806.194	27074
806.336	27283
806.478	27180
806.62	27249
806.762	27306
806.904	27329
807.046	27736
807.188	27625
807.33	27511
807.472	27644
807.614	27386
807.756	27694
807.898	27412
808.04	27424
808.182	27443
808.324	27538
808.465	27485
808.607	27709
808.749	27781
808.891	27694
809.033	28048
809.174	27922
809.316	27884
809.458	27808
809.6	27755
809.741	28051
809.883	28010
810.025	28059
810.166	28013
810.308	28143
810.45	28032
810.591	27918
810.733	27804
810.875	27827
811.016	27572
811.158	27629
811.299	27895
811.441	27968
811.582	27998
811.724	27698
811.865	27679
812.007	27728
812.148	27660
812.29	27838
812.431	27800
812.573	28128
812.714	28246
812.855	28341
812.997	28432
813.138	28565
813.279	28565
813.421	28188
813.562	28276
813.703	28131
813.845	27941
813.986	27629
814.127	27587
814.268	27458
814.41	27515
814.551	27504
814.692	27481
814.833	27252
814.974	27283
815.115	27462
815.256	27203
815.397	27283
815.539	27291
815.68	27283
815.821	27100
815.962	27249
816.103	27211
816.244	27081
816.385	26948
816.526	27123
816.666	26929
816.807	26598
816.948	26830
817.089	26701
817.23	26746
817.371	26739
817.512	26754
817.653	26762
817.793	26480
817.934	26834
818.075	26720
818.216	26804
818.356	26686
818.497	26526
818.638	26522
818.778	26499
818.919	26507
819.06	26427
819.2	26480
819.341	26716
819.481	26686
819.622	26792
819.762	26952
819.903	26921
820.043	26883
820.184	26902
820.324	26914
820.465	26902
820.605	26921
820.746	26910
820.886	26670
821.026	26746
821.167	26785
821.307	26815
821.447	26701
821.588	26602
821.728	26537
821.868	26446
822.008	26183
822.149	26130
822.289	26084
822.429	25837
822.569	25780
822.709	25864
822.849	25556
822.99	25609
823.13	25632
823.27	25765
823.41	25651
823.55	25548
823.69	25556
823.83	25308
823.97	25514
824.11	25445
824.25	25289
824.389	25312
824.529	25434
824.669	25255
824.809	25651
824.949	25529
825.089	25339
825.228	25537
825.368	25263
825.508	25148
825.648	25213
825.787	25228
825.927	25175
826.067	25225
826.206	25164
826.346	25221
826.485	25324
826.625	25209
826.765	25270
826.904	25308
827.044	25053
827.183	24943
827.323	24875
827.462	25038
827.601	24909
827.741	24958
827.88	24882
828.02	24768
828.159	24829
828.298	24894
828.437	25050
828.577	24757
828.716	24985
828.855	24795
828.994	24703
829.134	24654
829.273	24608
829.412	24608
829.551	24578
829.69	24688
829.829	24703
829.968	24684
830.107	24707
830.246	24532
830.385	24494
830.524	24315
830.663	24445
830.802	24224
830.941	24232
831.08	24266
831.219	24350
831.357	24315
831.496	24521
831.635	24213
831.774	24041
831.913	24060
832.051	24018
832.19	24026
832.329	24060
832.467	23954
832.606	23866
832.744	23733
832.883	23699
833.022	23824
833.16	23977
833.299	24015
833.437	23897
833.576	23885
833.714	23992
833.852	23969
833.991	24076
834.129	23984
834.267	23992
834.406	23999
834.544	24003
834.682	23939
834.821	23794
834.959	24190
835.097	23927
835.235	24068
835.373	23939
835.511	23942
835.65	23767
835.788	23843
835.926	23581
836.064	23611
836.202	23619
836.34	23710
836.478	23832
836.615	23657
836.753	23855
836.891	23817
837.029	23786
837.167	23836
837.305	23653
837.443	23779
837.58	23570
837.718	23737
837.856	23585
837.993	23547
838.131	23676
838.269	23531
838.406	23661
838.544	23353
838.681	23185
838.819	23185
838.956	22999
839.094	23189
839.231	23086
839.369	23216
839.506	23436
839.643	23288
839.781	23121
839.918	23003
840.055	22980
840.193	23121
840.33	22904
840.467	23010
840.604	23056
840.742	23254
840.879	22885
841.016	22873
841.153	22923
841.29	22949
841.427	23029
841.564	22919
841.701	22915
841.838	22877
841.975	22995
842.112	22881
842.249	22877
842.385	22660
842.522	22896
842.659	22862
842.796	22736
842.933	22767
843.069	22752
843.206	22683
843.343	22839
843.479	22782
843.616	22713
843.752	22455
843.889	22679
844.025	22706
844.162	22554
844.298	22588
844.435	22440
844.571	22519
844.708	22622
844.844	22702
844.98	22713
845.117	22733
845.253	22382
845.389	22299
845.525	22390
845.661	22371
845.798	22329
845.934	22356
846.07	22200
846.206	22265
846.342	22409
846.478	22280
846.614	22101
846.75	21956
846.886	22021
847.022	22078
847.158	21991
847.294	21964
847.429	22044
847.565	21979
847.701	22234
847.837	21663
847.972	21671
848.108	21705
848.244	21762
848.379	21629
848.515	21641
848.65	21507
848.786	21568
848.921	21568
849.057	21625
849.192	21675
849.328	21545
849.463	21542
849.598	21561
849.734	21545
849.869	21382
850.004	21504
850.14	21431
850.275	21416
850.41	21279
850.545	21123
850.68	21382
850.815	21428
850.95	21298
851.085	21595
851.22	21454
851.355	21424
851.49	21317
851.625	21268
851.76	21279
851.895	21306
852.03	21249
852.165	21393
852.299	21462
852.434	21405
852.569	21321
852.703	21435
852.838	21412
852.973	21561
853.107	21447
853.242	21192
853.376	21226
853.511	21161
853.645	21020
853.78	21233
853.914	21039
854.048	21104
854.183	21116
854.317	21169
854.451	21408
854.585	21161
854.72	21005
854.854	21161
854.988	21028
855.122	21161
855.256	21062
855.39	21074
855.524	21218
855.658	21119
855.792	21150
855.926	21176
856.06	21230
856.194	21275
856.327	21203
856.461	21013
856.595	21081
856.729	21070
856.862	21291
856.996	21195
857.13	21233
857.263	21226
857.397	21237
857.53	21127
857.664	21173
857.797	21214
857.931	21226
858.064	21245
858.197	21249
858.331	21119
858.464	21093
858.597	21123
858.731	21146
858.864	21096
858.997	21119
859.13	21116
859.263	21195
859.396	21336
859.529	21070
859.662	21176
859.795	21100
859.928	21131
860.061	21233
860.194	21355
860.327	21195
860.46	21123
860.592	21332
860.725	21401
860.858	21389
860.99	21119
861.123	20990
861.256	21199
861.388	21096
861.521	21720
861.653	21058
861.786	21013
861.918	20979
862.05	21104
862.183	21157
862.315	21131
862.447	21157
862.58	21070
862.712	20853
862.844	20868
862.976	20990
863.108	21009
863.24	21306
863.372	20845
863.504	20891
863.636	20807
863.768	20864
863.9	20864
864.032	20838
864.164	20914
864.296	20921
864.428	20982
864.559	20906
864.691	20979
864.823	20883
864.954	20899
865.086	20933
865.217	20823
865.349	20697
865.48	20792
865.612	20819
865.743	20792
865.875	20895
866.006	20781
866.137	20727
866.269	20746
866.4	20746
866.531	20765
866.662	20708
866.793	20693
866.924	20773
867.055	20834
867.186	20716
867.317	20682
867.448	20583
867.579	20606
867.71	20632
867.841	20609
867.972	20724
868.103	20743
868.233	20632
868.364	20617
868.495	20708
868.625	20921
868.756	21005
868.886	20956
869.017	20861
869.147	20998
869.278	21024
869.408	20956
869.539	20960
869.669	21077
869.799	20975
869.929	21009
870.06	21135
870.19	21260
870.32	21211
870.45	21207
870.58	21386
870.71	21477
870.84	21428
870.97	21329
871.1	21325
871.23	21614
871.36	21511
871.489	21492
871.619	21389
871.749	21542
871.879	21557
872.008	21542
872.138	21477
872.267	21428
872.397	21488
872.526	21405
872.656	21386
872.785	21325
872.915	21580
873.044	21576
873.173	21587
873.303	21629
873.432	21637
873.561	21686
873.69	21511
873.819	21572
873.948	21671
874.077	21557
874.206	21397
874.335	21652
874.464	21739
874.593	21759
874.722	21682
874.851	21892
874.979	21857
875.108	21766
875.237	21732
875.365	21793
875.494	21808
875.623	21781
875.751	21842
875.88	21934
876.008	21915
876.136	21998
876.265	22078
876.393	22295
876.521	22211
876.65	22215
876.778	22230
876.906	22166
877.034	22124
877.162	22139
877.29	22131
877.418	22166
877.546	22211
877.674	22082
877.802	22143
877.93	22166
878.058	22082
878.185	22006
878.313	21911
878.441	22109
878.568	21991
878.696	22124
878.824	22131
878.951	22181
879.079	22402
879.206	22356
879.333	22322
879.461	22067
879.588	22280
879.715	22371
879.842	22466
879.97	22230
880.097	22078
880.224	21987
880.351	22025
880.478	22032
880.605	21972
880.732	21994
880.859	22169
880.986	22025
881.112	22029
881.239	21823
881.366	21770
881.493	21675
881.619	21717
881.746	21534
881.872	21523
881.999	21526
882.125	21564
882.252	21477
882.378	21591
882.505	21572
882.631	21454
882.757	21272
882.883	21310
883.01	21272
883.136	21230
883.262	21055
883.388	21089
883.514	21214
883.64	21310
883.766	21112
883.892	21047
884.018	21017
884.143	21214
884.269	21218
884.395	21043
884.52	20857
884.646	21017
884.772	20895
884.897	20815
885.023	20880
885.148	20952
885.274	20986
885.399	20910
885.524	20834
885.65	21032
885.775	20788
885.9	20864
886.025	20990
886.15	20796
886.275	20773
886.4	20727
886.525	20804
886.65	20815
886.775	20735
886.9	21013
887.025	21024
887.149	20845
887.274	20693
887.399	20533
887.523	20556
887.648	20579
887.773	20564
887.897	20648
888.021	20750
888.146	20571
888.27	20754
888.395	20773
888.519	20705
888.643	20689
888.767	20594
888.891	20598
889.015	20480
889.139	20530
889.263	20351
889.387	20511
889.511	20640
889.635	20663
889.759	20328
889.883	20442
890.006	20438
890.13	20526
890.254	20332
890.377	20355
890.501	20282
890.624	20126
890.748	20259
890.871	20157
890.995	19868
891.118	20005
891.241	20180
891.364	20122
891.488	20149
891.611	20039
891.734	20008
891.857	20054
891.98	20126
892.103	20046
892.226	20107
892.349	19986
892.471	19788
892.594	19921
892.717	19951
892.839	20020
892.962	19944
893.085	20016
893.207	19879
893.33	19909
893.452	19871
893.575	19986
893.697	19879
893.819	20062
893.941	20119
894.064	20027
894.186	19936
894.308	19795
894.43	20191
894.552	20100
894.674	20058
894.796	19890
894.918	19883
895.04	19947
895.161	20092
895.283	19955
895.405	19875
895.526	19913
895.648	19925
895.769	19982
895.891	19974
896.012	20062
896.134	19974
896.255	19879
896.376	19864
896.498	20001
896.619	19989
896.74	19993
896.861	20054
896.982	20237
897.103	20431
897.224	20233
897.345	20145
897.466	20065
897.587	20081
897.708	20263
897.828	20142
897.949	20161
898.07	20058
898.19	20062
898.311	20172
898.431	20161
898.552	20195
898.672	20275
898.792	20256
898.913	20081
899.033	20043
899.153	20005
899.273	19833
899.393	19925
899.513	19856
899.633	19970
899.753	19909
899.873	19833
899.993	19906
900.113	19928
900.232	19913
900.352	19928
900.472	19731
900.591	19693
900.711	19761
900.83	19624
900.95	19887
901.069	19807
901.189	19552
901.308	19548
901.427	19415
901.546	19324
901.665	19240
901.784	19335
901.904	19031
902.023	19000
902.141	18859
902.26	18871
902.379	18875
902.498	18802
902.617	18760
902.735	18776
902.854	18798
902.973	18711
903.091	18422
903.21	18578
903.328	18452
903.446	18441
903.565	18327
903.683	18277
903.801	18148
903.919	18296
904.038	18174
904.156	18007
904.274	18129
904.392	17965
904.51	18045
904.627	18102
904.745	18038
904.863	17999
904.981	17950
905.098	17794
905.216	17676
905.334	17859
905.451	17805
905.569	17707
905.686	17710
905.803	17657
905.921	17615
906.038	17615
906.155	17528
906.272	17349
906.389	17368
906.506	17162
906.623	17330
906.74	17345
906.857	17105
906.974	17189
907.091	17303
907.208	17372
907.324	17200
907.441	17239
907.557	17018
907.674	16968
907.79	16957
907.907	16942
908.023	17056
908.139	16957
908.256	16877
908.372	16889
908.488	16980
908.604	16641
908.72	16736
908.836	16664
908.952	16672
909.068	16793
909.184	16778
909.3	16668
909.415	16713
909.531	16702
909.647	16402
909.762	16421
909.878	16413
909.993	16360
910.108	16413
910.224	16268
910.339	16375
910.454	16242
910.57	16253
910.685	16025
910.8	16386
910.915	16356
911.03	16215
911.145	16109
911.259	15922
911.374	15956
911.489	15937
911.604	15880
911.718	15705
911.833	15762
911.947	15648
912.062	15641
912.176	15774
912.291	15876
912.405	15755
912.519	15907
912.633	15918
912.748	15762
912.862	15743
912.976	15614
913.09	15462
913.204	15477
913.318	15614
913.431	15618
913.545	15580
913.659	15701
913.772	15481
913.886	15336
914	15355
914.113	15416
914.226	15450
914.34	15485
914.453	15302
914.566	15408
914.68	15188
914.793	15272
914.906	15135
915.019	15013
915.132	14887
915.245	14986
915.358	14994
915.47	14929
915.583	14998
915.696	14937
915.809	15077
915.921	15081
916.034	14975
916.146	14826
916.259	14815
916.371	15020
916.483	14967
916.595	14838
916.708	14883
916.82	14788
916.932	14910
917.044	14731
917.156	14853
917.268	14689
917.38	14621
917.491	14651
917.603	14629
917.715	14712
917.826	14712
917.938	14655
918.049	14393
918.161	14583
918.272	14686
918.384	14716
918.495	14549
918.606	14400
918.717	14358
918.828	14427
918.939	14396
919.05	14434
919.161	14370
919.272	14183
919.383	14290
919.494	14412
919.604	14655
919.715	14396
919.826	14366
919.936	14313
920.047	14461
920.157	14381
920.267	14552
920.378	14465
920.488	14332
920.598	14568
920.708	14644
920.818	14507
920.928	14530
921.038	14651
921.148	14537
921.258	14210
921.368	14286
921.477	14191
921.587	14073
921.697	14001
921.806	14065
921.916	13955
922.025	13833
922.134	13841
922.244	13693
922.353	13811
922.462	13590
922.571	13552
922.68	13480
922.789	13407
922.898	13445
923.007	13384
923.116	13441
923.224	13312
923.333	13373
923.442	13312
923.55	13145
923.659	13259
923.767	13278
923.876	13149
923.984	13266
924.092	13137
924.201	13225
924.309	13149
924.417	13091
924.525	13027
924.633	13034
924.741	13822
924.849	12890
924.956	12932
925.064	12779
925.172	12802
925.279	12764
925.387	12837
925.494	12779
925.602	13004
925.709	12878
925.816	12703
925.924	12760
926.031	12814
926.138	12829
926.245	12837
926.352	12719
926.459	12852
926.566	12848
926.673	12825
926.779	12623
926.886	12517
926.993	12391
927.099	12456
927.206	12353
927.312	12342
927.419	12525
927.525	12334
927.631	12467
927.737	12334
927.843	12182
927.95	12121
928.056	12106
928.162	12251
928.267	12277
928.373	12905
928.479	12262
928.585	12026
928.69	12232
928.796	12095
928.901	12057
929.007	11961
929.112	12091
929.218	12038
929.323	11923
929.428	12030
929.533	12034
929.638	11885
929.743	11901
929.848	11973
929.953	11904
930.058	11794
930.163	11638
930.267	11642
930.372	11805
930.477	11570
930.581	11843
930.685	11707
930.79	11551
930.894	11452
930.998	11467
931.103	11668
931.207	11254
931.311	11170
931.415	11193
931.519	10942
931.623	10927
