Data from test_V78500241_3304.txt Node
Date: Fri Mar 25 16:04:41 CST 2022
User: usil
Spectrometer: V785-0024
Trigger mode: 0
Integration Time (sec): 4.000000E-1
Scans to average: 1
Nonlinearity correction enabled: false
Boxcar width: 0
Storing dark spectrum: false
XAxis mode: Wavelengths
Number of Pixels in Spectrum: 1024
>>>>>Begin Spectral Data<<<<<
801.071	28725
801.214	28478
801.356	28356
801.499	28386
801.641	28287
801.783	28261
801.926	28356
802.068	28154
802.211	28322
802.353	28143
802.496	27994
802.638	28013
802.78	28002
802.923	27838
803.065	27911
803.208	27823
803.35	27865
803.492	27945
803.635	28029
803.777	27968
803.919	28158
804.061	28535
804.204	28207
804.346	28006
804.488	28063
804.63	28112
804.773	28173
804.915	28253
805.057	28238
805.199	28219
805.341	28173
805.483	28215
805.626	28318
805.768	28116
805.91	28207
806.052	28188
806.194	28325
806.336	28493
806.478	28295
806.62	28356
806.762	28527
806.904	28626
807.046	28786
807.188	28820
807.33	28691
807.472	28824
807.614	28713
807.756	28702
807.898	28630
808.04	28573
808.182	28561
808.324	28828
808.465	28721
808.607	28778
808.749	29037
808.891	29090
809.033	29147
809.174	29010
809.316	29083
809.458	28877
809.6	28934
809.741	29170
809.883	29033
810.025	29330
810.166	29402
810.308	29326
810.45	29185
810.591	29170
810.733	29250
810.875	28987
811.016	29025
811.158	28854
811.299	29052
811.441	29166
811.582	29117
811.724	29037
811.865	28961
812.007	29086
812.148	29140
812.29	29132
812.431	29197
812.573	29440
812.714	29554
812.855	29490
812.997	29535
813.138	29714
813.279	29653
813.421	29573
813.562	29554
813.703	29311
813.845	29330
813.986	28923
814.127	28862
814.268	28725
814.41	28717
814.551	28702
814.692	28797
814.833	28710
814.974	28649
815.115	28771
815.256	28656
815.397	28706
815.539	28622
815.68	28569
815.821	28424
815.962	28561
816.103	28592
816.244	28356
816.385	28367
816.526	28185
816.666	28120
816.807	28139
816.948	28051
817.089	28112
817.23	28162
817.371	28078
817.512	28032
817.653	28044
817.793	27983
817.934	28173
818.075	27926
818.216	28032
818.356	27934
818.497	27861
818.638	27701
818.778	27850
818.919	27705
819.06	27899
819.2	27842
819.341	27991
819.481	27937
819.622	28223
819.762	28348
819.903	28261
820.043	28196
820.184	28249
820.324	28211
820.465	28242
820.605	28295
820.746	28223
820.886	27964
821.026	28169
821.167	28055
821.307	28173
821.447	28097
821.588	27930
821.728	27884
821.868	27739
822.008	27572
822.149	27530
822.289	27614
822.429	27264
822.569	27085
822.709	27180
822.849	27055
822.99	27142
823.13	27028
823.27	27077
823.41	26910
823.55	26746
823.69	26689
823.83	26842
823.97	26834
824.11	26564
824.25	26663
824.389	26613
824.529	26834
824.669	26693
824.809	26674
824.949	26785
825.089	26735
825.228	26705
825.368	26530
825.508	26617
825.648	26522
825.787	26568
825.927	26636
826.067	26590
826.206	26724
826.346	26587
826.485	26667
826.625	26492
826.765	26724
826.904	26556
827.044	26317
827.183	26389
827.323	26309
827.462	26358
827.601	26362
827.741	26195
827.88	26393
828.02	26229
828.159	26240
828.298	26301
828.437	26320
828.577	26218
828.716	26336
828.855	26161
828.994	25894
829.134	25940
829.273	26122
829.412	25849
829.551	26054
829.69	26103
829.829	26069
829.968	26111
830.107	26153
830.246	26050
830.385	26020
830.524	25864
830.663	25811
830.802	25696
830.941	25609
831.08	25578
831.219	25597
831.357	25780
831.496	25746
831.635	25582
831.774	25495
831.913	25670
832.051	25365
832.19	25438
832.329	25354
832.467	25373
832.606	25228
832.744	25160
832.883	25396
833.022	25297
833.16	25304
833.299	25285
833.437	25263
833.576	25240
833.714	25247
833.852	25331
833.991	25457
834.129	25270
834.267	25396
834.406	25285
834.544	25514
834.682	25422
834.821	25316
834.959	25400
835.097	25343
835.235	25358
835.373	25354
835.511	25304
835.65	25179
835.788	25213
835.926	24962
836.064	25012
836.202	25042
836.34	25251
836.478	25202
836.615	25095
836.753	25129
836.891	25072
837.029	25179
837.167	25031
837.305	25042
837.443	25069
837.58	24939
837.718	25084
837.856	25023
837.993	24981
838.131	25015
838.269	24814
838.406	24844
838.544	24814
838.681	24494
838.819	24547
838.956	24540
839.094	24319
839.231	24441
839.369	24597
839.506	24829
839.643	24578
839.781	24540
839.918	24388
840.055	24429
840.193	24391
840.33	24395
840.467	24338
840.604	24433
840.742	24494
840.879	24167
841.016	24254
841.153	24239
841.29	24334
841.427	24247
841.564	24266
841.701	24464
841.838	24300
841.975	24243
842.112	24262
842.249	24121
842.385	24186
842.522	24380
842.659	24220
842.796	24213
842.933	24091
843.069	24034
843.206	24087
843.343	24152
843.479	24034
843.616	24152
843.752	23847
843.889	23779
844.025	24007
844.162	23935
844.298	24038
844.435	23821
844.571	23923
844.708	24018
844.844	24003
844.98	23901
845.117	23992
845.253	23726
845.389	23691
845.525	23718
845.661	23691
845.798	23630
845.934	23585
846.07	23558
846.206	23615
846.342	23695
846.478	23687
846.614	23398
846.75	23315
846.886	23288
847.022	23360
847.158	23315
847.294	23322
847.429	23315
847.565	23322
847.701	23566
847.837	22946
847.972	23079
848.108	23067
848.244	23143
848.379	22927
848.515	22953
848.65	22946
848.786	22942
848.921	22965
849.057	22938
849.192	22984
849.328	22965
849.463	22892
849.598	22923
849.734	22862
849.869	22710
850.004	22717
850.14	22717
850.275	22603
850.41	22637
850.545	22672
850.68	22660
850.815	22740
850.95	22656
851.085	22892
851.22	22748
851.355	22656
851.49	22675
851.625	22584
851.76	22653
851.895	22740
852.03	22607
852.165	22672
852.299	22694
852.434	22812
852.569	22641
852.703	22668
852.838	22698
852.973	22717
853.107	22812
853.242	22580
853.376	22637
853.511	22344
853.645	22363
853.78	22713
853.914	22546
854.048	22447
854.183	22428
854.317	22626
854.451	22523
854.585	22478
854.72	22527
854.854	22554
854.988	22443
855.122	22508
855.256	22363
855.39	22500
855.524	22497
855.658	22455
855.792	22557
855.926	22417
856.06	22603
856.194	22630
856.327	22535
856.461	22470
856.595	22451
856.729	22447
856.862	22542
856.996	22394
857.13	22596
857.263	22698
857.397	22664
857.53	22512
857.664	22535
857.797	22527
857.931	22637
858.064	22546
858.197	22565
858.331	22637
858.464	22447
858.597	22421
858.731	22542
858.864	22386
858.997	22508
859.13	22451
859.263	22542
859.396	22447
859.529	22443
859.662	22474
859.795	22466
859.928	22508
860.061	22664
860.194	22767
860.327	22440
860.46	22565
860.592	22637
860.725	22542
860.858	22580
860.99	22421
861.123	22474
861.256	22428
861.388	22447
861.521	23204
861.653	22440
861.786	22379
861.918	22341
862.05	22421
862.183	22314
862.315	22455
862.447	22519
862.58	22508
862.712	22139
862.844	22116
862.976	22234
863.108	22287
863.24	22698
863.372	22131
863.504	22280
863.636	22268
863.768	22337
863.9	22162
864.032	22139
864.164	22169
864.296	22246
864.428	22295
864.559	22367
864.691	22276
864.823	22116
864.954	22246
865.086	22074
865.217	22116
865.349	21987
865.48	22147
865.612	22070
865.743	22097
865.875	22013
866.006	22078
866.137	22040
866.269	22093
866.4	21983
866.531	21899
866.662	22036
866.793	21987
866.924	21979
867.055	21964
867.186	21994
867.317	21994
867.448	21945
867.579	21960
867.71	21888
867.841	21949
867.972	21911
868.103	21975
868.233	21937
868.364	21918
868.495	22154
868.625	22230
868.756	22303
868.886	22188
869.017	22265
869.147	22287
869.278	22382
869.408	22363
869.539	22204
869.669	22440
869.799	22337
869.929	22413
870.06	22348
870.19	22504
870.32	22493
870.45	22497
870.58	22603
870.71	22725
870.84	22679
870.97	22774
871.1	22599
871.23	22812
871.36	22987
871.489	22740
871.619	22790
871.749	22961
871.879	22877
872.008	23018
872.138	22873
872.267	22961
872.397	22816
872.526	22733
872.656	22687
872.785	22748
872.915	22908
873.044	22972
873.173	22919
873.303	22942
873.432	22953
873.561	22923
873.69	22942
873.819	22957
873.948	22953
874.077	22946
874.206	22862
874.335	22919
874.464	22968
874.593	23113
874.722	23022
874.851	23166
874.979	23147
875.108	23067
875.237	22991
875.365	23037
875.494	23083
875.623	23041
875.751	23113
875.88	23010
876.008	23178
876.136	23368
876.265	23554
876.393	23649
876.521	23638
876.65	23611
876.778	23543
876.906	23490
877.034	23490
877.162	23322
877.29	23490
877.418	23471
877.546	23478
877.674	23410
877.802	23535
877.93	23433
878.058	23330
878.185	23330
878.313	23414
878.441	23535
878.568	23280
878.696	23398
878.824	23444
878.951	23604
879.079	23585
879.206	23794
879.333	23729
879.461	23611
879.588	23657
879.715	23756
879.842	23649
879.97	23509
880.097	23277
880.224	23292
880.351	23349
880.478	23349
880.605	23280
880.732	23292
880.859	23482
880.986	23261
881.112	23402
881.239	23174
881.366	22946
881.493	22877
881.619	22869
881.746	22889
881.872	22812
881.999	22835
882.125	22782
882.252	22900
882.378	22896
882.505	22862
882.631	22630
882.757	22565
882.883	22565
883.01	22417
883.136	22504
883.262	22440
883.388	22409
883.514	22637
883.64	22428
883.766	22424
883.892	22242
884.018	22329
884.143	22459
884.269	22519
884.395	22150
884.52	22112
884.646	22120
884.772	22040
884.897	22131
885.023	22116
885.148	22173
885.274	22299
885.399	22257
885.524	22078
885.65	22166
885.775	22097
885.9	22070
886.025	22215
886.15	22249
886.275	22109
886.4	22090
886.525	22070
886.65	22036
886.775	22204
886.9	22333
887.025	22280
887.149	22162
887.274	21983
887.399	21857
887.523	21945
887.648	21804
887.773	21850
887.897	21941
888.021	21892
888.146	21884
888.27	21979
888.395	21941
888.519	21884
888.643	21880
888.767	21960
888.891	21823
889.015	21804
889.139	21762
889.263	21785
889.387	21781
889.511	21975
889.635	21895
889.759	21652
889.883	21606
890.006	21713
890.13	21819
890.254	21641
890.377	21679
890.501	21504
890.624	21420
890.748	21618
890.871	21245
890.995	21272
891.118	21150
891.241	21241
891.364	21252
891.488	21393
891.611	21272
891.734	21344
891.857	21264
891.98	21237
892.103	21252
892.226	21428
892.349	21256
892.471	21062
892.594	21203
892.717	21207
892.839	21032
892.962	21180
893.085	21233
893.207	21093
893.33	20994
893.452	21032
893.575	21195
893.697	21131
893.819	21272
893.941	21245
894.064	21317
894.186	21165
894.308	21066
894.43	21336
894.552	21195
894.674	21230
894.796	21062
894.918	21062
895.04	21169
895.161	21237
895.283	21161
895.405	21077
895.526	21146
895.648	21096
895.769	21199
895.891	21093
896.012	21268
896.134	21222
896.255	21058
896.376	21051
896.498	21112
896.619	21195
896.74	21066
896.861	21070
896.982	21397
897.103	21515
897.224	21367
897.345	21370
897.466	21218
897.587	21378
897.708	21507
897.828	21344
897.949	21173
898.07	21104
898.19	21291
898.311	21340
898.431	21268
898.552	21302
898.672	21359
898.792	21332
898.913	21359
899.033	21279
899.153	21256
899.273	21070
899.393	21146
899.513	21146
899.633	20982
899.753	21085
899.873	20823
899.993	21077
900.113	21039
900.232	20986
900.352	20994
900.472	20811
900.591	20792
900.711	20861
900.83	20739
900.95	20967
901.069	20872
901.189	20731
901.308	20438
901.427	20377
901.546	20362
901.665	20358
901.784	20396
901.904	20298
902.023	20240
902.141	19986
902.26	19818
902.379	20001
902.498	19822
902.617	19864
902.735	19917
902.854	19993
902.973	19765
903.091	19620
903.21	19529
903.328	19624
903.446	19396
903.565	19343
903.683	19339
903.801	19293
903.919	19381
904.038	19324
904.156	19194
904.274	19232
904.392	19129
904.51	19091
904.627	19046
904.745	19171
904.863	19038
904.981	18954
905.098	18791
905.216	18684
905.334	18745
905.451	18825
905.569	18738
905.686	18692
905.803	18825
905.921	18528
906.038	18673
906.155	18589
906.272	18403
906.389	18437
906.506	18247
906.623	18334
906.74	18224
906.857	18095
906.974	18201
907.091	18399
907.208	18452
907.324	18304
907.441	18243
907.557	18003
907.674	18038
907.79	17923
907.907	18064
908.023	18125
908.139	17977
908.256	17882
908.372	17977
908.488	17855
908.604	17794
908.72	17611
908.836	17653
908.952	17672
909.068	17745
909.184	17790
909.3	17703
909.415	17733
909.531	17657
909.647	17288
909.762	17448
909.878	17410
909.993	17433
910.108	17395
910.224	17395
910.339	17398
910.454	17242
910.57	17223
910.685	17170
910.8	17417
910.915	17258
911.03	17250
911.145	17014
911.259	16892
911.374	16999
911.489	16949
911.604	16858
911.718	16763
911.833	16767
911.947	16717
912.062	16626
912.176	16725
912.291	16862
912.405	16755
912.519	16953
912.633	16869
912.748	16771
912.862	16748
912.976	16538
913.09	16386
913.204	16554
913.318	16462
913.431	16679
913.545	16588
913.659	16538
913.772	16466
913.886	16325
914	16291
914.113	16390
914.226	16424
914.34	16360
914.453	16223
914.566	16344
914.68	16299
914.793	16128
914.906	16074
915.019	15953
915.132	15778
915.245	15869
915.358	15975
915.47	15831
915.583	15842
915.696	15873
915.809	15991
915.921	15987
916.034	15835
916.146	15789
916.259	15797
916.371	15861
916.483	15903
916.595	15759
916.708	15724
916.82	15679
916.932	15625
917.044	15519
917.156	15549
917.268	15595
917.38	15553
917.491	15561
917.603	15622
917.715	15633
917.826	15641
917.938	15504
918.049	15313
918.161	15511
918.272	15526
918.384	15557
918.495	15553
918.606	15329
918.717	15169
918.828	15279
918.939	15279
919.05	15176
919.161	15268
919.272	15055
919.383	15062
919.494	15336
919.604	15443
919.715	15279
919.826	15097
919.936	15157
920.047	15298
920.157	15245
920.267	15386
920.378	15188
920.488	15138
920.598	15428
920.708	15526
920.818	15310
920.928	15355
921.038	15496
921.148	15431
921.258	15108
921.368	15093
921.477	14921
921.587	14895
921.697	14769
921.806	15051
921.916	14773
922.025	14743
922.134	14575
922.244	14552
922.353	14613
922.462	14476
922.571	14377
922.68	14218
922.789	14164
922.898	14176
923.007	14199
923.116	14237
923.224	14256
923.333	14103
923.442	14107
923.55	14008
923.659	14103
923.767	14145
923.876	14119
923.984	13989
924.092	13879
924.201	13974
924.309	13909
924.417	13913
924.525	13822
924.633	13955
924.741	14800
924.849	13639
924.956	13746
925.064	13719
925.172	13480
925.279	13525
925.387	13582
925.494	13616
925.602	13632
925.709	13476
925.816	13434
925.924	13506
926.031	13552
926.138	13605
926.245	13582
926.352	13434
926.459	13677
926.566	13647
926.673	13381
926.779	13312
926.886	13282
926.993	13209
927.099	13156
927.206	13107
927.312	13084
927.419	13122
927.525	13164
927.631	13149
927.737	13095
927.843	13000
927.95	12798
928.056	12996
928.162	13004
928.267	12973
928.373	13601
928.479	12977
928.585	12757
928.69	12890
928.796	12837
928.901	12768
929.007	12604
929.112	12791
929.218	12734
929.323	12722
929.428	12631
929.533	12757
929.638	12574
929.743	12604
929.848	12559
929.953	12635
930.058	12384
930.163	12277
930.267	12296
930.372	12422
930.477	12266
930.581	12471
930.685	12346
930.79	12258
930.894	12277
930.998	12167
931.103	12330
931.207	11950
931.311	11859
931.415	11729
931.519	11532
931.623	11554
