Data from test_V78500241_1526.txt Node
Date: Fri Mar 25 15:52:22 CST 2022
User: usil
Spectrometer: V785-0024
Trigger mode: 0
Integration Time (sec): 4.000000E-1
Scans to average: 1
Nonlinearity correction enabled: false
Boxcar width: 0
Storing dark spectrum: false
XAxis mode: Wavelengths
Number of Pixels in Spectrum: 1024
>>>>>Begin Spectral Data<<<<<
801.071	28158
801.214	28150
801.356	27808
801.499	27819
801.641	27736
801.783	27610
801.926	27614
802.068	27652
802.211	27713
802.353	27660
802.496	27378
802.638	27458
802.78	27199
802.923	27367
803.065	27211
803.208	27401
803.35	27447
803.492	27492
803.635	27564
803.777	27538
803.919	27610
804.061	27808
804.204	27637
804.346	27427
804.488	27538
804.63	27580
804.773	27412
804.915	27728
805.057	27736
805.199	27603
805.341	27644
805.483	27701
805.626	27797
805.768	27800
805.91	27789
806.052	27686
806.194	27625
806.336	27911
806.478	27690
806.62	27698
806.762	27876
806.904	27899
807.046	28276
807.188	28112
807.33	28219
807.472	28162
807.614	28010
807.756	28154
807.898	27937
808.04	27899
808.182	27869
808.324	27964
808.465	28105
808.607	28253
808.749	28234
808.891	28447
809.033	28577
809.174	28481
809.316	28401
809.458	28303
809.6	28318
809.741	28538
809.883	28557
810.025	28656
810.166	28512
810.308	28675
810.45	28641
810.591	28485
810.733	28371
810.875	28303
811.016	28162
811.158	28333
811.299	28375
811.441	28519
811.582	28698
811.724	28390
811.865	28226
812.007	28394
812.148	28367
812.29	28512
812.431	28451
812.573	28675
812.714	28656
812.855	28942
812.997	28980
813.138	29181
813.279	28972
813.421	28953
813.562	28881
813.703	28618
813.845	28531
813.986	28348
814.127	28128
814.268	28055
814.41	28120
814.551	28238
814.692	28021
814.833	28025
814.974	27998
815.115	28112
815.256	27945
815.397	27876
815.539	27835
815.68	27926
815.821	27800
815.962	27842
816.103	27797
816.244	27831
816.385	27545
816.526	27534
816.666	27492
816.807	27405
816.948	27378
817.089	27412
817.23	27507
817.371	27386
817.512	27401
817.653	27340
817.793	27233
817.934	27332
818.075	27374
818.216	27359
818.356	27348
818.497	27264
818.638	27055
818.778	27036
818.919	27032
819.06	27173
819.2	27199
819.341	27313
819.481	27359
819.622	27549
819.762	27717
819.903	27633
820.043	27431
820.184	27450
820.324	27504
820.465	27523
820.605	27424
820.746	27435
820.886	27302
821.026	27450
821.167	27427
821.307	27530
821.447	27325
821.588	27256
821.728	27199
821.868	26933
822.008	26872
822.149	26853
822.289	26880
822.429	26492
822.569	26571
822.709	26507
822.849	26309
822.99	26408
823.13	26305
823.27	26271
823.41	26115
823.55	26157
823.69	26092
823.83	26248
823.97	26183
824.11	25970
824.25	26031
824.389	25856
824.529	26062
824.669	25932
824.809	26161
824.949	26130
825.089	26134
825.228	26100
825.368	25833
825.508	25757
825.648	26005
825.787	25788
825.927	25955
826.067	25826
826.206	25894
826.346	25883
826.485	25841
826.625	25871
826.765	25970
826.904	26008
827.044	25548
827.183	25601
827.323	25548
827.462	25655
827.601	25601
827.741	25723
827.88	25544
828.02	25499
828.159	25388
828.298	25674
828.437	25533
828.577	25430
828.716	25670
828.855	25578
828.994	25434
829.134	25266
829.273	25354
829.412	25247
829.551	25160
829.69	25175
829.829	25297
829.968	25396
830.107	25331
830.246	25297
830.385	25095
830.524	25088
830.663	25076
830.802	24977
830.941	24905
831.08	24844
831.219	24859
831.357	25095
831.496	25042
831.635	24913
831.774	24764
831.913	24753
832.051	24711
832.19	24719
832.329	24654
832.467	24646
832.606	24486
832.744	24475
832.883	24452
833.022	24563
833.16	24532
833.299	24505
833.437	24498
833.576	24665
833.714	24589
833.852	24604
833.991	24570
834.129	24601
834.267	24585
834.406	24589
834.544	24593
834.682	24486
834.821	24608
834.959	24719
835.097	24566
835.235	24464
835.373	24593
835.511	24745
835.65	24502
835.788	24475
835.926	24403
836.064	24285
836.202	24258
836.34	24418
836.478	24464
836.615	24369
836.753	24414
836.891	24521
837.029	24502
837.167	24369
837.305	24353
837.443	24334
837.58	24311
837.718	24315
837.856	24270
837.993	24155
838.131	24163
838.269	24296
838.406	24186
838.544	24045
838.681	23980
838.819	23840
838.956	23718
839.094	23775
839.231	23745
839.369	23851
839.506	24117
839.643	24133
839.781	23813
839.918	23741
840.055	23691
840.193	23703
840.33	23718
840.467	23752
840.604	23817
840.742	24022
840.879	23509
841.016	23604
841.153	23627
841.29	23707
841.427	23642
841.564	23608
841.701	23547
841.838	23646
841.975	23604
842.112	23589
842.249	23543
842.385	23474
842.522	23604
842.659	23512
842.796	23406
842.933	23440
843.069	23436
843.206	23391
843.343	23516
843.479	23406
843.616	23284
843.752	23250
843.889	23280
844.025	23315
844.162	23041
844.298	23387
844.435	23227
844.571	23254
844.708	23124
844.844	23322
844.98	23265
845.117	23311
845.253	23159
845.389	23025
845.525	22915
845.661	23022
845.798	22976
845.934	22885
846.07	22957
846.206	22987
846.342	23033
846.478	22873
846.614	22653
846.75	22557
846.886	22577
847.022	22744
847.158	22771
847.294	22782
847.429	22580
847.565	22649
847.701	22854
847.837	22421
847.972	22299
848.108	22577
848.244	22500
848.379	22310
848.515	22185
848.65	22143
848.786	22287
848.921	22204
849.057	22402
849.192	22299
849.328	22265
849.463	22348
849.598	22295
849.734	22196
849.869	22010
850.004	21956
850.14	22086
850.275	21987
850.41	21953
850.545	21945
850.68	21899
850.815	22124
850.95	22021
851.085	22086
851.22	22124
851.355	22002
851.49	22006
851.625	22029
851.76	22021
851.895	22086
852.03	21884
852.165	22029
852.299	22017
852.434	22135
852.569	22029
852.703	22074
852.838	22036
852.973	22082
853.107	22048
853.242	21964
853.376	21789
853.511	21774
853.645	21736
853.78	21926
853.914	21854
854.048	21656
854.183	21808
854.317	21873
854.451	21926
854.585	21789
854.72	21728
854.854	21842
854.988	21675
855.122	21804
855.256	21819
855.39	21846
855.524	21816
855.658	21869
855.792	21781
855.926	21816
856.06	21808
856.194	21998
856.327	21747
856.461	21724
856.595	21759
856.729	21903
856.862	21899
856.996	21911
857.13	21915
857.263	21907
857.397	21865
857.53	21850
857.664	21869
857.797	21922
857.931	21903
858.064	21808
858.197	21907
858.331	21846
858.464	21797
858.597	21618
858.731	21720
858.864	21747
858.997	21739
859.13	21778
859.263	21835
859.396	21842
859.529	21732
859.662	21762
859.795	21892
859.928	21797
860.061	21945
860.194	21945
860.327	21743
860.46	21781
860.592	21941
860.725	21945
860.858	22013
860.99	21755
861.123	21827
861.256	21835
861.388	21793
861.521	22295
861.653	21720
861.786	21625
861.918	21622
862.05	21568
862.183	21724
862.315	21876
862.447	21884
862.58	21823
862.712	21458
862.844	21530
862.976	21542
863.108	21641
863.24	22070
863.372	21450
863.504	21549
863.636	21473
863.768	21595
863.9	21488
864.032	21329
864.164	21511
864.296	21523
864.428	21652
864.559	21572
864.691	21576
864.823	21488
864.954	21534
865.086	21469
865.217	21382
865.349	21340
865.48	21367
865.612	21332
865.743	21614
865.875	21439
866.006	21481
866.137	21416
866.269	21481
866.4	21393
866.531	21355
866.662	21401
866.793	21416
866.924	21317
867.055	21439
867.186	21374
867.317	21245
867.448	21355
867.579	21306
867.71	21298
867.841	21230
867.972	21336
868.103	21306
868.233	21294
868.364	21252
868.495	21519
868.625	21538
868.756	21701
868.886	21447
869.017	21652
869.147	21701
869.278	21724
869.408	21641
869.539	21641
869.669	21648
869.799	21709
869.929	21656
870.06	21667
870.19	21953
870.32	21937
870.45	21895
870.58	22002
870.71	22101
870.84	21991
870.97	21994
871.1	21975
871.23	22207
871.36	22055
871.489	22093
871.619	22051
871.749	22150
871.879	22109
872.008	22322
872.138	22242
872.267	22040
872.397	22124
872.526	21956
872.656	22029
872.785	21956
872.915	22246
873.044	22310
873.173	22257
873.303	22299
873.432	22303
873.561	22318
873.69	22173
873.819	22242
873.948	22215
874.077	22150
874.206	22253
874.335	22196
874.464	22257
874.593	22531
874.722	22390
874.851	22474
874.979	22474
875.108	22440
875.237	22409
875.365	22352
875.494	22405
875.623	22538
875.751	22360
875.88	22402
876.008	22512
876.136	22588
876.265	22713
876.393	22965
876.521	22904
876.65	22866
876.778	22767
876.906	22744
877.034	22877
877.162	22797
877.29	22637
877.418	22759
877.546	22797
877.674	22755
877.802	22630
877.93	22721
878.058	22774
878.185	22679
878.313	22816
878.441	22786
878.568	22599
878.696	22645
878.824	22801
878.951	22915
879.079	22995
879.206	23067
879.333	22938
879.461	22805
879.588	22782
879.715	22919
879.842	22908
879.97	22713
880.097	22702
880.224	22519
880.351	22668
880.478	22683
880.605	22569
880.732	22527
880.859	22759
880.986	22478
881.112	22694
881.239	22459
881.366	22405
881.493	22131
881.619	22230
881.746	22295
881.872	22109
881.999	22128
882.125	22055
882.252	22177
882.378	22166
882.505	22112
882.631	21994
882.757	22013
882.883	21922
883.01	21991
883.136	21747
883.262	21785
883.388	21698
883.514	21899
883.64	21892
883.766	21713
883.892	21679
884.018	21648
884.143	21915
884.269	21709
884.395	21595
884.52	21477
884.646	21580
884.772	21450
884.897	21443
885.023	21511
885.148	21633
885.274	21637
885.399	21622
885.524	21374
885.65	21439
885.775	21549
885.9	21519
886.025	21504
886.15	21576
886.275	21424
886.4	21389
886.525	21485
886.65	21393
886.775	21458
886.9	21564
887.025	21648
887.149	21496
887.274	21195
887.399	21283
887.523	21291
887.648	21211
887.773	21116
887.897	21268
888.021	21157
888.146	21275
888.27	21325
888.395	21382
888.519	21264
888.643	21192
888.767	21272
888.891	21150
889.015	21047
889.139	21123
889.263	21001
889.387	21188
889.511	21222
889.635	21074
889.759	20979
889.883	20967
890.006	20906
890.13	21058
890.254	21013
890.377	20914
890.501	20849
890.624	20785
890.748	20819
890.871	20644
890.995	20651
891.118	20480
891.241	20640
891.364	20739
891.488	20750
891.611	20594
891.734	20678
891.857	20758
891.98	20682
892.103	20571
892.226	20488
892.349	20587
892.471	20427
892.594	20564
892.717	20594
892.839	20579
892.962	20571
893.085	20644
893.207	20488
893.33	20473
893.452	20389
893.575	20549
893.697	20549
893.819	20587
893.941	20750
894.064	20807
894.186	20347
894.308	20396
894.43	20571
894.552	20716
894.674	20682
894.796	20377
894.918	20541
895.04	20556
895.161	20507
895.283	20438
895.405	20381
895.526	20537
895.648	20507
895.769	20366
895.891	20469
896.012	20682
896.134	20560
896.255	20488
896.376	20545
896.498	20556
896.619	20522
896.74	20484
896.861	20514
896.982	20716
897.103	20952
897.224	20743
897.345	20651
897.466	20720
897.587	20731
897.708	20796
897.828	20804
897.949	20629
898.07	20473
898.19	20640
898.311	20807
898.431	20530
898.552	20617
898.672	20724
898.792	20815
898.913	20678
899.033	20651
899.153	20461
899.273	20309
899.393	20473
899.513	20522
899.633	20454
899.753	20450
899.873	20366
899.993	20484
900.113	20400
900.232	20336
900.352	20431
900.472	20149
900.591	20161
900.711	20145
900.83	20248
900.95	20351
901.069	20358
901.189	20256
901.308	19913
901.427	19921
901.546	19822
901.665	19879
901.784	19860
901.904	19689
902.023	19544
902.141	19445
902.26	19403
902.379	19483
902.498	19354
902.617	19236
902.735	19282
902.854	19358
902.973	19308
903.091	18951
903.21	18962
903.328	18954
903.446	18837
903.565	18802
903.683	18817
903.801	18753
903.919	18730
904.038	18890
904.156	18604
904.274	18650
904.392	18593
904.51	18582
904.627	18509
904.745	18623
904.863	18650
904.981	18388
905.098	18213
905.216	18178
905.334	18277
905.451	18232
905.569	18224
905.686	18407
905.803	18239
905.921	18045
906.038	18095
906.155	18140
906.272	17916
906.389	17939
906.506	17802
906.623	17855
906.74	17729
906.857	17657
906.974	17665
907.091	17779
907.208	17798
907.324	17794
907.441	17649
907.557	17467
907.674	17596
907.79	17520
907.907	17467
908.023	17551
908.139	17455
908.256	17337
908.372	17391
908.488	17391
908.604	17242
908.72	17174
908.836	17140
908.952	17242
909.068	17083
909.184	17296
909.3	17254
909.415	17174
909.531	17170
909.647	16896
909.762	16839
909.878	16881
909.993	16934
910.108	16869
910.224	16820
910.339	16930
910.454	16778
910.57	16607
910.685	16717
910.8	16869
910.915	16881
911.03	16653
911.145	16592
911.259	16508
911.374	16519
911.489	16497
911.604	16329
911.718	16207
911.833	16257
911.947	16139
912.062	16082
912.176	16204
912.291	16257
912.405	16204
912.519	16375
912.633	16363
912.748	16348
912.862	16211
912.976	16051
913.09	15915
913.204	16109
913.318	16048
913.431	16143
913.545	16093
913.659	16181
913.772	16059
913.886	15873
914	15857
914.113	15899
914.226	15926
914.34	15926
914.453	15717
914.566	15800
914.68	15743
914.793	15728
914.906	15496
915.019	15477
915.132	15389
915.245	15382
915.358	15412
915.47	15545
915.583	15412
915.696	15477
915.809	15587
915.921	15610
916.034	15291
916.146	15321
916.259	15374
916.371	15462
916.483	15420
916.595	15268
916.708	15268
916.82	15329
916.932	15268
917.044	15302
917.156	15233
917.268	15043
917.38	15154
917.491	15077
917.603	15051
917.715	15192
917.826	15306
917.938	15112
918.049	14967
918.161	14998
918.272	15176
918.384	15146
918.495	15020
918.606	14887
918.717	14804
918.828	14941
918.939	14830
919.05	14754
919.161	14845
919.272	14731
919.383	14804
919.494	14868
919.604	15013
919.715	14773
919.826	14667
919.936	14773
920.047	14880
920.157	14788
920.267	15009
920.378	14762
920.488	14785
920.598	14834
920.708	15097
920.818	14933
920.928	14956
921.038	15047
921.148	14998
921.258	14777
921.368	14583
921.477	14530
921.587	14423
921.697	14377
921.806	14571
921.916	14480
922.025	14218
922.134	14172
922.244	14084
922.353	14187
922.462	14103
922.571	13989
922.68	13791
922.789	13746
922.898	13871
923.007	13772
923.116	13868
923.224	13769
923.333	13788
923.442	13655
923.55	13677
923.659	13662
923.767	13662
923.876	13647
923.984	13731
924.092	13575
924.201	13521
924.309	13548
924.417	13594
924.525	13575
924.633	13453
924.741	14396
924.849	13259
924.956	13400
925.064	13274
925.172	13209
925.279	13263
925.387	13297
925.494	13221
925.602	13403
925.709	13228
925.816	13114
925.924	13198
926.031	13175
926.138	13183
926.245	13141
926.352	12985
926.459	13190
926.566	13175
926.673	13084
926.779	12901
926.886	13019
926.993	12852
927.099	12779
927.206	12817
927.312	12681
927.419	12840
927.525	12749
927.631	12768
927.737	12703
927.843	12585
927.95	12547
928.056	12582
928.162	12593
928.267	12673
928.373	13282
928.479	12642
928.585	12486
928.69	12410
928.796	12582
928.901	12422
929.007	12319
929.112	12346
929.218	12452
929.323	12315
929.428	12304
929.533	12422
929.638	12205
929.743	12258
929.848	12270
929.953	12270
930.058	12121
930.163	12091
930.267	12064
930.372	12152
930.477	11885
930.581	12144
930.685	12026
930.79	11980
930.894	11885
930.998	11790
931.103	11996
931.207	11611
931.311	11535
931.415	11433
931.519	11212
931.623	11239
