Data from test_V78500241_949.txt Node
Date: Fri Mar 25 15:48:22 CST 2022
User: usil
Spectrometer: V785-0024
Trigger mode: 0
Integration Time (sec): 4.000000E-1
Scans to average: 1
Nonlinearity correction enabled: false
Boxcar width: 0
Storing dark spectrum: false
XAxis mode: Wavelengths
Number of Pixels in Spectrum: 1024
>>>>>Begin Spectral Data<<<<<
801.071	28569
801.214	28333
801.356	28257
801.499	28162
801.641	28158
801.783	28109
801.926	28192
802.068	28131
802.211	27972
802.353	27918
802.496	27743
802.638	27644
802.78	27717
802.923	27736
803.065	27762
803.208	27774
803.35	27808
803.492	27994
803.635	27972
803.777	28040
803.919	27998
804.061	28318
804.204	28044
804.346	27865
804.488	28010
804.63	27956
804.773	27743
804.915	27991
805.057	28169
805.199	28029
805.341	28086
805.483	28116
805.626	28246
805.768	27991
805.91	28097
806.052	28181
806.194	28032
806.336	28341
806.478	28287
806.62	28215
806.762	28462
806.904	28394
807.046	28740
807.188	28664
807.33	28660
807.472	28713
807.614	28603
807.756	28634
807.898	28436
808.04	28481
808.182	28379
808.324	28569
808.465	28344
808.607	28725
808.749	28866
808.891	28957
809.033	29010
809.174	28934
809.316	28843
809.458	28771
809.6	28904
809.741	29044
809.883	29079
810.025	29159
810.166	29246
810.308	29060
810.45	29189
810.591	29208
810.733	28976
810.875	28911
811.016	28805
811.158	28702
811.299	29113
811.441	29041
811.582	29121
811.724	28869
811.865	28972
812.007	28984
812.148	29041
812.29	28828
812.431	29124
812.573	29288
812.714	29520
812.855	29471
812.997	29668
813.138	29771
813.279	29520
813.421	29436
813.562	29455
813.703	29375
813.845	29132
813.986	28900
814.127	28835
814.268	28550
814.41	28717
814.551	28565
814.692	28710
814.833	28497
814.974	28516
815.115	28786
815.256	28440
815.397	28504
815.539	28405
815.68	28394
815.821	28238
815.962	28478
816.103	28481
816.244	28246
816.385	28249
816.526	28253
816.666	28116
816.807	27831
816.948	27972
817.089	28097
817.23	27998
817.371	27953
817.512	27941
817.653	27838
817.793	27831
817.934	27975
818.075	28010
818.216	27953
818.356	27846
818.497	27808
818.638	27739
818.778	27713
818.919	27717
819.06	27629
819.2	27812
819.341	27956
819.481	28021
819.622	28139
819.762	28211
819.903	28116
820.043	28192
820.184	28032
820.324	27994
820.465	28169
820.605	28135
820.746	28029
820.886	27941
821.026	27983
821.167	27991
821.307	28166
821.447	27918
821.588	27823
821.728	27743
821.868	27644
822.008	27454
822.149	27466
822.289	27397
822.429	27131
822.569	27161
822.709	27112
822.849	26872
822.99	26921
823.13	26792
823.27	26792
823.41	26701
823.55	26762
823.69	26739
823.83	26910
823.97	26838
824.11	26514
824.25	26541
824.389	26564
824.529	26689
824.669	26560
824.809	26640
824.949	26811
825.089	26739
825.228	26667
825.368	26465
825.508	26393
825.648	26526
825.787	26511
825.927	26552
826.067	26366
826.206	26522
826.346	26499
826.485	26419
826.625	26389
826.765	26526
826.904	26492
827.044	26176
827.183	26176
827.323	26206
827.462	26282
827.601	26180
827.741	26103
827.88	26313
828.02	26119
828.159	26267
828.298	26195
828.437	26191
828.577	26088
828.716	26157
828.855	26229
828.994	25833
829.134	25951
829.273	25974
829.412	25909
829.551	25845
829.69	25963
829.829	25978
829.968	25955
830.107	25913
830.246	25868
830.385	25784
830.524	25883
830.663	25780
830.802	25715
830.941	25392
831.08	25426
831.219	25479
831.357	25533
831.496	25651
831.635	25502
831.774	25301
831.913	25354
832.051	25266
832.19	25259
832.329	25304
832.467	25175
832.606	25221
832.744	25110
832.883	25221
833.022	25080
833.16	25202
833.299	25072
833.437	25187
833.576	25278
833.714	25240
833.852	25217
833.991	25278
834.129	25202
834.267	25209
834.406	25080
834.544	25160
834.682	25236
834.821	25126
834.959	25301
835.097	25164
835.235	25312
835.373	25187
835.511	25145
835.65	25019
835.788	25095
835.926	25015
836.064	24745
836.202	24833
836.34	25072
836.478	25168
836.615	24962
836.753	25069
836.891	25072
837.029	25114
837.167	25057
837.305	24901
837.443	24840
837.58	24787
837.718	24943
837.856	24943
837.993	24856
838.131	24848
838.269	24688
838.406	24734
838.544	24673
838.681	24460
838.819	24346
838.956	24300
839.094	24342
839.231	24384
839.369	24517
839.506	24764
839.643	24528
839.781	24266
839.918	24270
840.055	24319
840.193	24285
840.33	24220
840.467	24353
840.604	24407
840.742	24540
840.879	24232
841.016	24102
841.153	24167
841.29	24365
841.427	24209
841.564	24239
841.701	24281
841.838	24270
841.975	24095
842.112	24152
842.249	24079
842.385	23977
842.522	24095
842.659	24064
842.796	23843
842.933	24060
843.069	23984
843.206	23878
843.343	24140
843.479	23996
843.616	23882
843.752	23828
843.889	23805
844.025	23855
844.162	23779
844.298	23931
844.435	23851
844.571	23729
844.708	23969
844.844	23882
844.98	23912
845.117	23805
845.253	23695
845.389	23589
845.525	23722
845.661	23646
845.798	23570
845.934	23471
846.07	23360
846.206	23341
846.342	23528
846.478	23395
846.614	23231
846.75	23258
846.886	23204
847.022	23326
847.158	23117
847.294	23124
847.429	23193
847.565	23193
847.701	23398
847.837	22869
847.972	22850
848.108	23048
848.244	22972
848.379	22809
848.515	22812
848.65	22790
848.786	22942
848.921	22759
849.057	22927
849.192	22843
849.328	22854
849.463	22843
849.598	22710
849.734	22660
849.869	22691
850.004	22618
850.14	22672
850.275	22592
850.41	22386
850.545	22550
850.68	22569
850.815	22649
850.95	22497
851.085	22656
851.22	22641
851.355	22596
851.49	22596
851.625	22557
851.76	22497
851.895	22466
852.03	22478
852.165	22485
852.299	22706
852.434	22584
852.569	22759
852.703	22512
852.838	22725
852.973	22774
853.107	22641
853.242	22443
853.376	22390
853.511	22200
853.645	22341
853.78	22557
853.914	22322
854.048	22402
854.183	22405
854.317	22413
854.451	22546
854.585	22261
854.72	22386
854.854	22440
854.988	22341
855.122	22440
855.256	22257
855.39	22363
855.524	22455
855.658	22512
855.792	22386
855.926	22333
856.06	22379
856.194	22451
856.327	22337
856.461	22295
856.595	22527
856.729	22272
856.862	22390
856.996	22459
857.13	22447
857.263	22451
857.397	22512
857.53	22348
857.664	22363
857.797	22538
857.931	22577
858.064	22424
858.197	22596
858.331	22371
858.464	22333
858.597	22253
858.731	22382
858.864	22325
858.997	22287
859.13	22428
859.263	22417
859.396	22508
859.529	22287
859.662	22409
859.795	22402
859.928	22440
860.061	22577
860.194	22478
860.327	22466
860.46	22398
860.592	22440
860.725	22542
860.858	22573
860.99	22306
861.123	22287
861.256	22421
861.388	22402
861.521	23090
861.653	22344
861.786	22158
861.918	22257
862.05	22295
862.183	22204
862.315	22272
862.447	22405
862.58	22299
862.712	22135
862.844	22131
862.976	22257
863.108	22143
863.24	22554
863.372	21972
863.504	22147
863.636	22181
863.768	22063
863.9	22139
864.032	22177
864.164	22082
864.296	22166
864.428	22173
864.559	22040
864.691	22238
864.823	22166
864.954	22013
865.086	22109
865.217	22025
865.349	21987
865.48	21960
865.612	22044
865.743	22082
865.875	21934
866.006	21956
866.137	21987
866.269	21918
866.4	21926
866.531	21918
866.662	22006
866.793	21880
866.924	21895
867.055	21876
867.186	21892
867.317	21800
867.448	21724
867.579	21857
867.71	21876
867.841	21838
867.972	21911
868.103	21892
868.233	21949
868.364	21873
868.495	22040
868.625	22207
868.756	22207
868.886	22120
869.017	22101
869.147	22211
869.278	22200
869.408	22295
869.539	22192
869.669	22291
869.799	22242
869.929	22215
870.06	22265
870.19	22447
870.32	22367
870.45	22531
870.58	22455
870.71	22584
870.84	22653
870.97	22531
871.1	22516
871.23	22656
871.36	22565
871.489	22557
871.619	22729
871.749	22752
871.879	22752
872.008	23052
872.138	22668
872.267	22896
872.397	22626
872.526	22535
872.656	22759
872.785	22603
872.915	22710
873.044	22866
873.173	22828
873.303	22896
873.432	22774
873.561	22843
873.69	22725
873.819	22797
873.948	22752
874.077	22839
874.206	22713
874.335	22869
874.464	22881
874.593	22919
874.722	23083
874.851	23022
874.979	22896
875.108	22972
875.237	22965
875.365	22824
875.494	22847
875.623	23060
875.751	22839
875.88	23022
876.008	22942
876.136	23261
876.265	23455
876.393	23471
876.521	23402
876.65	23345
876.778	23334
876.906	23216
877.034	23277
877.162	23334
877.29	23402
877.418	23197
877.546	23379
877.674	23303
877.802	23353
877.93	23200
878.058	23376
878.185	23060
878.313	23113
878.441	23296
878.568	23136
878.696	23280
878.824	23326
878.951	23421
879.079	23417
879.206	23649
879.333	23395
879.461	23326
879.588	23379
879.715	23501
879.842	23589
879.97	23345
880.097	23098
880.224	23128
880.351	23174
880.478	23079
880.605	23170
880.732	23083
880.859	23288
880.986	23185
881.112	23166
881.239	22980
881.366	22984
881.493	22965
881.619	22706
881.746	22626
881.872	22660
881.999	22721
882.125	22584
882.252	22679
882.378	22660
882.505	22698
882.631	22516
882.757	22447
882.883	22451
883.01	22344
883.136	22379
883.262	22226
883.388	22173
883.514	22322
883.64	22398
883.766	22284
883.892	22101
884.018	22181
884.143	22230
884.269	22394
884.395	22177
884.52	21945
884.646	21918
884.772	21922
884.897	21884
885.023	21918
885.148	22154
885.274	22280
885.399	22021
885.524	22070
885.65	21964
885.775	22002
885.9	21876
886.025	22211
886.15	22055
886.275	21934
886.4	21945
886.525	22044
886.65	21964
886.775	21903
886.9	21895
887.025	22162
887.149	21926
887.274	21838
887.399	21766
887.523	21743
887.648	21732
887.773	21762
887.897	21819
888.021	21873
888.146	21622
888.27	21861
888.395	21755
888.519	21682
888.643	21823
888.767	21823
888.891	21728
889.015	21443
889.139	21679
889.263	21469
889.387	21679
889.511	21808
889.635	21564
889.759	21576
889.883	21458
890.006	21511
890.13	21526
890.254	21450
890.377	21348
890.501	21264
890.624	21226
890.748	21237
890.871	21157
890.995	21176
891.118	21051
891.241	21135
891.364	20975
891.488	21074
891.611	21100
891.734	21169
891.857	21214
891.98	20994
892.103	21108
892.226	21119
892.349	20982
892.471	20967
892.594	21001
892.717	21036
892.839	21066
892.962	21013
893.085	21062
893.207	20918
893.33	20902
893.452	20823
893.575	21001
893.697	21001
893.819	21214
893.941	21165
894.064	21108
894.186	21024
894.308	20857
894.43	21058
894.552	21214
894.674	21047
894.796	20948
894.918	20887
895.04	21032
895.161	21089
895.283	21020
895.405	20857
895.526	20853
895.648	20982
895.769	20937
895.891	20880
896.012	21207
896.134	21055
896.255	21024
896.376	20933
896.498	21036
896.619	21032
896.74	21043
896.861	21062
896.982	21283
897.103	21462
897.224	21294
897.345	21119
897.466	21157
897.587	21169
897.708	21340
897.828	21241
897.949	21138
898.07	21138
898.19	21131
898.311	21317
898.431	21154
898.552	21146
898.672	21165
898.792	21310
898.913	21154
899.033	20933
899.153	20868
899.273	20743
899.393	20834
899.513	20819
899.633	20880
899.753	20815
899.873	20857
899.993	20948
900.113	20769
900.232	20937
900.352	20640
900.472	20686
900.591	20644
900.711	20594
900.83	20530
900.95	20708
901.069	20849
901.189	20492
901.308	20324
901.427	20286
901.546	20309
901.665	20248
901.784	20259
901.904	20084
902.023	19993
902.141	19830
902.26	19803
902.379	19776
902.498	19677
902.617	19677
902.735	19666
902.854	19757
902.973	19689
903.091	19499
903.21	19476
903.328	19384
903.446	19228
903.565	19247
903.683	19114
903.801	18951
903.919	19152
904.038	19156
904.156	19099
904.274	19061
904.392	19031
904.51	18909
904.627	18989
904.745	18996
904.863	18962
904.981	18772
905.098	18623
905.216	18692
905.334	18760
905.451	18669
905.569	18658
905.686	18627
905.803	18673
905.921	18338
906.038	18509
906.155	18525
906.272	18357
906.389	18323
906.506	18106
906.623	18178
906.74	18152
906.857	18174
906.974	18015
907.091	18319
907.208	18384
907.324	18133
907.441	18068
907.557	17889
907.674	17840
907.79	17851
907.907	17817
908.023	17866
908.139	17874
908.256	17870
908.372	17847
908.488	17703
908.604	17608
908.72	17592
908.836	17532
908.952	17524
909.068	17642
909.184	17745
909.3	17543
909.415	17691
909.531	17444
909.647	17368
909.762	17349
909.878	17345
909.993	17315
910.108	17269
910.224	17242
910.339	17216
910.454	17181
910.57	17045
910.685	17018
910.8	17242
910.915	17261
911.03	17045
911.145	16866
911.259	16873
911.374	16828
911.489	16793
911.604	16702
911.718	16561
911.833	16611
911.947	16527
912.062	16493
912.176	16660
912.291	16603
912.405	16607
912.519	16824
912.633	16744
912.748	16634
912.862	16580
912.976	16569
913.09	16276
913.204	16379
913.318	16493
913.431	16523
913.545	16531
913.659	16580
913.772	16367
913.886	16173
914	16200
914.113	16291
914.226	16325
914.34	16333
914.453	16101
914.566	16173
914.68	16116
914.793	16086
914.906	15861
915.019	15804
915.132	15755
915.245	15743
915.358	15793
915.47	15785
915.583	15724
915.696	15930
915.809	15937
915.921	15953
916.034	15660
916.146	15595
916.259	15652
916.371	15804
916.483	15690
916.595	15599
916.708	15591
916.82	15644
916.932	15542
917.044	15618
917.156	15530
917.268	15462
917.38	15443
917.491	15370
917.603	15397
917.715	15511
917.826	15515
917.938	15370
918.049	15329
918.161	15382
918.272	15458
918.384	15435
918.495	15298
918.606	15150
918.717	15184
918.828	15165
918.939	15237
919.05	15051
919.161	15112
919.272	14933
919.383	15058
919.494	15256
919.604	15348
919.715	15169
919.826	15024
919.936	15135
920.047	15116
920.157	15161
920.267	15279
920.378	15154
920.488	15097
920.598	15287
920.708	15397
920.818	15287
920.928	15252
921.038	15359
921.148	15401
921.258	15085
921.368	14979
921.477	14853
921.587	14792
921.697	14663
921.806	14788
921.916	14590
922.025	14488
922.134	14492
922.244	14381
922.353	14457
922.462	14374
922.571	14313
922.68	14119
922.789	14054
922.898	14134
923.007	14012
923.116	14111
923.224	14096
923.333	14043
923.442	14031
923.55	13879
923.659	13913
923.767	14043
923.876	13830
923.984	13868
924.092	13795
924.201	13845
924.309	13902
924.417	13795
924.525	13750
924.633	13769
924.741	14625
924.849	13506
924.956	13594
925.064	13529
925.172	13468
925.279	13499
925.387	13537
925.494	13521
925.602	13594
925.709	13499
925.816	13400
925.924	13430
926.031	13449
926.138	13472
926.245	13487
926.352	13228
926.459	13537
926.566	13422
926.673	13362
926.779	13244
926.886	13168
926.993	13107
927.099	13076
927.206	13091
927.312	13008
927.419	13114
927.525	13015
927.631	13050
927.737	12913
927.843	12852
927.95	12787
928.056	12825
928.162	12848
928.267	12928
928.373	13449
928.479	12939
928.585	12711
928.69	12768
928.796	12848
928.901	12646
929.007	12612
929.112	12730
929.218	12711
929.323	12570
929.428	12555
929.533	12612
929.638	12479
929.743	12540
929.848	12601
929.953	12517
930.058	12289
930.163	12281
930.267	12247
930.372	12376
930.477	12224
930.581	12414
930.685	12232
930.79	12072
930.894	12129
930.998	12102
931.103	12186
931.207	11863
931.311	11745
931.415	11695
931.519	11547
931.623	11501
