Data from test_V78500241_2362.txt Node
Date: Fri Mar 25 15:58:09 CST 2022
User: usil
Spectrometer: V785-0024
Trigger mode: 0
Integration Time (sec): 4.000000E-1
Scans to average: 1
Nonlinearity correction enabled: false
Boxcar width: 0
Storing dark spectrum: false
XAxis mode: Wavelengths
Number of Pixels in Spectrum: 1024
>>>>>Begin Spectral Data<<<<<
801.071	28942
801.214	28984
801.356	28847
801.499	28618
801.641	28672
801.783	28596
801.926	28615
802.068	28455
802.211	28485
802.353	28398
802.496	28352
802.638	28413
802.78	28265
802.923	28219
803.065	28082
803.208	28188
803.35	28268
803.492	28440
803.635	28459
803.777	28348
803.919	28691
804.061	28755
804.204	28508
804.346	28417
804.488	28299
804.63	28527
804.773	28493
804.915	28588
805.057	28729
805.199	28523
805.341	28763
805.483	28611
805.626	28755
805.768	28611
805.91	28546
806.052	28672
806.194	28599
806.336	28873
806.478	28797
806.62	28763
806.762	28888
806.904	29029
807.046	29216
807.188	29208
807.33	29132
807.472	29242
807.614	29090
807.756	29121
807.898	28942
808.04	28987
808.182	28987
808.324	29079
808.465	29136
808.607	29277
808.749	29486
808.891	29493
809.033	29512
809.174	29444
809.316	29410
809.458	29193
809.6	29402
809.741	29497
809.883	29615
810.025	29786
810.166	29680
810.308	29707
810.45	29718
810.591	29657
810.733	29436
810.875	29250
811.016	29307
811.158	29368
811.299	29604
811.441	29524
811.582	29619
811.724	29455
811.865	29501
812.007	29471
812.148	29433
812.29	29535
812.431	29531
812.573	29741
812.714	29794
812.855	29954
812.997	30015
813.138	30167
813.279	30114
813.421	29965
813.562	29878
813.703	29783
813.845	29687
813.986	29398
814.127	29330
814.268	29143
814.41	29216
814.551	29132
814.692	29299
814.833	29117
814.974	29094
815.115	29098
815.256	29079
815.397	29025
815.539	29105
815.68	29064
815.821	28942
815.962	28995
816.103	28972
816.244	28812
816.385	28812
816.526	28759
816.666	28687
816.807	28459
816.948	28470
817.089	28698
817.23	28413
817.371	28421
817.512	28417
817.653	28470
817.793	28424
817.934	28409
818.075	28519
818.216	28413
818.356	28360
818.497	28394
818.638	28246
818.778	28162
818.919	28287
819.06	28257
819.2	28253
819.341	28500
819.481	28497
819.622	28599
819.762	28873
819.903	28752
820.043	28691
820.184	28630
820.324	28622
820.465	28603
820.605	28641
820.746	28554
820.886	28527
821.026	28561
821.167	28455
821.307	28584
821.447	28512
821.588	28421
821.728	28284
821.868	28070
822.008	27903
822.149	27861
822.289	27873
822.429	27736
822.569	27717
822.709	27580
822.849	27553
822.99	27420
823.13	27488
823.27	27401
823.41	27325
823.55	27142
823.69	27135
823.83	27279
823.97	27386
824.11	27005
824.25	27135
824.389	27066
824.529	27195
824.669	27085
824.809	27245
824.949	27161
825.089	27211
825.228	27165
825.368	26948
825.508	26868
825.648	27047
825.787	27001
825.927	27028
826.067	27009
826.206	27047
826.346	27077
826.485	27150
826.625	26990
826.765	27013
826.904	26975
827.044	26864
827.183	26731
827.323	26796
827.462	26678
827.601	26621
827.741	26655
827.88	26651
828.02	26575
828.159	26617
828.298	26556
828.437	26731
828.577	26613
828.716	26636
828.855	26545
828.994	26476
829.134	26507
829.273	26480
829.412	26438
829.551	26339
829.69	26575
829.829	26393
829.968	26427
830.107	26370
830.246	26560
830.385	26278
830.524	26206
830.663	26187
830.802	26191
830.941	25974
831.08	25906
831.219	26134
831.357	26035
831.496	26183
831.635	25982
831.774	25936
831.913	25921
832.051	25841
832.19	25613
832.329	25822
832.467	25780
832.606	25499
832.744	25613
832.883	25594
833.022	25533
833.16	25795
833.299	25628
833.437	25685
833.576	25803
833.714	25670
833.852	25788
833.991	25693
834.129	25875
834.267	25814
834.406	25734
834.544	25658
834.682	25795
834.821	25784
834.959	25951
835.097	25601
835.235	25651
835.373	25620
835.511	25826
835.65	25578
835.788	25639
835.926	25479
836.064	25312
836.202	25434
836.34	25582
836.478	25605
836.615	25491
836.753	25559
836.891	25719
837.029	25559
837.167	25487
837.305	25312
837.443	25502
837.58	25350
837.718	25567
837.856	25411
837.993	25411
838.131	25293
838.269	25304
838.406	25251
838.544	25152
838.681	25038
838.819	25065
838.956	24779
839.094	24772
839.231	24913
839.369	25042
839.506	25266
839.643	25156
839.781	24859
839.918	24734
840.055	24829
840.193	24905
840.33	24726
840.467	24597
840.604	24814
840.742	24962
840.879	24623
841.016	24646
841.153	24661
841.29	24939
841.427	24707
841.564	24783
841.701	24707
841.838	24616
841.975	24547
842.112	24745
842.249	24608
842.385	24513
842.522	24669
842.659	24650
842.796	24372
842.933	24532
843.069	24391
843.206	24414
843.343	24502
843.479	24509
843.616	24376
843.752	24148
843.889	24251
844.025	24445
844.162	24117
844.298	24342
844.435	24319
844.571	24247
844.708	24388
844.844	24532
844.98	24433
845.117	24414
845.253	24270
845.389	24144
845.525	24125
845.661	24098
845.798	24125
845.934	24038
846.07	23969
846.206	24083
846.342	23996
846.478	23954
846.614	23745
846.75	23638
846.886	23657
847.022	23794
847.158	23828
847.294	23642
847.429	23760
847.565	23745
847.701	24011
847.837	23368
847.972	23356
848.108	23547
848.244	23444
848.379	23368
848.515	23322
848.65	23322
848.786	23246
848.921	23360
849.057	23398
849.192	23356
849.328	23364
849.463	23235
849.598	23269
849.734	23250
849.869	23147
850.004	23261
850.14	23136
850.275	23033
850.41	23018
850.545	22991
850.68	23041
850.815	23025
850.95	23014
851.085	23086
851.22	23208
851.355	23067
851.49	22911
851.625	23090
851.76	22942
851.895	22957
852.03	22999
852.165	22965
852.299	23170
852.434	23162
852.569	23018
852.703	23048
852.838	23143
852.973	23174
853.107	23193
853.242	22957
853.376	22858
853.511	22824
853.645	22873
853.78	22949
853.914	22900
854.048	22645
854.183	22896
854.317	22923
854.451	23086
854.585	22812
854.72	22904
854.854	22908
854.988	22778
855.122	22801
855.256	22763
855.39	22828
855.524	22915
855.658	22957
855.792	22873
855.926	22911
856.06	22869
856.194	22900
856.327	22915
856.461	22812
856.595	22774
856.729	22885
856.862	23003
856.996	22919
857.13	22843
857.263	22934
857.397	22999
857.53	22885
857.664	22869
857.797	22942
857.931	22946
858.064	22980
858.197	22828
858.331	22786
858.464	22778
858.597	22740
858.731	22942
858.864	22847
858.997	22873
859.13	22843
859.263	22771
859.396	22984
859.529	22793
859.662	22835
859.795	22748
859.928	22778
860.061	22942
860.194	23083
860.327	22869
860.46	22793
860.592	23022
860.725	23018
860.858	22911
860.99	22831
861.123	22869
861.256	22752
861.388	22881
861.521	23573
861.653	22717
861.786	22721
861.918	22683
862.05	22634
862.183	22691
862.315	22809
862.447	22858
862.58	22752
862.712	22504
862.844	22603
862.976	22748
863.108	22622
863.24	22976
863.372	22455
863.504	22569
863.636	22630
863.768	22618
863.9	22500
864.032	22440
864.164	22497
864.296	22481
864.428	22653
864.559	22630
864.691	22588
864.823	22668
864.954	22561
865.086	22527
865.217	22329
865.349	22367
865.48	22428
865.612	22428
865.743	22596
865.875	22474
866.006	22466
866.137	22500
866.269	22428
866.4	22462
866.531	22261
866.662	22284
866.793	22306
866.924	22337
867.055	22432
867.186	22443
867.317	22322
867.448	22257
867.579	22291
867.71	22211
867.841	22405
867.972	22341
868.103	22337
868.233	22291
868.364	22318
868.495	22398
868.625	22599
868.756	22755
868.886	22504
869.017	22538
869.147	22683
869.278	22626
869.408	22706
869.539	22561
869.669	22531
869.799	22683
869.929	22782
870.06	22649
870.19	22908
870.32	22850
870.45	23018
870.58	23083
870.71	23162
870.84	23075
870.97	23022
871.1	22980
871.23	23105
871.36	23250
871.489	23159
871.619	23159
871.749	23132
871.879	23208
872.008	23227
872.138	23189
872.267	23307
872.397	23090
872.526	23071
872.656	23079
872.785	22942
872.915	23220
873.044	23254
873.173	23250
873.303	23280
873.432	23360
873.561	23322
873.69	23265
873.819	23204
873.948	23193
874.077	23140
874.206	23064
874.335	23212
874.464	23280
874.593	23406
874.722	23364
874.851	23448
874.979	23406
875.108	23414
875.237	23246
875.365	23376
875.494	23349
875.623	23395
875.751	23387
875.88	23425
876.008	23482
876.136	23608
876.265	23843
876.393	23908
876.521	23912
876.65	23920
876.778	23824
876.906	23710
877.034	23741
877.162	23775
877.29	23805
877.418	23767
877.546	23809
877.674	23809
877.802	23794
877.93	23604
878.058	23718
878.185	23661
878.313	23649
878.441	23737
878.568	23699
878.696	23668
878.824	23745
878.951	23794
879.079	24003
879.206	23992
879.333	24076
879.461	23756
879.588	23843
879.715	23923
879.842	24015
879.97	23802
880.097	23558
880.224	23486
880.351	23585
880.478	23619
880.605	23566
880.732	23573
880.859	23676
880.986	23589
881.112	23611
881.239	23543
881.366	23284
881.493	23239
881.619	23231
881.746	23265
881.872	23105
881.999	23159
882.125	23075
882.252	23109
882.378	23094
882.505	23056
882.631	22919
882.757	22908
882.883	22831
883.01	22744
883.136	22656
883.262	22755
883.388	22694
883.514	22744
883.64	22805
883.766	22698
883.892	22584
884.018	22615
884.143	22569
884.269	22816
884.395	22660
884.52	22470
884.646	22497
884.772	22356
884.897	22428
885.023	22535
885.148	22413
885.274	22527
885.399	22459
885.524	22512
885.65	22497
885.775	22516
885.9	22421
886.025	22622
886.15	22599
886.275	22443
886.4	22489
886.525	22287
886.65	22253
886.775	22249
886.9	22535
887.025	22577
887.149	22390
887.274	22234
887.399	22185
887.523	22070
887.648	22109
887.773	22101
887.897	22200
888.021	22223
888.146	22040
888.27	22268
888.395	22257
888.519	22147
888.643	22173
888.767	22158
888.891	22070
889.015	21998
889.139	22010
889.263	21915
889.387	22131
889.511	22207
889.635	22086
889.759	21960
889.883	21888
890.006	21972
890.13	21979
890.254	21842
890.377	21800
890.501	21660
890.624	21781
890.748	21736
890.871	21618
890.995	21576
891.118	21485
891.241	21591
891.364	21500
891.488	21732
891.611	21576
891.734	21622
891.857	21447
891.98	21595
892.103	21610
892.226	21412
892.349	21466
892.471	21359
892.594	21447
892.717	21515
892.839	21477
892.962	21332
893.085	21473
893.207	21363
893.33	21370
893.452	21317
893.575	21348
893.697	21264
893.819	21549
893.941	21538
894.064	21526
894.186	21306
894.308	21252
894.43	21625
894.552	21420
894.674	21523
894.796	21351
894.918	21378
895.04	21325
895.161	21450
895.283	21473
895.405	21348
895.526	21401
895.648	21378
895.769	21439
895.891	21477
896.012	21477
896.134	21443
896.255	21283
896.376	21287
896.498	21389
896.619	21370
896.74	21408
896.861	21447
896.982	21648
897.103	21804
897.224	21667
897.345	21587
897.466	21603
897.587	21679
897.708	21633
897.828	21637
897.949	21515
898.07	21466
898.19	21485
898.311	21667
898.431	21530
898.552	21633
898.672	21614
898.792	21637
898.913	21549
899.033	21519
899.153	21370
899.273	21367
899.393	21302
899.513	21275
899.633	21275
899.753	21272
899.873	21272
899.993	21363
900.113	21279
900.232	21214
900.352	21298
900.472	21176
900.591	20998
900.711	21081
900.83	20925
900.95	21047
901.069	21100
901.189	20868
901.308	20667
901.427	20629
901.546	20568
901.665	20651
901.784	20655
901.904	20332
902.023	20469
902.141	20290
902.26	20115
902.379	20134
902.498	20062
902.617	20050
902.735	20130
902.854	20043
902.973	20058
903.091	19780
903.21	19780
903.328	19814
903.446	19708
903.565	19635
903.683	19483
903.801	19476
903.919	19613
904.038	19483
904.156	19266
904.274	19472
904.392	19282
904.51	19198
904.627	19247
904.745	19324
904.863	19293
904.981	19148
905.098	18958
905.216	19099
905.334	19065
905.451	19038
905.569	18943
905.686	18871
905.803	19019
905.921	18772
906.038	18890
906.155	18745
906.272	18601
906.389	18791
906.506	18597
906.623	18509
906.74	18566
906.857	18350
906.974	18323
907.091	18574
907.208	18658
907.324	18445
907.441	18418
907.557	18330
907.674	18178
907.79	18258
907.907	18197
908.023	18285
908.139	18178
908.256	18076
908.372	18144
908.488	17999
908.604	17992
908.72	17912
908.836	17984
908.952	17824
909.068	17882
909.184	17988
909.3	17954
909.415	17965
909.531	17817
909.647	17630
909.762	17733
909.878	17676
909.993	17726
910.108	17566
910.224	17634
910.339	17581
910.454	17429
910.57	17471
910.685	17318
910.8	17657
910.915	17551
911.03	17395
911.145	17288
911.259	17208
911.374	17162
911.489	17117
911.604	17052
911.718	17029
911.833	16946
911.947	16816
912.062	16698
912.176	17018
912.291	16976
912.405	16930
912.519	17132
912.633	17117
912.748	17037
912.862	16858
912.976	16873
913.09	16767
913.204	16660
913.318	16733
913.431	16763
913.545	16812
913.659	16908
913.772	16660
913.886	16603
914	16577
914.113	16599
914.226	16558
914.34	16637
914.453	16413
914.566	16527
914.68	16413
914.793	16390
914.906	16253
915.019	16124
915.132	16120
915.245	16242
915.358	16032
915.47	16090
915.583	16211
915.696	16067
915.809	16105
915.921	16188
916.034	16021
916.146	15972
916.259	16032
916.371	16139
916.483	15930
916.595	15949
916.708	15998
916.82	15869
916.932	15823
917.044	15857
917.156	15823
917.268	15724
917.38	15747
917.491	15701
917.603	15667
917.715	15774
917.826	15842
917.938	15663
918.049	15606
918.161	15606
918.272	15766
918.384	15797
918.495	15629
918.606	15462
918.717	15538
918.828	15515
918.939	15473
919.05	15408
919.161	15416
919.272	15176
919.383	15233
919.494	15397
919.604	15629
919.715	15363
919.826	15233
919.936	15420
920.047	15408
920.157	15416
920.267	15530
920.378	15408
920.488	15412
920.598	15603
920.708	15728
920.818	15500
920.928	15507
921.038	15675
921.148	15591
921.258	15325
921.368	15329
921.477	15154
921.587	15036
921.697	14960
921.806	15081
921.916	14994
922.025	14762
922.134	14785
922.244	14587
922.353	14823
922.462	14670
922.571	14560
922.68	14347
922.789	14370
922.898	14370
923.007	14244
923.116	14256
923.224	14343
923.333	14415
923.442	14332
923.55	14237
923.659	14244
923.767	14309
923.876	14218
923.984	14309
924.092	14035
924.201	14138
924.309	14073
924.417	14039
924.525	14111
924.633	14084
924.741	14910
924.849	13818
924.956	13913
925.064	13864
925.172	13731
925.279	13723
925.387	13772
925.494	13845
925.602	13921
925.709	13811
925.816	13666
925.924	13715
926.031	13715
926.138	13681
926.245	13750
926.352	13636
926.459	13719
926.566	13723
926.673	13601
926.779	13472
926.886	13411
926.993	13434
927.099	13274
927.206	13244
927.312	13240
927.419	13327
927.525	13263
927.631	13263
927.737	13213
927.843	13065
927.95	13046
928.056	13129
928.162	13084
928.267	13164
928.373	13734
928.479	13228
928.585	12939
928.69	13042
928.796	13145
928.901	12970
929.007	12734
929.112	12882
929.218	12867
929.323	12817
929.428	12810
929.533	12867
929.638	12688
929.743	12711
929.848	12840
929.953	12696
930.058	12696
930.163	12471
930.267	12471
930.372	12616
930.477	12467
930.581	12692
930.685	12498
930.79	12247
930.894	12277
930.998	12239
931.103	12456
931.207	12102
931.311	12007
931.415	11927
931.519	11771
931.623	11786
