Data from test_V78500241_2969.txt Node
Date: Fri Mar 25 16:02:22 CST 2022
User: usil
Spectrometer: V785-0024
Trigger mode: 0
Integration Time (sec): 4.000000E-1
Scans to average: 1
Nonlinearity correction enabled: false
Boxcar width: 0
Storing dark spectrum: false
XAxis mode: Wavelengths
Number of Pixels in Spectrum: 1024
>>>>>Begin Spectral Data<<<<<
801.071	28154
801.214	28124
801.356	27789
801.499	27934
801.641	27789
801.783	27819
801.926	27846
802.068	27846
802.211	27614
802.353	27679
802.496	27625
802.638	27603
802.78	27382
802.923	27302
803.065	27325
803.208	27226
803.35	27393
803.492	27530
803.635	27561
803.777	27523
803.919	27675
804.061	27941
804.204	27732
804.346	27591
804.488	27488
804.63	27610
804.773	27564
804.915	27614
805.057	27709
805.199	27526
805.341	27713
805.483	27789
805.626	27751
805.768	27701
805.91	27785
806.052	27880
806.194	27804
806.336	27835
806.478	27793
806.62	27918
806.762	27842
806.904	28067
807.046	28295
807.188	28226
807.33	28348
807.472	28192
807.614	28147
807.756	28169
807.898	28090
808.04	27960
808.182	27895
808.324	28181
808.465	28109
808.607	28287
808.749	28356
808.891	28401
809.033	28504
809.174	28561
809.316	28382
809.458	28291
809.6	28386
809.741	28459
809.883	28569
810.025	28828
810.166	28698
810.308	28637
810.45	28687
810.591	28706
810.733	28409
810.875	28417
811.016	28287
811.158	28386
811.299	28489
811.441	28554
811.582	28394
811.724	28459
811.865	28481
812.007	28360
812.148	28386
812.29	28516
812.431	28634
812.573	28702
812.714	28740
812.855	28999
812.997	29113
813.138	29242
813.279	29025
813.421	29086
813.562	28946
813.703	28790
813.845	28592
813.986	28386
814.127	28230
814.268	28135
814.41	28135
814.551	28059
814.692	28207
814.833	27945
814.974	28063
815.115	28040
815.256	27987
815.397	28055
815.539	27876
815.68	27949
815.821	27827
815.962	27960
816.103	28025
816.244	27717
816.385	27732
816.526	27713
816.666	27576
816.807	27329
816.948	27481
817.089	27534
817.23	27355
817.371	27488
817.512	27359
817.653	27408
817.793	27363
817.934	27332
818.075	27355
818.216	27344
818.356	27272
818.497	27363
818.638	27062
818.778	27123
818.919	27135
819.06	27268
819.2	27279
819.341	27302
819.481	27427
819.622	27458
819.762	27759
819.903	27778
820.043	27568
820.184	27587
820.324	27496
820.465	27583
820.605	27576
820.746	27507
820.886	27477
821.026	27481
821.167	27485
821.307	27564
821.447	27427
821.588	27302
821.728	27241
821.868	26971
822.008	26960
822.149	26853
822.289	26845
822.429	26667
822.569	26632
822.709	26587
822.849	26415
822.99	26442
823.13	26328
823.27	26412
823.41	26298
823.55	26221
823.69	26256
823.83	26271
823.97	26039
824.11	26039
824.25	26043
824.389	25928
824.529	26096
824.669	25997
824.809	26100
824.949	26088
825.089	26145
825.228	26016
825.368	25811
825.508	25826
825.648	25966
825.787	26031
825.927	25871
826.067	25856
826.206	25932
826.346	26016
826.485	26012
826.625	25963
826.765	25959
826.904	25982
827.044	25613
827.183	25731
827.323	25639
827.462	25746
827.601	25525
827.741	25578
827.88	25590
828.02	25559
828.159	25540
828.298	25662
828.437	25708
828.577	25525
828.716	25635
828.855	25674
828.994	25320
829.134	25369
829.273	25282
829.412	25335
829.551	25297
829.69	25278
829.829	25369
829.968	25335
830.107	25358
830.246	25365
830.385	25324
830.524	25126
830.663	25072
830.802	24996
830.941	24837
831.08	24894
831.219	24932
831.357	25000
831.496	25099
831.635	24787
831.774	24745
831.913	24825
832.051	24760
832.19	24745
832.329	24631
832.467	24620
832.606	24604
832.744	24654
832.883	24475
833.022	24646
833.16	24528
833.299	24730
833.437	24585
833.576	24734
833.714	24642
833.852	24597
833.991	24745
834.129	24825
834.267	24722
834.406	24757
834.544	24642
834.682	24635
834.821	24707
834.959	24745
835.097	24635
835.235	24688
835.373	24642
835.511	24665
835.65	24509
835.788	24566
835.926	24433
836.064	24243
836.202	24338
836.34	24494
836.478	24509
836.615	24445
836.753	24471
836.891	24521
837.029	24525
837.167	24350
837.305	24395
837.443	24213
837.58	24422
837.718	24388
837.856	24262
837.993	24327
838.131	24273
838.269	24121
838.406	24209
838.544	24213
838.681	23916
838.819	23824
838.956	23809
839.094	23710
839.231	23824
839.369	23935
839.506	24273
839.643	24152
839.781	23863
839.918	23710
840.055	23737
840.193	23710
840.33	23764
840.467	23707
840.604	23813
840.742	23901
840.879	23604
841.016	23642
841.153	23649
841.29	23813
841.427	23627
841.564	23634
841.701	23661
841.838	23509
841.975	23581
842.112	23596
842.249	23448
842.385	23463
842.522	23619
842.659	23531
842.796	23444
842.933	23391
843.069	23345
843.206	23402
843.343	23471
843.479	23307
843.616	23478
843.752	23223
843.889	23128
844.025	23315
844.162	23113
844.298	23239
844.435	23212
844.571	23200
844.708	23250
844.844	23471
844.98	23277
845.117	23315
845.253	23239
845.389	23037
845.525	23174
845.661	23170
845.798	23025
845.934	22987
846.07	22885
846.206	22946
846.342	23174
846.478	22892
846.614	22649
846.75	22618
846.886	22675
847.022	22869
847.158	22679
847.294	22717
847.429	22637
847.565	22588
847.701	22968
847.837	22333
847.972	22405
848.108	22485
848.244	22390
848.379	22280
848.515	22314
848.65	22242
848.786	22242
848.921	22287
849.057	22249
849.192	22363
849.328	22246
849.463	22284
849.598	22234
849.734	22219
849.869	22048
850.004	22021
850.14	22048
850.275	22040
850.41	21949
850.545	21983
850.68	21922
850.815	22097
850.95	21998
851.085	22173
851.22	22158
851.355	22093
851.49	22017
851.625	22048
851.76	22025
851.895	22044
852.03	21892
852.165	22078
852.299	22158
852.434	22131
852.569	22010
852.703	22067
852.838	22067
852.973	22093
853.107	22040
853.242	21979
853.376	21865
853.511	21759
853.645	21785
853.78	21903
853.914	21895
854.048	21861
854.183	21972
854.317	21922
854.451	21949
854.585	21816
854.72	21778
854.854	21945
854.988	21854
855.122	21800
855.256	21637
855.39	21686
855.524	21895
855.658	21800
855.792	21922
855.926	21880
856.06	21987
856.194	21956
856.327	21846
856.461	21816
856.595	21911
856.729	21956
856.862	22048
856.996	21838
857.13	21892
857.263	21968
857.397	21937
857.53	21812
857.664	21865
857.797	21823
857.931	21915
858.064	21899
858.197	21972
858.331	21709
858.464	21808
858.597	21778
858.731	21823
858.864	21835
858.997	21823
859.13	21804
859.263	21808
859.396	21972
859.529	21884
859.662	21686
859.795	21789
859.928	21975
860.061	22021
860.194	22147
860.327	21941
860.46	21880
860.592	21842
860.725	21964
860.858	21972
860.99	21873
861.123	21747
861.256	21743
861.388	21793
861.521	22538
861.653	21724
861.786	21663
861.918	21759
862.05	21743
862.183	21804
862.315	21781
862.447	21819
862.58	21728
862.712	21519
862.844	21572
862.976	21705
863.108	21526
863.24	22074
863.372	21428
863.504	21492
863.636	21534
863.768	21625
863.9	21530
864.032	21523
864.164	21561
864.296	21538
864.428	21713
864.559	21644
864.691	21637
864.823	21606
864.954	21652
865.086	21561
865.217	21488
865.349	21359
865.48	21367
865.612	21424
865.743	21469
865.875	21481
866.006	21443
866.137	21435
866.269	21428
866.4	21420
866.531	21386
866.662	21416
866.793	21420
866.924	21378
867.055	21363
867.186	21370
867.317	21355
867.448	21291
867.579	21351
867.71	21359
867.841	21367
867.972	21348
868.103	21340
868.233	21401
868.364	21389
868.495	21553
868.625	21762
868.756	21747
868.886	21561
869.017	21629
869.147	21663
869.278	21770
869.408	21587
869.539	21629
869.669	21717
869.799	21701
869.929	21774
870.06	21720
870.19	22002
870.32	21987
870.45	21915
870.58	22086
870.71	22112
870.84	22150
870.97	22070
871.1	22036
871.23	22200
871.36	22105
871.489	22086
871.619	22173
871.749	22272
871.879	22219
872.008	22291
872.138	22280
872.267	22257
872.397	22101
872.526	22078
872.656	22059
872.785	22128
872.915	22268
873.044	22333
873.173	22154
873.303	22325
873.432	22344
873.561	22344
873.69	22329
873.819	22325
873.948	22348
874.077	22295
874.206	22211
874.335	22265
874.464	22402
874.593	22478
874.722	22512
874.851	22504
874.979	22512
875.108	22546
875.237	22405
875.365	22402
875.494	22489
875.623	22603
875.751	22424
875.88	22550
876.008	22436
876.136	22675
876.265	22877
876.393	23083
876.521	22995
876.65	22915
876.778	22862
876.906	22858
877.034	22782
877.162	22919
877.29	22698
877.418	22816
877.546	22797
877.674	22748
877.802	22900
877.93	22717
878.058	22710
878.185	22763
878.313	22847
878.441	22752
878.568	22713
878.696	22736
878.824	22790
878.951	22858
879.079	22942
879.206	23189
879.333	23185
879.461	22850
879.588	22835
879.715	22968
879.842	23067
879.97	22908
880.097	22729
880.224	22729
880.351	22691
880.478	22611
880.605	22630
880.732	22599
880.859	22736
880.986	22573
881.112	22698
881.239	22424
881.366	22535
881.493	22226
881.619	22257
881.746	22242
881.872	22253
881.999	22226
882.125	22105
882.252	22268
882.378	22120
882.505	22337
882.631	22006
882.757	22006
882.883	21854
883.01	21937
883.136	21960
883.262	21572
883.388	21564
883.514	21930
883.64	21873
883.766	21838
883.892	21564
884.018	21656
884.143	21857
884.269	21956
884.395	21523
884.52	21637
884.646	21568
884.772	21519
884.897	21481
885.023	21492
885.148	21595
885.274	21739
885.399	21644
885.524	21633
885.65	21663
885.775	21523
885.9	21504
886.025	21622
886.15	21675
886.275	21469
886.4	21557
886.525	21507
886.65	21401
886.775	21473
886.9	21667
887.025	21770
887.149	21500
887.274	21348
887.399	21397
887.523	21279
887.648	21317
887.773	21268
887.897	21447
888.021	21348
888.146	21222
888.27	21336
888.395	21435
888.519	21329
888.643	21275
888.767	21325
888.891	21256
889.015	21085
889.139	21237
889.263	21203
889.387	21260
889.511	21226
889.635	21104
889.759	21104
889.883	21093
890.006	21081
890.13	21283
890.254	21051
890.377	21077
890.501	20906
890.624	20716
890.748	20762
890.871	20693
890.995	20560
891.118	20587
891.241	20613
891.364	20758
891.488	20765
891.611	20613
891.734	20712
891.857	20689
891.98	20625
892.103	20735
892.226	20648
892.349	20606
892.471	20343
892.594	20552
892.717	20533
892.839	20495
892.962	20590
893.085	20590
893.207	20556
893.33	20415
893.452	20507
893.575	20609
893.697	20419
893.819	20720
893.941	20731
894.064	20708
894.186	20366
894.308	20434
894.43	20568
894.552	20663
894.674	20632
894.796	20415
894.918	20442
895.04	20537
895.161	20533
895.283	20495
895.405	20442
895.526	20541
895.648	20549
895.769	20549
895.891	20705
896.012	20571
896.134	20541
896.255	20571
896.376	20492
896.498	20488
896.619	20606
896.74	20560
896.861	20613
896.982	20815
897.103	21001
897.224	20845
897.345	20731
897.466	20686
897.587	20758
897.708	20811
897.828	20830
897.949	20785
898.07	20583
898.19	20648
898.311	20720
898.431	20686
898.552	20883
898.672	20811
898.792	20804
898.913	20697
899.033	20640
899.153	20484
899.273	20396
899.393	20423
899.513	20522
899.633	20556
899.753	20606
899.873	20415
899.993	20571
900.113	20358
900.232	20526
900.352	20336
900.472	20370
900.591	20183
900.711	20244
900.83	20324
900.95	20419
901.069	20256
901.189	20248
901.308	19921
901.427	19830
901.546	19868
901.665	19951
901.784	19883
901.904	19685
902.023	19632
902.141	19407
902.26	19430
902.379	19445
902.498	19396
902.617	19453
902.735	19373
902.854	19289
902.973	19259
903.091	19027
903.21	18989
903.328	18954
903.446	18966
903.565	18890
903.683	18795
903.801	18703
903.919	18795
904.038	18730
904.156	18570
904.274	18620
904.392	18597
904.51	18525
904.627	18486
904.745	18563
904.863	18604
904.981	18384
905.098	18205
905.216	18311
905.334	18304
905.451	18277
905.569	18239
905.686	18243
905.803	18296
905.921	18022
906.038	18129
906.155	18117
906.272	17923
906.389	17863
906.506	17878
906.623	17790
906.74	17703
906.857	17760
906.974	17661
907.091	17851
907.208	17813
907.324	17790
907.441	17676
907.557	17585
907.674	17532
907.79	17326
907.907	17440
908.023	17425
908.139	17493
908.256	17463
908.372	17414
908.488	17322
908.604	17326
908.72	17185
908.836	17231
908.952	17216
909.068	17147
909.184	17417
909.3	17155
909.415	17277
909.531	17208
909.647	17067
909.762	16927
909.878	16824
909.993	16904
910.108	16881
910.224	16980
910.339	16858
910.454	16771
910.57	16717
910.685	16653
910.8	16915
910.915	16847
911.03	16721
911.145	16527
911.259	16485
911.374	16538
911.489	16436
911.604	16348
911.718	16173
911.833	16200
911.947	16166
912.062	16048
912.176	16318
912.291	16272
912.405	16249
912.519	16432
912.633	16436
912.748	16306
912.862	16246
912.976	16040
913.09	16002
913.204	15987
913.318	16021
913.431	16154
913.545	16112
913.659	16063
913.772	16093
913.886	15953
914	15922
914.113	15865
914.226	16090
914.34	15869
914.453	15762
914.566	15911
914.68	15743
914.793	15736
914.906	15561
915.019	15473
915.132	15359
915.245	15291
915.358	15473
915.47	15534
915.583	15564
915.696	15561
915.809	15515
915.921	15587
916.034	15431
916.146	15313
916.259	15355
916.371	15378
916.483	15424
916.595	15329
916.708	15382
916.82	15317
916.932	15180
917.044	15180
917.156	15218
917.268	15097
917.38	15146
917.491	15047
917.603	15024
917.715	15252
917.826	15142
917.938	14998
918.049	14902
918.161	14948
918.272	15112
918.384	15131
918.495	15062
918.606	14929
918.717	14872
918.828	14883
918.939	14845
919.05	14781
919.161	14895
919.272	14617
919.383	14735
919.494	14834
919.604	14979
919.715	14872
919.826	14606
919.936	14800
920.047	14830
920.157	14777
920.267	14971
920.378	14861
920.488	14708
920.598	14963
920.708	15138
920.818	14929
920.928	14941
921.038	15074
921.148	15047
921.258	14701
921.368	14648
921.477	14587
921.587	14560
921.697	14431
921.806	14549
921.916	14465
922.025	14259
922.134	14210
922.244	14157
922.353	14275
922.462	13997
922.571	14043
922.68	13871
922.789	13799
922.898	13811
923.007	13811
923.116	13902
923.224	13822
923.333	13894
923.442	13666
923.55	13590
923.659	13780
923.767	13715
923.876	13476
923.984	13632
924.092	13540
924.201	13544
924.309	13628
924.417	13559
924.525	13540
924.633	13449
924.741	14256
924.849	13236
924.956	13411
925.064	13324
925.172	13179
925.279	13145
925.387	13190
925.494	13232
925.602	13278
925.709	13266
925.816	13050
925.924	13217
926.031	13225
926.138	13088
926.245	13194
926.352	13141
926.459	13126
926.566	13175
926.673	13050
926.779	13027
926.886	12943
926.993	12817
927.099	12745
927.206	12722
927.312	12692
927.419	12802
927.525	12764
927.631	12734
927.737	12688
927.843	12635
927.95	12509
928.056	12566
928.162	12570
928.267	12635
928.373	13255
928.479	12623
928.585	12395
928.69	12509
928.796	12612
928.901	12452
929.007	12353
929.112	12490
929.218	12384
929.323	12285
929.428	12289
929.533	12464
929.638	12251
929.743	12323
929.848	12350
929.953	12182
930.058	12136
930.163	11946
930.267	11901
930.372	12076
930.477	11992
930.581	12213
930.685	12041
930.79	11859
930.894	11847
930.998	11863
931.103	12038
931.207	11699
931.311	11463
931.415	11467
931.519	11322
931.623	11201
