Data from test_V78500241_2857.txt Node
Date: Fri Mar 25 16:01:35 CST 2022
User: usil
Spectrometer: V785-0024
Trigger mode: 0
Integration Time (sec): 4.000000E-1
Scans to average: 1
Nonlinearity correction enabled: false
Boxcar width: 0
Storing dark spectrum: false
XAxis mode: Wavelengths
Number of Pixels in Spectrum: 1024
>>>>>Begin Spectral Data<<<<<
801.071	29261
801.214	28957
801.356	28824
801.499	28812
801.641	28702
801.783	28660
801.926	28778
802.068	28637
802.211	28649
802.353	28660
802.496	28440
802.638	28295
802.78	28310
802.923	28341
803.065	28166
803.208	28322
803.35	28386
803.492	28516
803.635	28660
803.777	28481
803.919	28607
804.061	28991
804.204	28679
804.346	28637
804.488	28527
804.63	28603
804.773	28565
804.915	28694
805.057	28900
805.199	28664
805.341	28812
805.483	28809
805.626	28904
805.768	28748
805.91	28763
806.052	28713
806.194	28679
806.336	28923
806.478	28888
806.62	28721
806.762	28888
806.904	29060
807.046	29326
807.188	29147
807.33	29395
807.472	29299
807.614	29140
807.756	29174
807.898	28930
808.04	29067
808.182	29098
808.324	29140
808.465	29204
808.607	29452
808.749	29512
808.891	29505
809.033	29691
809.174	29474
809.316	29459
809.458	29486
809.6	29421
809.741	29493
809.883	29551
810.025	29676
810.166	29794
810.308	29767
810.45	29741
810.591	29638
810.733	29623
810.875	29566
811.016	29398
811.158	29528
811.299	29615
811.441	29661
811.582	29687
811.724	29547
811.865	29611
812.007	29444
812.148	29444
812.29	29524
812.431	29775
812.573	29973
812.714	29988
812.855	29935
812.997	30038
813.138	30213
813.279	30117
813.421	30076
813.562	29973
813.703	29832
813.845	29775
813.986	29551
814.127	29322
814.268	29212
814.41	29227
814.551	29113
814.692	29318
814.833	29265
814.974	29132
815.115	29193
815.256	29208
815.397	28965
815.539	29067
815.68	28961
815.821	28957
815.962	29003
816.103	29143
816.244	28953
816.385	28809
816.526	28858
816.666	28790
816.807	28561
816.948	28607
817.089	28687
817.23	28580
817.371	28580
817.512	28478
817.653	28451
817.793	28447
817.934	28504
818.075	28557
818.216	28672
818.356	28432
818.497	28382
818.638	28223
818.778	28314
818.919	28421
819.06	28337
819.2	28459
819.341	28649
819.481	28470
819.622	28565
819.762	28930
819.903	28885
820.043	28672
820.184	28668
820.324	28660
820.465	28679
820.605	28744
820.746	28736
820.886	28622
821.026	28679
821.167	28675
821.307	28740
821.447	28607
821.588	28382
821.728	28375
821.868	28162
822.008	27998
822.149	28109
822.289	28002
822.429	27770
822.569	27705
822.709	27724
822.849	27595
822.99	27576
823.13	27545
823.27	27431
823.41	27386
823.55	27211
823.69	27329
823.83	27405
823.97	27294
824.11	27017
824.25	27135
824.389	27112
824.529	27256
824.669	27180
824.809	27237
824.949	27332
825.089	27203
825.228	27104
825.368	27074
825.508	27043
825.648	27005
825.787	27264
825.927	27017
826.067	27017
826.206	27161
826.346	27195
826.485	27058
826.625	27077
826.765	27173
826.904	27096
827.044	26921
827.183	26815
827.323	26682
827.462	26902
827.601	26754
827.741	26674
827.88	26769
828.02	26609
828.159	26754
828.298	26807
828.437	26868
828.577	26777
828.716	26887
828.855	26689
828.994	26370
829.134	26400
829.273	26526
829.412	26412
829.551	26514
829.69	26488
829.829	26541
829.968	26552
830.107	26621
830.246	26347
830.385	26351
830.524	26301
830.663	26366
830.802	26275
830.941	26069
831.08	26100
831.219	26111
831.357	26240
831.496	26377
831.635	26031
831.774	26138
831.913	25959
832.051	25947
832.19	26031
832.329	25887
832.467	25700
832.606	25624
832.744	25723
832.883	25719
833.022	25601
833.16	25826
833.299	25890
833.437	25791
833.576	25784
833.714	25738
833.852	25909
833.991	25814
834.129	25818
834.267	25902
834.406	25742
834.544	25811
834.682	25791
834.821	25734
834.959	26012
835.097	25811
835.235	25742
835.373	25719
835.511	25658
835.65	25571
835.788	25677
835.926	25495
836.064	25400
836.202	25567
836.34	25635
836.478	25833
836.615	25483
836.753	25620
836.891	25647
837.029	25594
837.167	25597
837.305	25571
837.443	25548
837.58	25449
837.718	25567
837.856	25514
837.993	25339
838.131	25468
838.269	25187
838.406	25373
838.544	25335
838.681	25095
838.819	25050
838.956	24913
839.094	24821
839.231	24890
839.369	24973
839.506	25339
839.643	25236
839.781	24913
839.918	24852
840.055	24916
840.193	24852
840.33	24726
840.467	24757
840.604	24776
840.742	25057
840.879	24677
841.016	24798
841.153	24700
841.29	24901
841.427	24776
841.564	24840
841.701	24817
841.838	24654
841.975	24768
842.112	24639
842.249	24867
842.385	24627
842.522	24852
842.659	24582
842.796	24544
842.933	24483
843.069	24585
843.206	24483
843.343	24559
843.479	24608
843.616	24509
843.752	24213
843.889	24376
844.025	24547
844.162	24327
844.298	24391
844.435	24266
844.571	24281
844.708	24486
844.844	24658
844.98	24486
845.117	24414
845.253	24277
845.389	24216
845.525	24178
845.661	24258
845.798	24015
845.934	24102
846.07	24148
846.206	24057
846.342	24209
846.478	24076
846.614	23760
846.75	23809
846.886	23798
847.022	23786
847.158	23707
847.294	23813
847.429	23882
847.565	23649
847.701	24022
847.837	23611
847.972	23421
848.108	23657
848.244	23543
848.379	23391
848.515	23379
848.65	23261
848.786	23360
848.921	23311
849.057	23433
849.192	23471
849.328	23330
849.463	23433
849.598	23322
849.734	23227
849.869	23307
850.004	23250
850.14	23212
850.275	23060
850.41	23060
850.545	23105
850.68	23117
850.815	23235
850.95	23166
851.085	23383
851.22	23356
851.355	23265
851.49	23105
851.625	22961
851.76	23022
851.895	23086
852.03	23155
852.165	23204
852.299	23288
852.434	23235
852.569	23128
852.703	23098
852.838	23185
852.973	23155
853.107	23193
853.242	23044
853.376	22873
853.511	22782
853.645	22904
853.78	23083
853.914	22976
854.048	22873
854.183	22850
854.317	23090
854.451	23128
854.585	23022
854.72	23033
854.854	22972
854.988	22869
855.122	22946
855.256	22820
855.39	22892
855.524	22980
855.658	22919
855.792	22930
855.926	22919
856.06	22995
856.194	23105
856.327	22957
856.461	22828
856.595	22892
856.729	22900
856.862	23014
856.996	22968
857.13	23041
857.263	23018
857.397	23132
857.53	22919
857.664	22889
857.797	23014
857.931	23094
858.064	23025
858.197	23044
858.331	22843
858.464	22736
858.597	22927
858.731	22847
858.864	22968
858.997	22942
859.13	22873
859.263	23117
859.396	22892
859.529	22843
859.662	22949
859.795	22911
859.928	22938
860.061	22980
860.194	23193
860.327	22965
860.46	23041
860.592	23037
860.725	23033
860.858	23102
860.99	23029
861.123	22858
861.256	22873
861.388	22801
861.521	23577
861.653	22915
861.786	22782
861.918	22744
862.05	22763
862.183	22812
862.315	22892
862.447	22934
862.58	22752
862.712	22592
862.844	22607
862.976	22687
863.108	22599
863.24	23174
863.372	22668
863.504	22637
863.636	22694
863.768	22729
863.9	22645
864.032	22603
864.164	22584
864.296	22729
864.428	22675
864.559	22778
864.691	22691
864.823	22641
864.954	22561
865.086	22664
865.217	22557
865.349	22485
865.48	22622
865.612	22519
865.743	22550
865.875	22596
866.006	22341
866.137	22527
866.269	22538
866.4	22519
866.531	22455
866.662	22470
866.793	22489
866.924	22462
867.055	22474
867.186	22432
867.317	22348
867.448	22379
867.579	22402
867.71	22394
867.841	22303
867.972	22436
868.103	22443
868.233	22428
868.364	22466
868.495	22588
868.625	22645
868.756	22717
868.886	22698
869.017	22713
869.147	22694
869.278	22675
869.408	22626
869.539	22596
869.669	22839
869.799	22618
869.929	22824
870.06	22729
870.19	23029
870.32	22923
870.45	23143
870.58	23079
870.71	23105
870.84	23197
870.97	22957
871.1	23041
871.23	23284
871.36	23326
871.489	23231
871.619	23246
871.749	23337
871.879	23307
872.008	23395
872.138	23246
872.267	23364
872.397	23223
872.526	23200
872.656	23151
872.785	23113
872.915	23189
873.044	23353
873.173	23417
873.303	23372
873.432	23349
873.561	23440
873.69	23242
873.819	23288
873.948	23307
874.077	23315
874.206	23299
874.335	23330
874.464	23383
874.593	23490
874.722	23490
874.851	23554
874.979	23699
875.108	23497
875.237	23402
875.365	23448
875.494	23429
875.623	23459
875.751	23433
875.88	23570
876.008	23600
876.136	23642
876.265	23863
876.393	23927
876.521	23977
876.65	23802
876.778	23817
876.906	23889
877.034	23802
877.162	23729
877.29	23767
877.418	23859
877.546	23764
877.674	23771
877.802	23832
877.93	23741
878.058	23771
878.185	23847
878.313	23817
878.441	23851
878.568	23809
878.696	23779
878.824	24011
878.951	23980
879.079	24106
879.206	24121
879.333	24095
879.461	23912
879.588	23916
879.715	24087
879.842	24174
879.97	23946
880.097	23691
880.224	23653
880.351	23775
880.478	23733
880.605	23604
880.732	23634
880.859	23996
880.986	23608
881.112	23699
881.239	23524
881.366	23478
881.493	23311
881.619	23242
881.746	23033
881.872	23273
881.999	23204
882.125	23155
882.252	23292
882.378	23227
882.505	23383
882.631	23014
882.757	22995
882.883	22847
883.01	22938
883.136	22839
883.262	22831
883.388	22710
883.514	22915
883.64	22885
883.766	22869
883.892	22649
884.018	22763
884.143	22869
884.269	22911
884.395	22577
884.52	22493
884.646	22656
884.772	22462
884.897	22451
885.023	22561
885.148	22519
885.274	22607
885.399	22577
885.524	22443
885.65	22497
885.775	22489
885.9	22478
886.025	22538
886.15	22603
886.275	22508
886.4	22405
886.525	22424
886.65	22386
886.775	22386
886.9	22531
887.025	22767
887.149	22402
887.274	22230
887.399	22314
887.523	22265
887.648	22242
887.773	22051
887.897	22284
888.021	22234
888.146	22249
888.27	22295
888.395	22272
888.519	22204
888.643	22223
888.767	22356
888.891	22101
889.015	21968
889.139	22105
889.263	22063
889.387	22166
889.511	22215
889.635	22070
889.759	21873
889.883	22036
890.006	22204
890.13	22177
890.254	21983
890.377	21956
890.501	21701
890.624	21652
890.748	21835
890.871	21629
890.995	21644
891.118	21580
891.241	21633
891.364	21576
891.488	21625
891.611	21568
891.734	21641
891.857	21671
891.98	21568
892.103	21557
892.226	21625
892.349	21447
892.471	21405
892.594	21450
892.717	21515
892.839	21542
892.962	21557
893.085	21595
893.207	21504
893.33	21291
893.452	21321
893.575	21564
893.697	21416
893.819	21538
893.941	21686
894.064	21576
894.186	21382
894.308	21458
894.43	21618
894.552	21629
894.674	21519
894.796	21302
894.918	21367
895.04	21420
895.161	21500
895.283	21488
895.405	21435
895.526	21420
895.648	21378
895.769	21428
895.891	21496
896.012	21553
896.134	21583
896.255	21374
896.376	21454
896.498	21329
896.619	21420
896.74	21515
896.861	21526
896.982	21789
897.103	21895
897.224	21797
897.345	21686
897.466	21595
897.587	21625
897.708	21701
897.828	21622
897.949	21523
898.07	21496
898.19	21572
898.311	21709
898.431	21469
898.552	21660
898.672	21663
898.792	21755
898.913	21606
899.033	21507
899.153	21363
899.273	21363
899.393	21370
899.513	21424
899.633	21363
899.753	21382
899.873	21203
899.993	21291
900.113	21317
900.232	21386
900.352	21264
900.472	21108
900.591	21062
900.711	21161
900.83	21093
900.95	21260
901.069	21222
901.189	21081
901.308	20754
901.427	20644
901.546	20670
901.665	20621
901.784	20712
901.904	20423
902.023	20526
902.141	20301
902.26	20092
902.379	20271
902.498	20111
902.617	20161
902.735	20161
902.854	20218
902.973	20111
903.091	19845
903.21	19868
903.328	19814
903.446	19738
903.565	19597
903.683	19609
903.801	19556
903.919	19662
904.038	19624
904.156	19263
904.274	19419
904.392	19483
904.51	19312
904.627	19426
904.745	19438
904.863	19453
904.981	19198
905.098	19046
905.216	19031
905.334	19148
905.451	18970
905.569	18981
905.686	19065
905.803	19027
905.921	18787
906.038	18932
906.155	18882
906.272	18776
906.389	18783
906.506	18555
906.623	18506
906.74	18502
906.857	18475
906.974	18559
907.091	18521
907.208	18711
907.324	18574
907.441	18452
907.557	18353
907.674	18342
907.79	18251
907.907	18190
908.023	18346
908.139	18304
908.256	18235
908.372	18247
908.488	18216
908.604	18129
908.72	17977
908.836	18030
908.952	17992
909.068	18019
909.184	17992
909.3	18030
909.415	17965
909.531	18034
909.647	17783
909.762	17752
909.878	17608
909.993	17691
910.108	17767
910.224	17577
910.339	17592
910.454	17543
910.57	17520
910.685	17429
910.8	17630
910.915	17680
911.03	17429
911.145	17284
911.259	17292
911.374	17269
911.489	17254
911.604	17132
911.718	17086
911.833	16995
911.947	17071
912.062	16831
912.176	17060
912.291	17018
912.405	17033
912.519	17174
912.633	17231
912.748	17003
912.862	16927
912.976	16858
913.09	16786
913.204	16835
913.318	16786
913.431	16759
913.545	16835
913.659	16850
913.772	16710
913.886	16641
914	16527
914.113	16675
914.226	16721
914.34	16736
914.453	16535
914.566	16607
914.68	16493
914.793	16394
914.906	16295
915.019	16173
915.132	16040
915.245	16215
915.358	16223
915.47	16128
915.583	16131
915.696	16154
915.809	16226
915.921	16234
916.034	16078
916.146	16086
916.259	16105
916.371	16067
916.483	16044
916.595	15949
916.708	16029
916.82	15941
916.932	15934
917.044	15915
917.156	15918
917.268	15838
917.38	15759
917.491	15698
917.603	15827
917.715	15857
917.826	15785
917.938	15698
918.049	15641
918.161	15667
918.272	15861
918.384	15949
918.495	15720
918.606	15561
918.717	15412
918.828	15572
918.939	15530
919.05	15351
919.161	15408
919.272	15336
919.383	15351
919.494	15576
919.604	15720
919.715	15416
919.826	15378
919.936	15469
920.047	15538
920.157	15523
920.267	15568
920.378	15496
920.488	15397
920.598	15572
920.708	15713
920.818	15584
920.928	15606
921.038	15671
921.148	15743
921.258	15382
921.368	15279
921.477	15222
921.587	15135
921.697	15077
921.806	15188
921.916	15043
922.025	14838
922.134	14781
922.244	14762
922.353	14811
922.462	14739
922.571	14663
922.68	14537
922.789	14400
922.898	14545
923.007	14393
923.116	14366
923.224	14454
923.333	14347
923.442	14320
923.55	14240
923.659	14225
923.767	14328
923.876	14199
923.984	14161
924.092	14202
924.201	14145
924.309	14172
924.417	14195
924.525	13993
924.633	14123
924.741	14994
924.849	13909
924.956	13978
925.064	13837
925.172	13636
925.279	13750
925.387	13788
925.494	13833
925.602	13963
925.709	13784
925.816	13700
925.924	13719
926.031	13833
926.138	13712
926.245	13750
926.352	13685
926.459	13731
926.566	13814
926.673	13636
926.779	13575
926.886	13590
926.993	13426
927.099	13422
927.206	13339
927.312	13278
927.419	13331
927.525	13270
927.631	13388
927.737	13274
927.843	13133
927.95	13061
928.056	13202
928.162	13137
928.267	13091
928.373	13833
928.479	13164
928.585	13015
928.69	12973
928.796	13084
928.901	13057
929.007	12890
929.112	12962
929.218	12913
929.323	12875
929.428	12905
929.533	12981
929.638	12745
929.743	12779
929.848	12806
929.953	12719
930.058	12642
930.163	12506
930.267	12426
930.372	12646
930.477	12467
930.581	12696
930.685	12601
930.79	12346
930.894	12441
930.998	12369
931.103	12437
931.207	12102
931.311	12091
931.415	11912
931.519	11802
931.623	11710
