Data from test_V78500241_1650.txt Node
Date: Fri Mar 25 15:53:13 CST 2022
User: usil
Spectrometer: V785-0024
Trigger mode: 0
Integration Time (sec): 4.000000E-1
Scans to average: 1
Nonlinearity correction enabled: false
Boxcar width: 0
Storing dark spectrum: false
XAxis mode: Wavelengths
Number of Pixels in Spectrum: 1024
>>>>>Begin Spectral Data<<<<<
801.071	27553
801.214	27500
801.356	27291
801.499	27245
801.641	27119
801.783	27085
801.926	27173
802.068	27085
802.211	27070
802.353	26944
802.496	26906
802.638	26712
802.78	26701
802.923	26701
803.065	26689
803.208	26708
803.35	26750
803.492	26804
803.635	26804
803.777	26705
803.919	26952
804.061	27302
804.204	26895
804.346	26921
804.488	26948
804.63	27005
804.773	26887
804.915	27005
805.057	27036
805.199	26842
805.341	27081
805.483	27017
805.626	27036
805.768	26895
805.91	27165
806.052	27062
806.194	26986
806.336	27146
806.478	26910
806.62	27028
806.762	27131
806.904	27230
807.046	27515
807.188	27374
807.33	27408
807.472	27511
807.614	27317
807.756	27405
807.898	27291
808.04	27252
808.182	27367
808.324	27389
808.465	27458
808.607	27618
808.749	27614
808.891	27762
809.033	27739
809.174	27793
809.316	27523
809.458	27496
809.6	27511
809.741	27857
809.883	27903
810.025	27998
810.166	27880
810.308	28048
810.45	27960
810.591	27876
810.733	27819
810.875	27736
811.016	27591
811.158	27500
811.299	27599
811.441	27701
811.582	27808
811.724	27545
811.865	27553
812.007	27583
812.148	27698
812.29	27629
812.431	27831
812.573	27937
812.714	28032
812.855	28242
812.997	28284
813.138	28379
813.279	28314
813.421	28173
813.562	28207
813.703	28029
813.845	27907
813.986	27644
814.127	27416
814.268	27447
814.41	27355
814.551	27325
814.692	27359
814.833	27241
814.974	27279
815.115	27260
815.256	27123
815.397	27199
815.539	27214
815.68	27138
815.821	27150
815.962	27211
816.103	27154
816.244	27009
816.385	26902
816.526	26914
816.666	26651
816.807	26541
816.948	26785
817.089	26720
817.23	26693
817.371	26606
817.512	26495
817.653	26606
817.793	26495
817.934	26476
818.075	26590
818.216	26583
818.356	26495
818.497	26396
818.638	26355
818.778	26393
818.919	26450
819.06	26404
819.2	26423
819.341	26541
819.481	26644
819.622	26727
819.762	26819
819.903	26880
820.043	26720
820.184	26746
820.324	26815
820.465	26720
820.605	26800
820.746	26708
820.886	26746
821.026	26739
821.167	26716
821.307	26762
821.447	26583
821.588	26552
821.728	26377
821.868	26412
822.008	26031
822.149	26069
822.289	26043
822.429	25795
822.569	25772
822.709	25734
822.849	25746
822.99	25499
823.13	25590
823.27	25594
823.41	25487
823.55	25343
823.69	25449
823.83	25358
823.97	25354
824.11	25156
824.25	25160
824.389	25213
824.529	25403
824.669	25251
824.809	25453
824.949	25304
825.089	25327
825.228	25270
825.368	25141
825.508	25023
825.648	25118
825.787	25187
825.927	25145
826.067	25168
826.206	25012
826.346	25084
826.485	25137
826.625	25061
826.765	25304
826.904	25038
827.044	24863
827.183	24928
827.323	24646
827.462	24882
827.601	24844
827.741	24825
827.88	24776
828.02	24604
828.159	24753
828.298	24734
828.437	24837
828.577	24654
828.716	24852
828.855	24753
828.994	24460
829.134	24490
829.273	24623
829.412	24471
829.551	24403
829.69	24426
829.829	24532
829.968	24471
830.107	24528
830.246	24505
830.385	24414
830.524	24479
830.663	24369
830.802	24140
830.941	24133
831.08	24076
831.219	24171
831.357	24243
831.496	24262
831.635	24159
831.774	24076
831.913	23999
832.051	23912
832.19	23874
832.329	23859
832.467	23859
832.606	23775
832.744	23691
832.883	23737
833.022	23729
833.16	23809
833.299	23908
833.437	23756
833.576	23836
833.714	23786
833.852	23832
833.991	23805
834.129	23874
834.267	23824
834.406	23794
834.544	23866
834.682	23836
834.821	23695
834.959	23870
835.097	23729
835.235	23874
835.373	23775
835.511	23923
835.65	23764
835.788	23790
835.926	23436
836.064	23478
836.202	23619
836.34	23684
836.478	23726
836.615	23668
836.753	23737
836.891	23657
837.029	23661
837.167	23524
837.305	23573
837.443	23444
837.58	23376
837.718	23520
837.856	23486
837.993	23429
838.131	23558
838.269	23417
838.406	23345
838.544	23277
838.681	23121
838.819	23204
838.956	23094
839.094	22949
839.231	23014
839.369	23094
839.506	23231
839.643	23265
839.781	23044
839.918	22828
840.055	22904
840.193	22927
840.33	22873
840.467	22889
840.604	22984
840.742	23102
840.879	22805
841.016	22759
841.153	22828
841.29	22972
841.427	22968
841.564	22915
841.701	22812
841.838	22816
841.975	22805
842.112	22801
842.249	22748
842.385	22546
842.522	22866
842.659	22702
842.796	22615
842.933	22660
843.069	22592
843.206	22565
843.343	22831
843.479	22607
843.616	22645
843.752	22554
843.889	22447
844.025	22550
844.162	22443
844.298	22550
844.435	22394
844.571	22424
844.708	22481
844.844	22637
844.98	22561
845.117	22447
845.253	22436
845.389	22082
845.525	22379
845.661	22219
845.798	22173
845.934	22257
846.07	22063
846.206	22120
846.342	22192
846.478	22128
846.614	21857
846.75	21865
846.886	21979
847.022	21983
847.158	21876
847.294	21774
847.429	21960
847.565	21846
847.701	22223
847.837	21610
847.972	21580
848.108	21618
848.244	21682
848.379	21504
848.515	21572
848.65	21393
848.786	21538
848.921	21511
849.057	21564
849.192	21682
849.328	21637
849.463	21481
849.598	21382
849.734	21370
849.869	21226
850.004	21199
850.14	21351
850.275	21245
850.41	21089
850.545	21066
850.68	21252
850.815	21260
850.95	21317
851.085	21405
851.22	21389
851.355	21355
851.49	21214
851.625	21150
851.76	21184
851.895	21142
852.03	21108
852.165	21317
852.299	21367
852.434	21325
852.569	21245
852.703	21203
852.838	21348
852.973	21279
853.107	21336
853.242	21135
853.376	21195
853.511	20918
853.645	21100
853.78	21218
853.914	21093
854.048	20986
854.183	21013
854.317	21070
854.451	21382
854.585	21058
854.72	21074
854.854	21116
854.988	21009
855.122	21074
855.256	20838
855.39	21089
855.524	21081
855.658	21184
855.792	21104
855.926	21017
856.06	21058
856.194	21146
856.327	21081
856.461	21100
856.595	21013
856.729	20967
856.862	21081
856.996	21047
857.13	21222
857.263	21245
857.397	21169
857.53	21081
857.664	21184
857.797	21142
857.931	21214
858.064	21127
858.197	21207
858.331	21043
858.464	20994
858.597	21017
858.731	21039
858.864	21020
858.997	21009
859.13	21070
859.263	21020
859.396	21146
859.529	21055
859.662	21138
859.795	21013
859.928	20986
860.061	21096
860.194	21310
860.327	21131
860.46	21024
860.592	21157
860.725	21207
860.858	21100
860.99	21188
861.123	20975
861.256	20963
861.388	21020
861.521	21759
861.653	20902
861.786	20826
861.918	20918
862.05	20925
862.183	20998
862.315	20982
862.447	21036
862.58	21104
862.712	20781
862.844	20826
862.976	21047
863.108	20864
863.24	21264
863.372	20811
863.504	20788
863.636	20663
863.768	20857
863.9	20735
864.032	20640
864.164	20823
864.296	20785
864.428	20868
864.559	20891
864.691	20918
864.823	20815
864.954	20762
865.086	20735
865.217	20781
865.349	20762
865.48	20549
865.612	20777
865.743	20769
865.875	20659
866.006	20762
866.137	20712
866.269	20655
866.4	20655
866.531	20686
866.662	20511
866.793	20583
866.924	20606
867.055	20667
867.186	20731
867.317	20564
867.448	20606
867.579	20609
867.71	20511
867.841	20469
867.972	20537
868.103	20583
868.233	20678
868.364	20457
868.495	20613
868.625	20918
868.756	20857
868.886	20773
869.017	20762
869.147	20952
869.278	21085
869.408	20906
869.539	20876
869.669	20944
869.799	20830
869.929	21043
870.06	20963
870.19	21154
870.32	21150
870.45	21264
870.58	21397
870.71	21279
870.84	21302
870.97	21302
871.1	21268
871.23	21405
871.36	21504
871.489	21359
871.619	21393
871.749	21443
871.879	21424
872.008	21496
872.138	21606
872.267	21534
872.397	21226
872.526	21367
872.656	21306
872.785	21302
872.915	21549
873.044	21542
873.173	21469
873.303	21462
873.432	21408
873.561	21553
873.69	21545
873.819	21526
873.948	21587
874.077	21500
874.206	21389
874.335	21450
874.464	21583
874.593	21720
874.722	21724
874.851	21698
874.979	21724
875.108	21808
875.237	21679
875.365	21675
875.494	21701
875.623	21682
875.751	21622
875.88	21633
876.008	21842
876.136	21903
876.265	22143
876.393	22147
876.521	22135
876.65	22215
876.778	22192
876.906	22055
877.034	22097
877.162	22055
877.29	22025
877.418	22093
877.546	22128
877.674	22101
877.802	22017
877.93	21941
878.058	21998
878.185	22010
878.313	22082
878.441	22006
878.568	21911
878.696	22021
878.824	22093
878.951	22162
879.079	22150
879.206	22451
879.333	22131
879.461	22135
879.588	22287
879.715	22147
879.842	22211
879.97	22120
880.097	21903
880.224	21911
880.351	21934
880.478	21907
880.605	21800
880.732	21850
880.859	22139
880.986	21861
881.112	21953
881.239	21656
881.366	21698
881.493	21469
881.619	21386
881.746	21534
881.872	21374
881.999	21469
882.125	21401
882.252	21534
882.378	21443
882.505	21473
882.631	21408
882.757	21154
882.883	21336
883.01	21157
883.136	21096
883.262	21119
883.388	21074
883.514	21154
883.64	21298
883.766	21135
883.892	20948
884.018	20914
884.143	21104
884.269	21116
884.395	20883
884.52	20804
884.646	20880
884.772	20670
884.897	20716
885.023	20868
885.148	20971
885.274	20956
885.399	20910
885.524	20697
885.65	20811
885.775	20804
885.9	20769
886.025	20880
886.15	20937
886.275	20727
886.4	20731
886.525	20811
886.65	20769
886.775	20640
886.9	20952
887.025	21047
887.149	20796
887.274	20670
887.399	20590
887.523	20587
887.648	20541
887.773	20552
887.897	20621
888.021	20617
888.146	20457
888.27	20670
888.395	20640
888.519	20598
888.643	20659
888.767	20590
888.891	20355
889.015	20400
889.139	20431
889.263	20434
889.387	20480
889.511	20587
889.635	20476
889.759	20282
889.883	20381
890.006	20404
890.13	20454
890.254	20317
890.377	20313
890.501	20126
890.624	20183
890.748	20119
890.871	20001
890.995	19875
891.118	19944
891.241	19928
891.364	19925
891.488	20096
891.611	19830
891.734	19868
891.857	20035
891.98	19913
892.103	19925
892.226	20008
892.349	19837
892.471	19765
892.594	20001
892.717	19917
892.839	19864
892.962	19856
893.085	19902
893.207	19715
893.33	19784
893.452	19860
893.575	19879
893.697	19921
893.819	20024
893.941	19986
894.064	20035
894.186	19845
894.308	19852
894.43	19906
894.552	20069
894.674	19902
894.796	19708
894.918	19788
895.04	19689
895.161	19890
895.283	19970
895.405	19906
895.526	19936
895.648	19932
895.769	19887
895.891	19856
896.012	19936
896.134	19833
896.255	19883
896.376	19814
896.498	19879
896.619	19909
896.74	19826
896.861	19913
896.982	20309
897.103	20393
897.224	20138
897.345	20134
897.466	20024
897.587	20134
897.708	20355
897.828	20039
897.949	20016
898.07	19932
898.19	20103
898.311	20134
898.431	20081
898.552	19982
898.672	20275
898.792	20180
898.913	20024
899.033	19940
899.153	19936
899.273	19845
899.393	19826
899.513	19936
899.633	19913
899.753	19803
899.873	19936
899.993	19936
900.113	19776
900.232	19917
900.352	19715
900.472	19693
900.591	19624
900.711	19693
900.83	19624
900.95	19719
901.069	19742
901.189	19483
901.308	19350
901.427	19327
901.546	19282
901.665	19274
901.784	19335
901.904	19175
902.023	19076
902.141	18833
902.26	18734
902.379	18760
902.498	18715
902.617	18749
902.735	18764
902.854	18684
902.973	18677
903.091	18448
903.21	18441
903.328	18426
903.446	18304
903.565	18224
903.683	18327
903.801	18178
903.919	18121
904.038	18133
904.156	17958
904.274	18026
904.392	17920
904.51	18030
904.627	18060
904.745	18022
904.863	18015
904.981	17824
905.098	17733
905.216	17642
905.334	17767
905.451	17634
905.569	17676
905.686	17642
905.803	17528
905.921	17493
906.038	17600
906.155	17398
906.272	17296
906.389	17356
906.506	17124
906.623	17315
906.74	17189
906.857	17048
906.974	17006
907.091	17200
907.208	17391
907.324	17136
907.441	17136
907.557	16980
907.674	16919
907.79	16816
907.907	16866
908.023	16930
908.139	16889
908.256	16854
908.372	16896
908.488	16774
908.604	16793
908.72	16573
908.836	16675
908.952	16500
909.068	16710
909.184	16725
909.3	16607
909.415	16675
909.531	16622
909.647	16478
909.762	16337
909.878	16337
909.993	16421
910.108	16318
910.224	16287
910.339	16333
910.454	16200
910.57	16181
910.685	16040
910.8	16375
910.915	16272
911.03	16086
911.145	15998
911.259	15953
911.374	15975
911.489	16017
911.604	15823
911.718	15652
911.833	15785
911.947	15652
912.062	15492
912.176	15663
912.291	15709
912.405	15610
912.519	15888
912.633	15918
912.748	15747
912.862	15633
912.976	15564
913.09	15359
913.204	15374
913.318	15564
913.431	15488
913.545	15545
913.659	15614
913.772	15519
913.886	15370
914	15211
914.113	15439
914.226	15405
914.34	15405
914.453	15150
914.566	15336
914.68	15256
914.793	15157
914.906	14944
915.019	14944
915.132	14952
915.245	14872
915.358	14979
915.47	14986
915.583	14902
915.696	15024
915.809	15070
915.921	15066
916.034	14857
916.146	14807
916.259	14823
916.371	15051
916.483	14906
916.595	14811
916.708	14819
916.82	14823
916.932	14648
917.044	14815
917.156	14594
917.268	14621
917.38	14579
917.491	14579
917.603	14636
917.715	14606
917.826	14659
917.938	14587
918.049	14438
918.161	14583
918.272	14686
918.384	14743
918.495	14594
918.606	14328
918.717	14339
918.828	14419
918.939	14301
919.05	14309
919.161	14336
919.272	14088
919.383	14187
919.494	14374
919.604	14415
919.715	14366
919.826	14172
919.936	14320
920.047	14355
920.157	14263
920.267	14457
920.378	14385
920.488	14237
920.598	14450
920.708	14598
920.818	14355
920.928	14503
921.038	14602
921.148	14522
921.258	14271
921.368	14168
921.477	14145
921.587	14103
921.697	13890
921.806	14054
921.916	13894
922.025	13784
922.134	13708
922.244	13647
922.353	13795
922.462	13624
922.571	13514
922.68	13449
922.789	13304
922.898	13293
923.007	13213
923.116	13324
923.224	13270
923.333	13259
923.442	13206
923.55	13202
923.659	13202
923.767	13225
923.876	13088
923.984	13217
924.092	13057
924.201	13080
924.309	13008
924.417	13107
924.525	12989
924.633	13091
924.741	13803
924.849	12848
924.956	12966
925.064	12768
925.172	12760
925.279	12795
925.387	12833
925.494	12837
925.602	12970
925.709	12791
925.816	12601
925.924	12776
926.031	12768
926.138	12669
926.245	12779
926.352	12669
926.459	12817
926.566	12741
926.673	12627
926.779	12521
926.886	12486
926.993	12304
927.099	12327
927.206	12308
927.312	12281
927.419	12414
927.525	12334
927.631	12483
927.737	12254
927.843	12209
927.95	12121
928.056	12159
928.162	12213
928.267	12224
928.373	12852
928.479	12277
928.585	11980
928.69	12152
928.796	12133
928.901	11923
929.007	11942
929.112	12083
929.218	11954
929.323	11916
929.428	11885
929.533	12034
929.638	11882
929.743	11920
929.848	11961
929.953	11847
930.058	11771
930.163	11638
930.267	11649
930.372	11805
930.477	11520
930.581	11695
930.685	11642
930.79	11414
930.894	11505
930.998	11414
931.103	11581
931.207	11220
931.311	11128
931.415	11022
931.519	10885
931.623	10850
