Data from test_V78500241_1745.txt Node
Date: Fri Mar 25 15:53:53 CST 2022
User: usil
Spectrometer: V785-0024
Trigger mode: 0
Integration Time (sec): 4.000000E-1
Scans to average: 1
Nonlinearity correction enabled: false
Boxcar width: 0
Storing dark spectrum: false
XAxis mode: Wavelengths
Number of Pixels in Spectrum: 1024
>>>>>Begin Spectral Data<<<<<
801.071	28759
801.214	28519
801.356	28451
801.499	28192
801.641	28246
801.783	28097
801.926	28188
802.068	28131
802.211	28192
802.353	28131
802.496	27895
802.638	27926
802.78	28048
802.923	27755
803.065	27652
803.208	27854
803.35	27926
803.492	28078
803.635	28105
803.777	27953
803.919	28051
804.061	28447
804.204	28158
804.346	28139
804.488	27983
804.63	28162
804.773	28074
804.915	28185
805.057	28337
805.199	28246
805.341	28413
805.483	28322
805.626	28253
805.768	28230
805.91	28322
806.052	28306
806.194	28211
806.336	28413
806.478	28204
806.62	28386
806.762	28382
806.904	28542
807.046	28759
807.188	28710
807.33	28611
807.472	28850
807.614	28607
807.756	28687
807.898	28550
808.04	28577
808.182	28561
808.324	28630
808.465	28672
808.607	28869
808.749	28949
808.891	29014
809.033	29220
809.174	28995
809.316	29006
809.458	28892
809.6	28847
809.741	29044
809.883	29178
810.025	29372
810.166	29277
810.308	29265
810.45	29143
810.591	29185
810.733	29113
810.875	28942
811.016	28824
811.158	28873
811.299	29094
811.441	29189
811.582	29105
811.724	28942
811.865	28900
812.007	28930
812.148	28919
812.29	28949
812.431	29098
812.573	29349
812.714	29425
812.855	29684
812.997	29554
813.138	29783
813.279	29619
813.421	29608
813.562	29410
813.703	29334
813.845	29170
813.986	28999
814.127	28869
814.268	28626
814.41	28752
814.551	28516
814.692	28759
814.833	28626
814.974	28557
815.115	28672
815.256	28500
815.397	28691
815.539	28512
815.68	28443
815.821	28382
815.962	28466
816.103	28500
816.244	28348
816.385	28261
816.526	28253
816.666	28010
816.807	28143
816.948	28055
817.089	28120
817.23	27953
817.371	28013
817.512	27941
817.653	27823
817.793	27903
817.934	27949
818.075	28116
818.216	27934
818.356	27968
818.497	27873
818.638	27808
818.778	27785
818.919	27625
819.06	27766
819.2	27876
819.341	27979
819.481	28059
819.622	28196
819.762	28219
819.903	28379
820.043	28097
820.184	28078
820.324	28181
820.465	28287
820.605	28112
820.746	28055
820.886	28006
821.026	28162
821.167	28086
821.307	28101
821.447	27983
821.588	27968
821.728	27762
821.868	27652
822.008	27450
822.149	27587
822.289	27485
822.429	27298
822.569	27176
822.709	27241
822.849	26933
822.99	27074
823.13	26902
823.27	26963
823.41	26826
823.55	26670
823.69	26868
823.83	26708
823.97	26758
824.11	26712
824.25	26674
824.389	26598
824.529	26682
824.669	26667
824.809	26712
824.949	26716
825.089	26636
825.228	26590
825.368	26549
825.508	26663
825.648	26560
825.787	26473
825.927	26640
826.067	26488
826.206	26404
826.346	26621
826.485	26606
826.625	26453
826.765	26667
826.904	26568
827.044	26278
827.183	26389
827.323	26244
827.462	26256
827.601	26244
827.741	26240
827.88	26377
828.02	26027
828.159	26149
828.298	26275
828.437	26275
828.577	26153
828.716	26419
828.855	26164
828.994	25974
829.134	25947
829.273	26020
829.412	25875
829.551	25875
829.69	25986
829.829	25993
829.968	26027
830.107	25993
830.246	25833
830.385	25826
830.524	25700
830.663	25696
830.802	25685
830.941	25472
831.08	25506
831.219	25457
831.357	25662
831.496	25742
831.635	25422
831.774	25301
831.913	25518
832.051	25335
832.19	25240
832.329	25392
832.467	25240
832.606	25103
832.744	25084
832.883	25240
833.022	25076
833.16	25103
833.299	25240
833.437	25183
833.576	25282
833.714	25228
833.852	25289
833.991	25343
834.129	25259
834.267	25324
834.406	25240
834.544	25327
834.682	25304
834.821	25122
834.959	25331
835.097	25190
835.235	25274
835.373	25164
835.511	25206
835.65	25069
835.788	25107
835.926	25084
836.064	24958
836.202	24817
836.34	25065
836.478	25206
836.615	25042
836.753	25088
836.891	25107
837.029	25247
837.167	24924
837.305	25065
837.443	25023
837.58	24886
837.718	24825
837.856	24924
837.993	24852
838.131	24939
838.269	24783
838.406	24939
838.544	24692
838.681	24441
838.819	24570
838.956	24361
839.094	24467
839.231	24407
839.369	24410
839.506	24669
839.643	24585
839.781	24422
839.918	24266
840.055	24258
840.193	24232
840.33	24262
840.467	24201
840.604	24410
840.742	24483
840.879	24182
841.016	24133
841.153	24087
841.29	24391
841.427	24247
841.564	24365
841.701	24319
841.838	24232
841.975	24110
842.112	24159
842.249	24178
842.385	24049
842.522	24243
842.659	24171
842.796	24026
842.933	24079
843.069	23908
843.206	23988
843.343	23931
843.479	24038
843.616	24091
843.752	23741
843.889	23828
844.025	23980
844.162	23707
844.298	23980
844.435	23821
844.571	23813
844.708	23710
844.844	23954
844.98	24015
845.117	23901
845.253	23786
845.389	23741
845.525	23687
845.661	23733
845.798	23630
845.934	23566
846.07	23509
846.206	23600
846.342	23528
846.478	23379
846.614	23246
846.75	23151
846.886	23246
847.022	23212
847.158	23277
847.294	23258
847.429	23307
847.565	23299
847.701	23493
847.837	23056
847.972	23018
848.108	23022
848.244	23079
848.379	22866
848.515	22854
848.65	22733
848.786	22759
848.921	22831
849.057	22987
849.192	22877
849.328	22793
849.463	22812
849.598	22801
849.734	22645
849.869	22607
850.004	22596
850.14	22645
850.275	22653
850.41	22557
850.545	22523
850.68	22485
850.815	22630
850.95	22622
851.085	22733
851.22	22812
851.355	22550
851.49	22615
851.625	22611
851.76	22519
851.895	22474
852.03	22466
852.165	22641
852.299	22538
852.434	22729
852.569	22561
852.703	22672
852.838	22660
852.973	22679
853.107	22664
853.242	22535
853.376	22440
853.511	22299
853.645	22508
853.78	22535
853.914	22481
854.048	22428
854.183	22466
854.317	22310
854.451	22634
854.585	22333
854.72	22310
854.854	22478
854.988	22455
855.122	22386
855.256	22299
855.39	22382
855.524	22519
855.658	22447
855.792	22413
855.926	22394
856.06	22375
856.194	22462
856.327	22356
856.461	22287
856.595	22287
856.729	22337
856.862	22550
856.996	22382
857.13	22440
857.263	22538
857.397	22569
857.53	22440
857.664	22299
857.797	22382
857.931	22424
858.064	22466
858.197	22478
858.331	22344
858.464	22318
858.597	22295
858.731	22318
858.864	22382
858.997	22459
859.13	22413
859.263	22352
859.396	22432
859.529	22413
859.662	22455
859.795	22306
859.928	22493
860.061	22466
860.194	22603
860.327	22459
860.46	22432
860.592	22554
860.725	22489
860.858	22557
860.99	22382
861.123	22226
861.256	22428
861.388	22481
861.521	23254
861.653	22325
861.786	22135
861.918	22196
862.05	22211
862.183	22329
862.315	22356
862.447	22409
862.58	22371
862.712	22162
862.844	21998
862.976	22192
863.108	22177
863.24	22375
863.372	22086
863.504	22093
863.636	22067
863.768	22150
863.9	22090
864.032	21873
864.164	22044
864.296	22162
864.428	22185
864.559	22265
864.691	22204
864.823	22074
864.954	22188
865.086	22150
865.217	21991
865.349	21892
865.48	22109
865.612	21975
865.743	22204
865.875	22112
866.006	21968
866.137	21987
866.269	21968
866.4	21987
866.531	21880
866.662	21804
866.793	21854
866.924	21953
867.055	21983
867.186	21934
867.317	21838
867.448	21793
867.579	21842
867.71	21797
867.841	21918
867.972	22040
868.103	21979
868.233	21972
868.364	21964
868.495	22048
868.625	22078
868.756	22196
868.886	22002
869.017	22215
869.147	22265
869.278	22204
869.408	22230
869.539	22276
869.669	22234
869.799	22154
869.929	22272
870.06	22295
870.19	22447
870.32	22432
870.45	22573
870.58	22565
870.71	22664
870.84	22755
870.97	22592
871.1	22535
871.23	22672
871.36	22797
871.489	22687
871.619	22729
871.749	22729
871.879	22611
872.008	22839
872.138	22790
872.267	22774
872.397	22607
872.526	22561
872.656	22588
872.785	22683
872.915	22828
873.044	22896
873.173	22672
873.303	22869
873.432	22831
873.561	22820
873.69	22801
873.819	22889
873.948	22786
874.077	22854
874.206	22641
874.335	22725
874.464	22938
874.593	23006
874.722	22881
874.851	23025
874.979	22961
875.108	22991
875.237	22881
875.365	22885
875.494	22927
875.623	23181
875.751	22927
875.88	23022
876.008	23136
876.136	23200
876.265	23349
876.393	23463
876.521	23531
876.65	23349
876.778	23421
876.906	23402
877.034	23345
877.162	23345
877.29	23387
877.418	23429
877.546	23406
877.674	23421
877.802	23288
877.93	23318
878.058	23315
878.185	23337
878.313	23269
878.441	23360
878.568	23181
878.696	23280
878.824	23383
878.951	23299
879.079	23505
879.206	23646
879.333	23398
879.461	23379
879.588	23497
879.715	23497
879.842	23752
879.97	23341
880.097	23212
880.224	23246
880.351	23071
880.478	23151
880.605	23086
880.732	23212
880.859	23326
880.986	23174
881.112	23208
881.239	23052
881.366	22961
881.493	22786
881.619	22672
881.746	22793
881.872	22713
881.999	22725
882.125	22740
882.252	22858
882.378	22603
882.505	22668
882.631	22527
882.757	22432
882.883	22489
883.01	22409
883.136	22276
883.262	22314
883.388	22303
883.514	22318
883.64	22474
883.766	22428
883.892	22078
884.018	22215
884.143	22226
884.269	22352
884.395	21972
884.52	22029
884.646	22109
884.772	21819
884.897	21994
885.023	22093
885.148	22120
885.274	22219
885.399	22116
885.524	21979
885.65	21945
885.775	21964
885.9	21968
886.025	22131
886.15	22112
886.275	21892
886.4	21911
886.525	22013
886.65	22021
886.775	21987
886.9	22078
887.025	22093
887.149	22036
887.274	21850
887.399	21903
887.523	21797
887.648	21709
887.773	21610
887.897	21808
888.021	21937
888.146	21762
888.27	21747
888.395	21911
888.519	21774
888.643	21766
888.767	21857
888.891	21717
889.015	21553
889.139	21561
889.263	21519
889.387	21652
889.511	21736
889.635	21682
889.759	21633
889.883	21519
890.006	21583
890.13	21622
890.254	21507
890.377	21382
890.501	21302
890.624	21275
890.748	21386
890.871	21085
890.995	21058
891.118	21112
891.241	21116
891.364	21074
891.488	21150
891.611	21058
891.734	21123
891.857	21096
891.98	21146
892.103	21112
892.226	21039
892.349	21009
892.471	21070
892.594	20994
892.717	21112
892.839	20883
892.962	21039
893.085	21032
893.207	20979
893.33	20826
893.452	20956
893.575	21039
893.697	20906
893.819	21184
893.941	21192
894.064	21127
894.186	20910
894.308	20929
894.43	21123
894.552	21142
894.674	20994
894.796	20880
894.918	21039
895.04	20933
895.161	20998
895.283	21085
895.405	20861
895.526	20963
895.648	20948
895.769	21077
895.891	21062
896.012	21096
896.134	21039
896.255	21074
896.376	21017
896.498	20994
896.619	20960
896.74	21093
896.861	21009
896.982	21370
897.103	21340
897.224	21332
897.345	21161
897.466	21024
897.587	21203
897.708	21325
897.828	21302
897.949	21192
898.07	21100
898.19	21119
898.311	21310
898.431	21085
898.552	21081
898.672	21298
898.792	21241
898.913	21313
899.033	21058
899.153	21036
899.273	20956
899.393	20819
899.513	20925
899.633	20975
899.753	20937
899.873	20857
899.993	20986
900.113	20868
900.232	20918
900.352	20910
900.472	20823
900.591	20682
900.711	20735
900.83	20777
900.95	20754
901.069	20800
901.189	20568
901.308	20400
901.427	20256
901.546	20332
901.665	20301
901.784	20252
901.904	20210
902.023	20065
902.141	19879
902.26	19833
902.379	19944
902.498	19898
902.617	19700
902.735	19772
902.854	19761
902.973	19788
903.091	19468
903.21	19571
903.328	19430
903.446	19411
903.565	19232
903.683	19274
903.801	19202
903.919	19259
904.038	19126
904.156	19084
904.274	19080
904.392	19000
904.51	19012
904.627	18985
904.745	19107
904.863	19168
904.981	18848
905.098	18810
905.216	18623
905.334	18745
905.451	18688
905.569	18612
905.686	18707
905.803	18692
905.921	18410
906.038	18475
906.155	18536
906.272	18441
906.389	18346
906.506	18270
906.623	18277
906.74	18273
906.857	18159
906.974	18133
907.091	18281
907.208	18266
907.324	18254
907.441	18125
907.557	17920
907.674	17980
907.79	17851
907.907	17935
908.023	17942
908.139	17809
908.256	17790
908.372	17737
908.488	17771
908.604	17767
908.72	17630
908.836	17668
908.952	17596
909.068	17649
909.184	17756
909.3	17581
909.415	17630
909.531	17467
909.647	17269
909.762	17455
909.878	17395
909.993	17341
910.108	17326
910.224	17311
910.339	17204
910.454	17242
910.57	17143
910.685	17102
910.8	17292
910.915	17318
911.03	17121
911.145	16892
911.259	16911
911.374	16957
911.489	16797
911.604	16774
911.718	16569
911.833	16698
911.947	16596
912.062	16462
912.176	16675
912.291	16637
912.405	16706
912.519	16820
912.633	16816
912.748	16694
912.862	16656
912.976	16443
913.09	16409
913.204	16478
913.318	16493
913.431	16649
913.545	16542
913.659	16550
913.772	16409
913.886	16318
914	16276
914.113	16348
914.226	16436
914.34	16291
914.453	16166
914.566	16356
914.68	16002
914.793	16063
914.906	15827
915.019	15793
915.132	15838
915.245	15823
915.358	15850
915.47	15838
915.583	15838
915.696	15857
915.809	15915
915.921	15930
916.034	15747
916.146	15800
916.259	15736
916.371	15785
916.483	15679
916.595	15633
916.708	15618
916.82	15641
916.932	15739
917.044	15553
917.156	15580
917.268	15412
917.38	15492
917.491	15447
917.603	15458
917.715	15523
917.826	15542
917.938	15393
918.049	15329
918.161	15313
918.272	15454
918.384	15515
918.495	15526
918.606	15249
918.717	15062
918.828	15226
918.939	15275
919.05	15100
919.161	15062
919.272	15009
919.383	15085
919.494	15287
919.604	15386
919.715	15169
919.826	15058
919.936	15169
920.047	15241
920.157	15150
920.267	15363
920.378	15154
920.488	15123
920.598	15340
920.708	15507
920.818	15272
920.928	15317
921.038	15370
921.148	15348
921.258	15097
921.368	14902
921.477	14895
921.587	14807
921.697	14777
921.806	14910
921.916	14716
922.025	14659
922.134	14571
922.244	14560
922.353	14579
922.462	14408
922.571	14396
922.68	14115
922.789	14081
922.898	14153
923.007	14195
923.116	14084
923.224	14062
923.333	14081
923.442	14031
923.55	13974
923.659	13951
923.767	14031
923.876	13986
923.984	14039
924.092	13883
924.201	13917
924.309	13868
924.417	13898
924.525	13700
924.633	13795
924.741	14503
924.849	13613
924.956	13704
925.064	13533
925.172	13476
925.279	13480
925.387	13556
925.494	13491
925.602	13647
925.709	13464
925.816	13480
925.924	13464
926.031	13559
926.138	13434
926.245	13521
926.352	13384
926.459	13597
926.566	13457
926.673	13316
926.779	13244
926.886	13259
926.993	13122
927.099	13110
927.206	12932
927.312	12993
927.419	13114
927.525	13027
927.631	13061
927.737	12909
927.843	12977
927.95	12829
928.056	12913
928.162	12894
928.267	12985
928.373	13601
928.479	12954
928.585	12662
928.69	12871
928.796	12890
928.901	12620
929.007	12620
929.112	12779
929.218	12673
929.323	12627
929.428	12665
929.533	12642
929.638	12540
929.743	12502
929.848	12547
929.953	12578
930.058	12483
930.163	12254
930.267	12194
930.372	12426
930.477	12205
930.581	12475
930.685	12254
930.79	12197
930.894	12182
930.998	12091
931.103	12224
931.207	11927
931.311	11779
931.415	11688
931.519	11474
931.623	11585
