Data from test_V78500241_1653.txt Node
Date: Fri Mar 25 15:53:15 CST 2022
User: usil
Spectrometer: V785-0024
Trigger mode: 0
Integration Time (sec): 4.000000E-1
Scans to average: 1
Nonlinearity correction enabled: false
Boxcar width: 0
Storing dark spectrum: false
XAxis mode: Wavelengths
Number of Pixels in Spectrum: 1024
>>>>>Begin Spectral Data<<<<<
801.071	27732
801.214	27633
801.356	27435
801.499	27458
801.641	27302
801.783	27374
801.926	27507
802.068	27408
802.211	27138
802.353	27306
802.496	27157
802.638	26975
802.78	26986
802.923	26925
803.065	26880
803.208	26979
803.35	27024
803.492	27161
803.635	27096
803.777	27150
803.919	27146
804.061	27386
804.204	27214
804.346	27157
804.488	27173
804.63	27264
804.773	27123
804.915	27112
805.057	27325
805.199	27112
805.341	27275
805.483	27272
805.626	27298
805.768	27302
805.91	27306
806.052	27329
806.194	27135
806.336	27557
806.478	27435
806.62	27207
806.762	27481
806.904	27511
807.046	27770
807.188	27720
807.33	27606
807.472	27819
807.614	27759
807.756	27618
807.898	27606
808.04	27549
808.182	27523
808.324	27511
808.465	27633
808.607	27835
808.749	27838
808.891	28032
809.033	28249
809.174	28048
809.316	27914
809.458	28002
809.6	27956
809.741	28044
809.883	28154
810.025	28223
810.166	28215
810.308	28177
810.45	28166
810.591	28010
810.733	27953
810.875	27926
811.016	27808
811.158	27846
811.299	28002
811.441	28063
811.582	28105
811.724	27991
811.865	27956
812.007	27854
812.148	28086
812.29	28063
812.431	28097
812.573	28356
812.714	28299
812.855	28478
812.997	28569
813.138	28694
813.279	28500
813.421	28565
813.562	28379
813.703	28333
813.845	28188
813.986	27831
814.127	27686
814.268	27671
814.41	27633
814.551	27713
814.692	27717
814.833	27511
814.974	27603
815.115	27667
815.256	27492
815.397	27466
815.539	27534
815.68	27389
815.821	27424
815.962	27469
816.103	27291
816.244	27325
816.385	27085
816.526	27264
816.666	27009
816.807	26773
816.948	27150
817.089	27043
817.23	26979
817.371	26823
817.512	27017
817.653	26746
817.793	26765
817.934	26819
818.075	26811
818.216	26838
818.356	26914
818.497	26807
818.638	26674
818.778	26659
818.919	26758
819.06	26587
819.2	26785
819.341	26876
819.481	26914
819.622	27195
819.762	27313
819.903	27142
820.043	27226
820.184	27032
820.324	27024
820.465	27150
820.605	26956
820.746	27039
820.886	26910
821.026	27047
821.167	26933
821.307	27089
821.447	26899
821.588	26883
821.728	26659
821.868	26503
822.008	26214
822.149	26355
822.289	26446
822.429	26210
822.569	26134
822.709	26012
822.849	25803
822.99	25799
823.13	25856
823.27	25731
823.41	25575
823.55	25609
823.69	25753
823.83	25613
823.97	25651
824.11	25510
824.25	25434
824.389	25472
824.529	25647
824.669	25677
824.809	25689
824.949	25734
825.089	25624
825.228	25491
825.368	25354
825.508	25487
825.648	25308
825.787	25331
825.927	25384
826.067	25438
826.206	25388
826.346	25430
826.485	25422
826.625	25339
826.765	25499
826.904	25438
827.044	25289
827.183	25221
827.323	25160
827.462	25187
827.601	25012
827.741	25023
827.88	25206
828.02	24920
828.159	25027
828.298	24970
828.437	25133
828.577	24962
828.716	25168
828.855	24996
828.994	24886
829.134	24779
829.273	24844
829.412	24696
829.551	24741
829.69	24783
829.829	24909
829.968	24856
830.107	24764
830.246	24791
830.385	24734
830.524	24760
830.663	24532
830.802	24445
830.941	24422
831.08	24391
831.219	24525
831.357	24464
831.496	24509
831.635	24350
831.774	24213
831.913	24209
832.051	24159
832.19	24159
832.329	24136
832.467	24076
832.606	24007
832.744	24117
832.883	23954
833.022	24068
833.16	24049
833.299	24110
833.437	24030
833.576	24106
833.714	23996
833.852	24114
833.991	24205
834.129	24247
834.267	24171
834.406	24102
834.544	24136
834.682	24270
834.821	24133
834.959	24254
835.097	24034
835.235	24133
835.373	23939
835.511	24079
835.65	23927
835.788	23954
835.926	23863
836.064	23790
836.202	23779
836.34	23912
836.478	24034
836.615	23878
836.753	23931
836.891	24030
837.029	23893
837.167	23977
837.305	23935
837.443	23889
837.58	23741
837.718	23874
837.856	23767
837.993	23798
838.131	23729
838.269	23638
838.406	23646
838.544	23577
838.681	23414
838.819	23395
838.956	23181
839.094	23288
839.231	23212
839.369	23356
839.506	23733
839.643	23512
839.781	23269
839.918	23174
840.055	23220
840.193	23170
840.33	23117
840.467	23178
840.604	23315
840.742	23543
840.879	23121
841.016	23223
841.153	23071
841.29	23246
841.427	23204
841.564	23212
841.701	23197
841.838	23003
841.975	22984
842.112	23079
842.249	22949
842.385	22999
842.522	23223
842.659	22995
842.796	22908
842.933	22965
843.069	22820
843.206	22862
843.343	22953
843.479	22949
843.616	22927
843.752	22778
843.889	22664
844.025	22778
844.162	22694
844.298	22744
844.435	22740
844.571	22713
844.708	22828
844.844	22873
844.98	22801
845.117	22805
845.253	22721
845.389	22493
845.525	22653
845.661	22523
845.798	22413
845.934	22466
846.07	22519
846.206	22527
846.342	22717
846.478	22394
846.614	22284
846.75	22295
846.886	22109
847.022	22181
847.158	22154
847.294	22112
847.429	22257
847.565	22177
847.701	22306
847.837	21926
847.972	21888
848.108	22002
848.244	21865
848.379	21835
848.515	21850
848.65	21709
848.786	21774
848.921	21861
849.057	21812
849.192	21880
849.328	21793
849.463	21876
849.598	21698
849.734	21743
849.869	21553
850.004	21595
850.14	21625
850.275	21599
850.41	21534
850.545	21511
850.68	21542
850.815	21557
850.95	21553
851.085	21736
851.22	21583
851.355	21568
851.49	21450
851.625	21321
851.76	21447
851.895	21504
852.03	21363
852.165	21618
852.299	21538
852.434	21568
852.569	21614
852.703	21564
852.838	21652
852.973	21652
853.107	21690
853.242	21439
853.376	21431
853.511	21275
853.645	21291
853.78	21500
853.914	21488
854.048	21332
854.183	21256
854.317	21462
854.451	21511
854.585	21405
854.72	21389
854.854	21408
854.988	21386
855.122	21412
855.256	21150
855.39	21306
855.524	21397
855.658	21310
855.792	21416
855.926	21485
856.06	21393
856.194	21466
856.327	21203
856.461	21332
856.595	21291
856.729	21245
856.862	21492
856.996	21363
857.13	21500
857.263	21370
857.397	21431
857.53	21439
857.664	21443
857.797	21359
857.931	21435
858.064	21454
858.197	21447
858.331	21439
858.464	21382
858.597	21317
858.731	21237
858.864	21302
858.997	21268
859.13	21211
859.263	21268
859.396	21424
859.529	21393
859.662	21408
859.795	21447
859.928	21416
860.061	21511
860.194	21561
860.327	21458
860.46	21405
860.592	21447
860.725	21450
860.858	21431
860.99	21256
861.123	21367
861.256	21321
861.388	21374
861.521	22124
861.653	21180
861.786	21188
861.918	21214
862.05	21161
862.183	21230
862.315	21393
862.447	21405
862.58	21233
862.712	21013
862.844	21013
862.976	21100
863.108	21184
863.24	21553
863.372	21154
863.504	21024
863.636	21074
863.768	21081
863.9	21104
864.032	21020
864.164	20956
864.296	21142
864.428	21108
864.559	21135
864.691	21226
864.823	21142
864.954	21032
865.086	21017
865.217	21020
865.349	20826
865.48	20910
865.612	20937
865.743	21096
865.875	20982
866.006	20921
866.137	20971
866.269	20891
866.4	20937
866.531	20937
866.662	20967
866.793	20914
866.924	20834
867.055	20941
867.186	20902
867.317	20807
867.448	20872
867.579	20868
867.71	20872
867.841	20792
867.972	20857
868.103	20925
868.233	20868
868.364	20937
868.495	21123
868.625	21096
868.756	21249
868.886	21116
869.017	21146
869.147	21233
869.278	21287
869.408	21203
869.539	21142
869.669	21154
869.799	21207
869.929	21321
870.06	21291
870.19	21355
870.32	21336
870.45	21450
870.58	21572
870.71	21690
870.84	21633
870.97	21504
871.1	21690
871.23	21694
871.36	21800
871.489	21641
871.619	21747
871.749	21774
871.879	21713
872.008	21827
872.138	21713
872.267	21713
872.397	21633
872.526	21641
872.656	21545
872.785	21637
872.915	21610
873.044	21865
873.173	21762
873.303	21732
873.432	21835
873.561	21918
873.69	21812
873.819	21755
873.948	21903
874.077	21835
874.206	21819
874.335	21903
874.464	21865
874.593	22021
874.722	21903
874.851	22078
874.979	22063
875.108	22029
875.237	22010
875.365	21918
875.494	22013
875.623	22116
875.751	21895
875.88	22074
876.008	22135
876.136	22143
876.265	22382
876.393	22584
876.521	22428
876.65	22489
876.778	22310
876.906	22360
877.034	22375
877.162	22352
877.29	22341
877.418	22348
877.546	22303
877.674	22310
877.802	22348
877.93	22173
878.058	22181
878.185	22272
878.313	22322
878.441	22265
878.568	22215
878.696	22318
878.824	22405
878.951	22436
879.079	22493
879.206	22592
879.333	22557
879.461	22443
879.588	22485
879.715	22436
879.842	22599
879.97	22489
880.097	22177
880.224	22185
880.351	22177
880.478	22223
880.605	22074
880.732	22177
880.859	22367
880.986	22177
881.112	22367
881.239	22029
881.366	21941
881.493	21854
881.619	21720
881.746	21762
881.872	21732
881.999	21827
882.125	21701
882.252	21774
882.378	21797
882.505	21945
882.631	21675
882.757	21488
882.883	21568
883.01	21351
883.136	21485
883.262	21367
883.388	21203
883.514	21405
883.64	21469
883.766	21325
883.892	21214
884.018	21169
884.143	21519
884.269	21485
884.395	21142
884.52	21089
884.646	21127
884.772	21074
884.897	21020
885.023	21089
885.148	21138
885.274	21150
885.399	21112
885.524	21100
885.65	21013
885.775	21100
885.9	21036
886.025	21207
886.15	21116
886.275	20967
886.4	21009
886.525	21112
886.65	20960
886.775	21051
886.9	21184
887.025	21264
887.149	20979
887.274	20933
887.399	20849
887.523	20708
887.648	20830
887.773	20823
887.897	20998
888.021	20990
888.146	20807
888.27	20880
888.395	20967
888.519	20883
888.643	21036
888.767	20925
888.891	20830
889.015	20651
889.139	20754
889.263	20629
889.387	20746
889.511	20876
889.635	20712
889.759	20644
889.883	20617
890.006	20746
890.13	20667
890.254	20621
890.377	20564
890.501	20396
890.624	20339
890.748	20408
890.871	20301
890.995	20210
891.118	20130
891.241	20157
891.364	20263
891.488	20415
891.611	20199
891.734	20199
891.857	20199
891.98	20278
892.103	20278
892.226	20214
892.349	20157
892.471	20149
892.594	20199
892.717	20183
892.839	20001
892.962	20202
893.085	20153
893.207	20077
893.33	19928
893.452	20024
893.575	20119
893.697	20142
893.819	20267
893.941	20180
894.064	20263
894.186	20058
894.308	20111
894.43	20103
894.552	20229
894.674	20191
894.796	20035
894.918	20103
895.04	20084
895.161	20214
895.283	20187
895.405	19982
895.526	20130
895.648	20081
895.769	20134
895.891	20248
896.012	20210
896.134	20134
896.255	20005
896.376	20153
896.498	20065
896.619	20172
896.74	20100
896.861	20145
896.982	20450
897.103	20648
897.224	20442
897.345	20355
897.466	20317
897.587	20336
897.708	20389
897.828	20343
897.949	20221
898.07	20054
898.19	20199
898.311	20503
898.431	20278
898.552	20267
898.672	20427
898.792	20492
898.913	20358
899.033	20305
899.153	20286
899.273	20111
899.393	20062
899.513	20206
899.633	20134
899.753	20153
899.873	20115
899.993	20027
900.113	20016
900.232	20164
900.352	19894
900.472	19936
900.591	19772
900.711	19959
900.83	19967
900.95	19936
901.069	20069
901.189	19586
901.308	19544
901.427	19426
901.546	19506
901.665	19556
901.784	19441
901.904	19293
902.023	19221
902.141	18989
902.26	19065
902.379	19065
902.498	19027
902.617	18882
902.735	19080
902.854	18935
902.973	18905
903.091	18612
903.21	18578
903.328	18620
903.446	18623
903.565	18506
903.683	18429
903.801	18376
903.919	18452
904.038	18372
904.156	18197
904.274	18209
904.392	18239
904.51	18171
904.627	18125
904.745	18148
904.863	18239
904.981	18030
905.098	17851
905.216	17882
905.334	17942
905.451	17882
905.569	17836
905.686	17920
905.803	17847
905.921	17703
906.038	17840
906.155	17684
906.272	17684
906.389	17608
906.506	17379
906.623	17497
906.74	17467
906.857	17349
906.974	17318
907.091	17512
907.208	17524
907.324	17436
907.441	17337
907.557	17162
907.674	17117
907.79	17025
907.907	17128
908.023	17128
908.139	17075
908.256	17029
908.372	16976
908.488	16942
908.604	16930
908.72	16752
908.836	16854
908.952	16812
909.068	16847
909.184	16934
909.3	16774
909.415	16889
909.531	16801
909.647	16618
909.762	16577
909.878	16538
909.993	16584
910.108	16542
910.224	16489
910.339	16474
910.454	16352
910.57	16405
910.685	16295
910.8	16535
910.915	16516
911.03	16329
911.145	16242
911.259	16169
911.374	16177
911.489	16051
911.604	16090
911.718	15743
911.833	15876
911.947	15778
912.062	15812
912.176	15930
912.291	15930
912.405	15926
912.519	16063
912.633	16051
912.748	15972
912.862	15797
912.976	15743
913.09	15549
913.204	15641
913.318	15739
913.431	15873
913.545	15808
913.659	15778
913.772	15663
913.886	15584
914	15481
914.113	15648
914.226	15561
914.34	15610
914.453	15420
914.566	15473
914.68	15431
914.793	15363
914.906	15249
915.019	15150
915.132	15116
915.245	15116
915.358	15199
915.47	15150
915.583	15146
915.696	15066
915.809	15150
915.921	15294
916.034	15104
916.146	15017
916.259	14975
916.371	15070
916.483	15051
916.595	15001
916.708	15017
916.82	15005
916.932	14857
917.044	14929
917.156	14876
917.268	14693
917.38	14750
917.491	14743
917.603	14640
917.715	14902
917.826	14777
917.938	14720
918.049	14594
918.161	14754
918.272	14906
918.384	14944
918.495	14701
918.606	14575
918.717	14518
918.828	14545
918.939	14594
919.05	14454
919.161	14526
919.272	14332
919.383	14419
919.494	14598
919.604	14727
919.715	14549
919.826	14488
919.936	14484
920.047	14564
920.157	14541
920.267	14667
920.378	14533
920.488	14568
920.598	14663
920.708	14834
920.818	14648
920.928	14693
921.038	14891
921.148	14689
921.258	14419
921.368	14419
921.477	14355
921.587	14343
921.697	14229
921.806	14218
921.916	14172
922.025	14062
922.134	14027
922.244	13845
922.353	13993
922.462	13818
922.571	13780
922.68	13529
922.789	13514
922.898	13613
923.007	13525
923.116	13651
923.224	13578
923.333	13518
923.442	13320
923.55	13362
923.659	13403
923.767	13449
923.876	13312
923.984	13377
924.092	13209
924.201	13316
924.309	13263
924.417	13282
924.525	13209
924.633	13228
924.741	14069
924.849	13057
924.956	13263
925.064	12939
925.172	12932
925.279	12993
925.387	13023
925.494	13027
925.602	13095
925.709	13042
925.816	12897
925.924	12973
926.031	13042
926.138	12901
926.245	12996
926.352	12806
926.459	12935
926.566	12916
926.673	12837
926.779	12741
926.886	12673
926.993	12570
927.099	12509
927.206	12551
927.312	12551
927.419	12642
927.525	12525
927.631	12536
927.737	12433
927.843	12399
927.95	12315
928.056	12323
928.162	12460
928.267	12448
928.373	12924
928.479	12429
928.585	12209
928.69	12319
928.796	12365
928.901	12114
929.007	12087
929.112	12273
929.218	12190
929.323	12140
929.428	12045
929.533	12209
929.638	12041
929.743	12038
929.848	12106
929.953	12026
930.058	11996
930.163	11748
930.267	11798
930.372	11893
930.477	11764
930.581	11950
930.685	11790
930.79	11661
930.894	11703
930.998	11653
931.103	11775
931.207	11429
931.311	11356
931.415	11239
931.519	11079
931.623	11071
