Data from test_V78500241_1953.txt Node
Date: Fri Mar 25 15:55:19 CST 2022
User: usil
Spectrometer: V785-0024
Trigger mode: 0
Integration Time (sec): 4.000000E-1
Scans to average: 1
Nonlinearity correction enabled: false
Boxcar width: 0
Storing dark spectrum: false
XAxis mode: Wavelengths
Number of Pixels in Spectrum: 1024
>>>>>Begin Spectral Data<<<<<
801.071	28816
801.214	28835
801.356	28615
801.499	28485
801.641	28284
801.783	28394
801.926	28493
802.068	28276
802.211	28253
802.353	28356
802.496	28112
802.638	28093
802.78	28105
802.923	28036
803.065	27991
803.208	28040
803.35	28185
803.492	28249
803.635	28128
803.777	28139
803.919	28360
804.061	28725
804.204	28466
804.346	28287
804.488	28249
804.63	28356
804.773	28322
804.915	28257
805.057	28653
805.199	28360
805.341	28497
805.483	28470
805.626	28424
805.768	28344
805.91	28417
806.052	28565
806.194	28535
806.336	28592
806.478	28459
806.62	28413
806.762	28618
806.904	28805
807.046	29083
807.188	28793
807.33	28843
807.472	28965
807.614	28965
807.756	28774
807.898	28733
808.04	28672
808.182	28752
808.324	28649
808.465	28911
808.607	28919
808.749	29166
808.891	29307
809.033	29444
809.174	29231
809.316	29037
809.458	29193
809.6	29075
809.741	29337
809.883	29246
810.025	29562
810.166	29417
810.308	29421
810.45	29288
810.591	29353
810.733	29174
810.875	29143
811.016	29018
811.158	28980
811.299	29220
811.441	29387
811.582	29398
811.724	29056
811.865	29200
812.007	29250
812.148	29170
812.29	29212
812.431	29296
812.573	29463
812.714	29638
812.855	29661
812.997	29703
813.138	29821
813.279	29767
813.421	29684
813.562	29668
813.703	29486
813.845	29269
813.986	29071
814.127	29022
814.268	28888
814.41	28862
814.551	28809
814.692	28946
814.833	28812
814.974	28866
815.115	29003
815.256	28706
815.397	28831
815.539	28755
815.68	28668
815.821	28596
815.962	28683
816.103	28603
816.244	28550
816.385	28599
816.526	28504
816.666	28242
816.807	28329
816.948	28310
817.089	28280
817.23	28192
817.371	28101
817.512	28131
817.653	28017
817.793	28204
817.934	28169
818.075	28112
818.216	28196
818.356	28196
818.497	28025
818.638	27949
818.778	27926
818.919	27956
819.06	28074
819.2	28150
819.341	28177
819.481	28192
819.622	28417
819.762	28592
819.903	28443
820.043	28284
820.184	28337
820.324	28265
820.465	28390
820.605	28303
820.746	28394
820.886	28021
821.026	28226
821.167	28215
821.307	28318
821.447	28173
821.588	28147
821.728	27998
821.868	27759
822.008	27625
822.149	27675
822.289	27629
822.429	27488
822.569	27302
822.709	27260
822.849	27135
822.99	27100
823.13	27142
823.27	26975
823.41	27074
823.55	26845
823.69	27036
823.83	27001
823.97	26948
824.11	26777
824.25	26815
824.389	26906
824.529	26967
824.669	26906
824.809	26880
824.949	26876
825.089	27062
825.228	26845
825.368	26800
825.508	26651
825.648	26644
825.787	26746
825.927	26701
826.067	26716
826.206	26697
826.346	26765
826.485	26861
826.625	26701
826.765	26864
826.904	26834
827.044	26541
827.183	26503
827.323	26434
827.462	26545
827.601	26423
827.741	26476
827.88	26499
828.02	26347
828.159	26309
828.298	26488
828.437	26503
828.577	26381
828.716	26469
828.855	26366
828.994	26225
829.134	26100
829.273	26168
829.412	26069
829.551	25963
829.69	25982
829.829	26062
829.968	26229
830.107	26145
830.246	25997
830.385	26115
830.524	25997
830.663	25925
830.802	25788
830.941	25693
831.08	25586
831.219	25852
831.357	25738
831.496	25932
831.635	25681
831.774	25727
831.913	25548
832.051	25552
832.19	25400
832.329	25479
832.467	25430
832.606	25464
832.744	25369
832.883	25464
833.022	25422
833.16	25316
833.299	25411
833.437	25426
833.576	25487
833.714	25346
833.852	25510
833.991	25647
834.129	25422
834.267	25506
834.406	25464
834.544	25491
834.682	25472
834.821	25365
834.959	25533
835.097	25259
835.235	25407
835.373	25415
835.511	25457
835.65	25289
835.788	25236
835.926	25103
836.064	25129
836.202	25061
836.34	25266
836.478	25327
836.615	25202
836.753	25175
836.891	25308
837.029	25301
837.167	25247
837.305	25129
837.443	25244
837.58	25107
837.718	25236
837.856	25133
837.993	25061
838.131	24977
838.269	24863
838.406	25015
838.544	24928
838.681	24700
838.819	24669
838.956	24517
839.094	24551
839.231	24578
839.369	24833
839.506	24810
839.643	24726
839.781	24650
839.918	24422
840.055	24532
840.193	24532
840.33	24547
840.467	24540
840.604	24384
840.742	24700
840.879	24464
841.016	24460
841.153	24361
841.29	24551
841.427	24445
841.564	24578
841.701	24342
841.838	24399
841.975	24369
842.112	24380
842.249	24289
842.385	24228
842.522	24467
842.659	24289
842.796	24190
842.933	24270
843.069	24216
843.206	24171
843.343	24308
843.479	24114
843.616	24155
843.752	24034
843.889	23927
844.025	24076
844.162	23908
844.298	24079
844.435	24026
844.571	24041
844.708	23954
844.844	24190
844.98	24045
845.117	24125
845.253	23931
845.389	23927
845.525	23893
845.661	23843
845.798	23646
845.934	23695
846.07	23676
846.206	23699
846.342	23775
846.478	23745
846.614	23551
846.75	23391
846.886	23265
847.022	23459
847.158	23535
847.294	23452
847.429	23414
847.565	23231
847.701	23638
847.837	23200
847.972	23060
848.108	23299
848.244	23261
848.379	23003
848.515	23044
848.65	22942
848.786	23037
848.921	23060
849.057	23193
849.192	23117
849.328	23124
849.463	23083
849.598	22934
849.734	23014
849.869	22850
850.004	22729
850.14	22824
850.275	22740
850.41	22748
850.545	22752
850.68	22672
850.815	22881
850.95	22752
851.085	22908
851.22	22889
851.355	22740
851.49	22767
851.625	22850
851.76	22774
851.895	22729
852.03	22675
852.165	22767
852.299	22668
852.434	22820
852.569	22767
852.703	22763
852.838	22892
852.973	22942
853.107	22915
853.242	22733
853.376	22649
853.511	22500
853.645	22634
853.78	22710
853.914	22649
854.048	22630
854.183	22584
854.317	22675
854.451	22721
854.585	22634
854.72	22596
854.854	22713
854.988	22542
855.122	22535
855.256	22508
855.39	22592
855.524	22550
855.658	22706
855.792	22710
855.926	22672
856.06	22611
856.194	22755
856.327	22459
856.461	22611
856.595	22504
856.729	22531
856.862	22626
856.996	22596
857.13	22607
857.263	22656
857.397	22744
857.53	22649
857.664	22561
857.797	22630
857.931	22847
858.064	22675
858.197	22675
858.331	22478
858.464	22394
858.597	22497
858.731	22489
858.864	22451
858.997	22557
859.13	22546
859.263	22588
859.396	22729
859.529	22497
859.662	22694
859.795	22565
859.928	22455
860.061	22828
860.194	22774
860.327	22626
860.46	22641
860.592	22782
860.725	22782
860.858	22805
860.99	22599
861.123	22554
861.256	22474
861.388	22565
861.521	23471
861.653	22561
861.786	22386
861.918	22436
862.05	22382
862.183	22485
862.315	22557
862.447	22603
862.58	22455
862.712	22451
862.844	22200
862.976	22485
863.108	22436
863.24	22809
863.372	22128
863.504	22341
863.636	22303
863.768	22382
863.9	22348
864.032	22211
864.164	22280
864.296	22325
864.428	22466
864.559	22413
864.691	22341
864.823	22303
864.954	22234
865.086	22280
865.217	22166
865.349	22055
865.48	22223
865.612	22128
865.743	22188
865.875	22196
866.006	22128
866.137	22185
866.269	22226
866.4	22265
866.531	22139
866.662	22093
866.793	22074
866.924	22154
867.055	22025
867.186	22124
867.317	22139
867.448	22070
867.579	22067
867.71	22021
867.841	22006
867.972	22261
868.103	22055
868.233	22093
868.364	22116
868.495	22238
868.625	22348
868.756	22337
868.886	22291
869.017	22299
869.147	22546
869.278	22485
869.408	22303
869.539	22265
869.669	22462
869.799	22352
869.929	22428
870.06	22405
870.19	22660
870.32	22622
870.45	22626
870.58	22752
870.71	22862
870.84	22900
870.97	22641
871.1	22733
871.23	22900
871.36	22862
871.489	22740
871.619	22911
871.749	22953
871.879	22991
872.008	23010
872.138	22957
872.267	22995
872.397	22748
872.526	22854
872.656	22824
872.785	22774
872.915	22820
873.044	23067
873.173	22946
873.303	22987
873.432	23060
873.561	23155
873.69	23010
873.819	22881
873.948	22976
874.077	22972
874.206	22892
874.335	22942
874.464	22987
874.593	23155
874.722	23166
874.851	23155
874.979	23208
875.108	23246
875.237	23174
875.365	23056
875.494	23102
875.623	23292
875.751	23212
875.88	23128
876.008	23189
876.136	23455
876.265	23547
876.393	23608
876.521	23581
876.65	23680
876.778	23531
876.906	23501
877.034	23592
877.162	23512
877.29	23376
877.418	23444
877.546	23471
877.674	23509
877.802	23509
877.93	23429
878.058	23520
878.185	23334
878.313	23554
878.441	23570
878.568	23315
878.696	23391
878.824	23535
878.951	23531
879.079	23657
879.206	23790
879.333	23619
879.461	23551
879.588	23596
879.715	23695
879.842	23843
879.97	23573
880.097	23402
880.224	23212
880.351	23440
880.478	23398
880.605	23216
880.732	23250
880.859	23486
880.986	23261
881.112	23345
881.239	23216
881.366	23018
881.493	22961
881.619	22961
881.746	22953
881.872	22843
881.999	22862
882.125	22755
882.252	23071
882.378	22843
882.505	22961
882.631	22679
882.757	22561
882.883	22592
883.01	22550
883.136	22500
883.262	22485
883.388	22375
883.514	22557
883.64	22592
883.766	22500
883.892	22280
884.018	22325
884.143	22394
884.269	22489
884.395	22181
884.52	22166
884.646	22097
884.772	22265
884.897	22032
885.023	22032
885.148	22257
885.274	22246
885.399	22306
885.524	22192
885.65	22192
885.775	22276
885.9	22101
886.025	22318
886.15	22325
886.275	22169
886.4	22070
886.525	22139
886.65	22128
886.775	22200
886.9	22242
887.025	22424
887.149	22112
887.274	21983
887.399	21994
887.523	22029
887.648	21911
887.773	21823
887.897	21987
888.021	21770
888.146	21850
888.27	22021
888.395	22078
888.519	21983
888.643	21899
888.767	21998
888.891	21823
889.015	21819
889.139	21857
889.263	21610
889.387	21838
889.511	21888
889.635	21850
889.759	21831
889.883	21713
890.006	21698
890.13	21922
890.254	21633
890.377	21686
890.501	21481
890.624	21329
890.748	21542
890.871	21374
890.995	21370
891.118	21173
891.241	21279
891.364	21279
891.488	21428
891.611	21306
891.734	21317
891.857	21298
891.98	21378
892.103	21370
892.226	21374
892.349	21165
892.471	21020
892.594	21230
892.717	21252
892.839	21294
892.962	21226
893.085	21199
893.207	21142
893.33	21180
893.452	21089
893.575	21214
893.697	21207
893.819	21344
893.941	21291
894.064	21249
894.186	21039
894.308	20986
894.43	21264
894.552	21283
894.674	21192
894.796	21032
894.918	21142
895.04	21138
895.161	21294
895.283	21233
895.405	21081
895.526	21066
895.648	21104
895.769	21195
895.891	21195
896.012	21306
896.134	21192
896.255	21146
896.376	21112
896.498	21150
896.619	21150
896.74	21096
896.861	21222
896.982	21530
897.103	21648
897.224	21397
897.345	21363
897.466	21336
897.587	21344
897.708	21595
897.828	21321
897.949	21214
898.07	21203
898.19	21279
898.311	21439
898.431	21214
898.552	21412
898.672	21473
898.792	21382
898.913	21477
899.033	21336
899.153	21161
899.273	20990
899.393	21077
899.513	21119
899.633	21116
899.753	21028
899.873	21112
899.993	21116
900.113	20956
900.232	20979
900.352	20952
900.472	20902
900.591	20788
900.711	20891
900.83	20796
900.95	20975
901.069	20994
901.189	20632
901.308	20545
901.427	20454
901.546	20400
901.665	20381
901.784	20431
901.904	20271
902.023	20176
902.141	19978
902.26	19860
902.379	20058
902.498	19967
902.617	19883
902.735	19917
902.854	19913
902.973	19807
903.091	19685
903.21	19575
903.328	19635
903.446	19392
903.565	19403
903.683	19362
903.801	19255
903.919	19278
904.038	19350
904.156	19084
904.274	19247
904.392	19148
904.51	19034
904.627	19080
904.745	19038
904.863	19232
904.981	18882
905.098	18863
905.216	18642
905.334	18905
905.451	18848
905.569	18707
905.686	18840
905.803	18814
905.921	18536
906.038	18711
906.155	18601
906.272	18448
906.389	18437
906.506	18281
906.623	18315
906.74	18338
906.857	18171
906.974	18220
907.091	18376
907.208	18391
907.324	18300
907.441	18251
907.557	18072
907.674	17965
907.79	17969
907.907	17977
908.023	17931
908.139	18057
908.256	17863
908.372	17843
908.488	17870
908.604	17741
908.72	17604
908.836	17824
908.952	17695
909.068	17779
909.184	17847
909.3	17562
909.415	17699
909.531	17748
909.647	17440
909.762	17425
909.878	17364
909.993	17421
910.108	17368
910.224	17410
910.339	17417
910.454	17246
910.57	17200
910.685	17147
910.8	17421
910.915	17448
911.03	17212
911.145	17048
911.259	17041
911.374	17083
911.489	16927
911.604	16911
911.718	16793
911.833	16778
911.947	16607
912.062	16573
912.176	16778
912.291	16733
912.405	16835
912.519	16835
912.633	16938
912.748	16812
912.862	16713
912.976	16603
913.09	16379
913.204	16394
913.318	16656
913.431	16694
913.545	16584
913.659	16733
913.772	16626
913.886	16421
914	16306
914.113	16413
914.226	16360
914.34	16379
914.453	16249
914.566	16382
914.68	16238
914.793	16226
914.906	16078
915.019	15941
915.132	15819
915.245	15930
915.358	15838
915.47	15945
915.583	15998
915.696	15934
915.809	16124
915.921	16010
916.034	15876
916.146	15819
916.259	15800
916.371	15819
916.483	15876
916.595	15717
916.708	15694
916.82	15732
916.932	15728
917.044	15652
917.156	15713
917.268	15553
917.38	15564
917.491	15504
917.603	15564
917.715	15595
917.826	15732
917.938	15428
918.049	15336
918.161	15466
918.272	15610
918.384	15572
918.495	15496
918.606	15317
918.717	15321
918.828	15317
918.939	15329
919.05	15116
919.161	15351
919.272	15127
919.383	15085
919.494	15344
919.604	15424
919.715	15359
919.826	15062
919.936	15165
920.047	15241
920.157	15252
920.267	15344
920.378	15302
920.488	15222
920.598	15412
920.708	15519
920.818	15367
920.928	15374
921.038	15603
921.148	15492
921.258	15233
921.368	15199
921.477	14982
921.587	14910
921.697	14845
921.806	14906
921.916	14849
922.025	14689
922.134	14594
922.244	14484
922.353	14610
922.462	14480
922.571	14404
922.68	14275
922.789	14263
922.898	14263
923.007	14142
923.116	14317
923.224	14267
923.333	14191
923.442	14035
923.55	14050
923.659	14149
923.767	14100
923.876	14062
923.984	14008
924.092	14039
924.201	14008
924.309	13928
924.417	14008
924.525	13788
924.633	13898
924.741	14788
924.849	13643
924.956	13837
925.064	13666
925.172	13636
925.279	13559
925.387	13601
925.494	13548
925.602	13734
925.709	13575
925.816	13400
925.924	13502
926.031	13597
926.138	13624
926.245	13563
926.352	13415
926.459	13552
926.566	13544
926.673	13537
926.779	13350
926.886	13384
926.993	13145
927.099	13232
927.206	13099
927.312	13061
927.419	13156
927.525	13171
927.631	13175
927.737	12981
927.843	12989
927.95	12943
928.056	12913
928.162	12943
928.267	13019
928.373	13628
928.479	13042
928.585	12817
928.69	12795
928.796	12897
928.901	12852
929.007	12703
929.112	12722
929.218	12692
929.323	12768
929.428	12722
929.533	12779
929.638	12585
929.743	12566
929.848	12608
929.953	12532
930.058	12441
930.163	12330
930.267	12330
930.372	12525
930.477	12285
930.581	12551
930.685	12342
930.79	12220
930.894	12334
930.998	12197
931.103	12296
931.207	11973
931.311	11889
931.415	11726
931.519	11573
931.623	11520
