Data from test_V78500241_3410.txt Node
Date: Fri Mar 25 16:05:25 CST 2022
User: usil
Spectrometer: V785-0024
Trigger mode: 0
Integration Time (sec): 4.000000E-1
Scans to average: 1
Nonlinearity correction enabled: false
Boxcar width: 0
Storing dark spectrum: false
XAxis mode: Wavelengths
Number of Pixels in Spectrum: 1024
>>>>>Begin Spectral Data<<<<<
801.071	28531
801.214	28634
801.356	28516
801.499	28394
801.641	28154
801.783	28284
801.926	28386
802.068	28207
802.211	28257
802.353	28090
802.496	28029
802.638	28040
802.78	27838
802.923	27964
803.065	27880
803.208	27926
803.35	27895
803.492	28124
803.635	28272
803.777	28055
803.919	28253
804.061	28424
804.204	28341
804.346	28185
804.488	28070
804.63	28109
804.773	28082
804.915	28344
805.057	28417
805.199	28314
805.341	28344
805.483	28280
805.626	28379
805.768	28310
805.91	28287
806.052	28382
806.194	28219
806.336	28649
806.478	28379
806.62	28386
806.762	28516
806.904	28653
807.046	28885
807.188	28820
807.33	28809
807.472	28888
807.614	28656
807.756	28713
807.898	28641
808.04	28698
808.182	28630
808.324	28622
808.465	28694
808.607	28919
808.749	29056
808.891	29254
809.033	29280
809.174	29022
809.316	29033
809.458	29064
809.6	29052
809.741	29132
809.883	29239
810.025	29326
810.166	29132
810.308	29318
810.45	29398
810.591	29349
810.733	29083
810.875	29041
811.016	28888
811.158	28915
811.299	29231
811.441	29296
811.582	29204
811.724	29056
811.865	29117
812.007	29079
812.148	29204
812.29	29029
812.431	29372
812.573	29368
812.714	29486
812.855	29478
812.997	29649
813.138	29859
813.279	29722
813.421	29642
813.562	29501
813.703	29360
813.845	29375
813.986	29060
814.127	28812
814.268	28774
814.41	28831
814.551	28721
814.692	28820
814.833	28748
814.974	28656
815.115	28717
815.256	28660
815.397	28660
815.539	28649
815.68	28535
815.821	28519
815.962	28645
816.103	28691
816.244	28337
816.385	28421
816.526	28287
816.666	28169
816.807	28010
816.948	28131
817.089	28219
817.23	28158
817.371	27991
817.512	27934
817.653	28101
817.793	28120
817.934	28131
818.075	28124
818.216	28109
818.356	28101
818.497	27949
818.638	27838
818.778	27918
818.919	27911
819.06	28006
819.2	27922
819.341	28051
819.481	28086
819.622	28207
819.762	28474
819.903	28394
820.043	28265
820.184	28158
820.324	28306
820.465	28329
820.605	28238
820.746	28185
820.886	28093
821.026	28223
821.167	28234
821.307	28242
821.447	28040
821.588	28128
821.728	27953
821.868	27652
822.008	27660
822.149	27648
822.289	27603
822.429	27283
822.569	27283
822.709	27268
822.849	27100
822.99	27165
823.13	27032
823.27	27077
823.41	27036
823.55	26769
823.69	26940
823.83	27017
823.97	26910
824.11	26845
824.25	26716
824.389	26765
824.529	26815
824.669	26648
824.809	26785
824.949	26902
825.089	26792
825.228	26621
825.368	26499
825.508	26602
825.648	26735
825.787	26648
825.927	26754
826.067	26712
826.206	26587
826.346	26769
826.485	26686
826.625	26667
826.765	26796
826.904	26693
827.044	26419
827.183	26469
827.323	26339
827.462	26503
827.601	26355
827.741	26423
827.88	26415
828.02	26389
828.159	26301
828.298	26427
828.437	26347
828.577	26259
828.716	26370
828.855	26248
828.994	26088
829.134	26058
829.273	26210
829.412	25959
829.551	25909
829.69	25966
829.829	26039
829.968	26046
830.107	26100
830.246	26001
830.385	25974
830.524	25906
830.663	25875
830.802	25655
830.941	25514
831.08	25658
831.219	25883
831.357	25734
831.496	25818
831.635	25540
831.774	25544
831.913	25613
832.051	25441
832.19	25460
832.329	25377
832.467	25362
832.606	25312
832.744	25301
832.883	25289
833.022	25251
833.16	25365
833.299	25438
833.437	25293
833.576	25457
833.714	25350
833.852	25479
833.991	25407
834.129	25495
834.267	25476
834.406	25373
834.544	25346
834.682	25377
834.821	25274
834.959	25544
835.097	25270
835.235	25369
835.373	25266
835.511	25365
835.65	25183
835.788	25304
835.926	25129
836.064	25004
836.202	25213
836.34	25141
836.478	25164
836.615	25015
836.753	25236
836.891	25209
837.029	25255
837.167	25129
837.305	25072
837.443	24973
837.58	25008
837.718	25114
837.856	25088
837.993	25072
838.131	24970
838.269	24875
838.406	24863
838.544	24806
838.681	24715
838.819	24654
838.956	24620
839.094	24502
839.231	24570
839.369	24665
839.506	24768
839.643	24806
839.781	24467
839.918	24407
840.055	24505
840.193	24441
840.33	24357
840.467	24384
840.604	24456
840.742	24642
840.879	24228
841.016	24376
841.153	24384
841.29	24327
841.427	24475
841.564	24372
841.701	24437
841.838	24350
841.975	24300
842.112	24330
842.249	24228
842.385	24068
842.522	24380
842.659	24213
842.796	24178
842.933	24053
843.069	24079
843.206	24102
843.343	24205
843.479	24155
843.616	24076
843.752	23939
843.889	23923
844.025	24163
844.162	23931
844.298	23916
844.435	23859
844.571	23851
844.708	23882
844.844	24117
844.98	24152
845.117	24144
845.253	23904
845.389	23813
845.525	23904
845.661	23764
845.798	23668
845.934	23714
846.07	23596
846.206	23680
846.342	23840
846.478	23634
846.614	23490
846.75	23311
846.886	23341
847.022	23444
847.158	23322
847.294	23406
847.429	23406
847.565	23410
847.701	23551
847.837	23025
847.972	23166
848.108	23250
848.244	23159
848.379	22995
848.515	23022
848.65	23006
848.786	22957
848.921	23105
849.057	22991
849.192	23090
849.328	23033
849.463	22965
849.598	22854
849.734	22949
849.869	22850
850.004	22759
850.14	22752
850.275	22782
850.41	22698
850.545	22634
850.68	22771
850.815	22713
850.95	22637
851.085	22968
851.22	22797
851.355	22831
851.49	22752
851.625	22706
851.76	22687
851.895	22645
852.03	22694
852.165	22634
852.299	22790
852.434	22862
852.569	22805
852.703	22736
852.838	22748
852.973	22843
853.107	22793
853.242	22706
853.376	22557
853.511	22485
853.645	22535
853.78	22596
853.914	22519
854.048	22592
854.183	22527
854.317	22607
854.451	22752
854.585	22577
854.72	22584
854.854	22565
854.988	22459
855.122	22759
855.256	22504
855.39	22599
855.524	22653
855.658	22493
855.792	22573
855.926	22599
856.06	22603
856.194	22569
856.327	22523
856.461	22382
856.595	22577
856.729	22577
856.862	22660
856.996	22588
857.13	22683
857.263	22622
857.397	22618
857.53	22592
857.664	22516
857.797	22706
857.931	22637
858.064	22516
858.197	22634
858.331	22683
858.464	22478
858.597	22451
858.731	22519
858.864	22474
858.997	22459
859.13	22588
859.263	22580
859.396	22675
859.529	22500
859.662	22436
859.795	22649
859.928	22527
860.061	22733
860.194	22759
860.327	22561
860.46	22500
860.592	22592
860.725	22755
860.858	22687
860.99	22580
861.123	22523
861.256	22527
861.388	22561
861.521	23303
861.653	22390
861.786	22329
861.918	22451
862.05	22363
862.183	22440
862.315	22348
862.447	22481
862.58	22519
862.712	22238
862.844	22211
862.976	22367
863.108	22268
863.24	22683
863.372	22070
863.504	22234
863.636	22249
863.768	22344
863.9	22276
864.032	22200
864.164	22249
864.296	22333
864.428	22329
864.559	22303
864.691	22367
864.823	22356
864.954	22223
865.086	22215
865.217	22215
865.349	21994
865.48	22226
865.612	22166
865.743	22223
865.875	22112
866.006	22185
866.137	22147
866.269	22131
866.4	22150
866.531	22105
866.662	22063
866.793	22143
866.924	22093
867.055	22070
867.186	22032
867.317	22086
867.448	21956
867.579	22048
867.71	21793
867.841	21956
867.972	22044
868.103	22067
868.233	21922
868.364	22147
868.495	22223
868.625	22299
868.756	22402
868.886	22200
869.017	22306
869.147	22390
869.278	22451
869.408	22200
869.539	22421
869.669	22386
869.799	22322
869.929	22440
870.06	22314
870.19	22634
870.32	22546
870.45	22603
870.58	22759
870.71	22889
870.84	22759
870.97	22782
871.1	22736
871.23	22820
871.36	22953
871.489	22782
871.619	22805
871.749	22972
871.879	23083
872.008	22946
872.138	22889
872.267	22915
872.397	22877
872.526	22683
872.656	22793
872.785	22607
872.915	22987
873.044	23098
873.173	22908
873.303	22927
873.432	22885
873.561	23121
873.69	23006
873.819	23056
873.948	23102
874.077	22866
874.206	22892
874.335	22843
874.464	23094
874.593	23162
874.722	23003
874.851	23083
874.979	23208
875.108	23189
875.237	23113
875.365	22949
875.494	23083
875.623	23250
875.751	23166
875.88	23212
876.008	23311
876.136	23433
876.265	23570
876.393	23608
876.521	23668
876.65	23699
876.778	23600
876.906	23463
877.034	23452
877.162	23653
877.29	23406
877.418	23573
877.546	23364
877.674	23528
877.802	23452
877.93	23417
878.058	23497
878.185	23353
878.313	23417
878.441	23452
878.568	23280
878.696	23303
878.824	23501
878.951	23543
879.079	23661
879.206	23809
879.333	23589
879.461	23486
879.588	23699
879.715	23737
879.842	23771
879.97	23490
880.097	23246
880.224	23288
880.351	23311
880.478	23372
880.605	23258
880.732	23292
880.859	23509
880.986	23376
881.112	23265
881.239	23117
881.366	23052
881.493	22885
881.619	22915
881.746	22877
881.872	22847
881.999	22934
882.125	22729
882.252	22866
882.378	22801
882.505	22923
882.631	22554
882.757	22577
882.883	22569
883.01	22478
883.136	22500
883.262	22402
883.388	22398
883.514	22645
883.64	22618
883.766	22500
883.892	22428
884.018	22379
884.143	22421
884.269	22592
884.395	22147
884.52	22185
884.646	22090
884.772	22021
884.897	22097
885.023	22211
885.148	22341
885.274	22284
885.399	22207
885.524	22169
885.65	22196
885.775	22276
885.9	22131
886.025	22261
886.15	22158
886.275	22078
886.4	22010
886.525	22135
886.65	22059
886.775	22044
886.9	22116
887.025	22436
887.149	22124
887.274	21991
887.399	21956
887.523	22006
887.648	21880
887.773	21838
887.897	21941
888.021	22013
888.146	21819
888.27	21994
888.395	22032
888.519	21968
888.643	21964
888.767	21972
888.891	21797
889.015	21770
889.139	21781
889.263	21629
889.387	21770
889.511	21838
889.635	21888
889.759	21751
889.883	21660
890.006	21686
890.13	21743
890.254	21606
890.377	21656
890.501	21507
890.624	21496
890.748	21610
890.871	21351
890.995	21348
891.118	21245
891.241	21298
891.364	21279
891.488	21363
891.611	21310
891.734	21233
891.857	21287
891.98	21420
892.103	21241
892.226	21264
892.349	21138
892.471	21116
892.594	21135
892.717	21127
892.839	21085
892.962	21302
893.085	21306
893.207	21039
893.33	21074
893.452	21058
893.575	21192
893.697	21020
893.819	21374
893.941	21256
894.064	21374
894.186	21123
894.308	21077
894.43	21226
894.552	21195
894.674	21233
894.796	21017
894.918	21165
895.04	21108
895.161	21329
895.283	21176
895.405	21043
895.526	21089
895.648	20994
895.769	21104
895.891	21192
896.012	21260
896.134	21100
896.255	21176
896.376	21051
896.498	21108
896.619	21085
896.74	21089
896.861	21218
896.982	21488
897.103	21538
897.224	21313
897.345	21329
897.466	21203
897.587	21351
897.708	21431
897.828	21370
897.949	21283
898.07	21214
898.19	21199
898.311	21245
898.431	21245
898.552	21313
898.672	21412
898.792	21367
898.913	21192
899.033	21013
899.153	21074
899.273	21036
899.393	21039
899.513	21013
899.633	21009
899.753	21058
899.873	21070
899.993	21108
900.113	21108
900.232	21036
900.352	21005
900.472	20868
900.591	20815
900.711	20823
900.83	20815
900.95	20857
901.069	20918
901.189	20823
901.308	20492
901.427	20522
901.546	20374
901.665	20404
901.784	20343
901.904	20164
902.023	20206
902.141	19917
902.26	19967
902.379	20065
902.498	19909
902.617	19860
902.735	19967
902.854	19845
902.973	19818
903.091	19525
903.21	19533
903.328	19510
903.446	19453
903.565	19354
903.683	19403
903.801	19297
903.919	19354
904.038	19297
904.156	19099
904.274	19266
904.392	18932
904.51	19114
904.627	19069
904.745	19202
904.863	19206
904.981	18932
905.098	18859
905.216	18715
905.334	18764
905.451	18829
905.569	18802
905.686	18840
905.803	18787
905.921	18517
906.038	18639
906.155	18635
906.272	18475
906.389	18555
906.506	18410
906.623	18361
906.74	18178
906.857	18186
906.974	18289
907.091	18399
907.208	18403
907.324	18243
907.441	18167
907.557	18140
907.674	18117
907.79	17859
907.907	18045
908.023	17961
908.139	18022
908.256	18030
908.372	17977
908.488	17927
908.604	17672
908.72	17699
908.836	17718
908.952	17600
909.068	17798
909.184	17821
909.3	17737
909.415	17737
909.531	17710
909.647	17452
909.762	17501
909.878	17356
909.993	17429
910.108	17372
910.224	17296
910.339	17387
910.454	17353
910.57	17220
910.685	17227
910.8	17345
910.915	17379
911.03	17113
911.145	17041
911.259	16904
911.374	17090
911.489	16896
911.604	16869
911.718	16698
911.833	16679
911.947	16683
912.062	16580
912.176	16774
912.291	16782
912.405	16767
912.519	16866
912.633	16904
912.748	16771
912.862	16706
912.976	16622
913.09	16466
913.204	16538
913.318	16569
913.431	16573
913.545	16607
913.659	16630
913.772	16493
913.886	16390
914	16390
914.113	16459
914.226	16538
914.34	16367
914.453	16287
914.566	16421
914.68	16223
914.793	16192
914.906	15949
915.019	16036
915.132	15956
915.245	15876
915.358	16002
915.47	16006
915.583	15945
915.696	16032
915.809	16013
915.921	15987
916.034	15838
916.146	15812
916.259	15789
916.371	15949
916.483	15895
916.595	15812
916.708	15713
916.82	15747
916.932	15542
917.044	15671
917.156	15648
917.268	15568
917.38	15595
917.491	15511
917.603	15481
917.715	15549
917.826	15557
917.938	15561
918.049	15378
918.161	15488
918.272	15652
918.384	15496
918.495	15420
918.606	15336
918.717	15230
918.828	15359
918.939	15268
919.05	15146
919.161	15245
919.272	15062
919.383	15097
919.494	15260
919.604	15397
919.715	15252
919.826	15192
919.936	15294
920.047	15268
920.157	15237
920.267	15363
920.378	15252
920.488	15230
920.598	15359
920.708	15538
920.818	15374
920.928	15344
921.038	15507
921.148	15507
921.258	15112
921.368	15028
921.477	15013
921.587	15001
921.697	14849
921.806	14952
921.916	14765
922.025	14655
922.134	14590
922.244	14492
922.353	14617
922.462	14419
922.571	14389
922.68	14275
922.789	14221
922.898	14210
923.007	14172
923.116	14366
923.224	14187
923.333	14183
923.442	14100
923.55	14039
923.659	14031
923.767	14123
923.876	14050
923.984	14062
924.092	13967
924.201	13974
924.309	13993
924.417	13932
924.525	13830
924.633	13932
924.741	14758
924.849	13597
924.956	13788
925.064	13670
925.172	13567
925.279	13514
925.387	13636
925.494	13681
925.602	13605
925.709	13597
925.816	13441
925.924	13586
926.031	13594
926.138	13521
926.245	13628
926.352	13460
926.459	13636
926.566	13544
926.673	13419
926.779	13362
926.886	13285
926.993	13198
927.099	13175
927.206	13110
927.312	13053
927.419	13160
927.525	13031
927.631	13114
927.737	13099
927.843	13046
927.95	12913
928.056	12867
928.162	12886
928.267	13008
928.373	13518
928.479	12966
928.585	12776
928.69	12905
928.796	12920
928.901	12844
929.007	12677
929.112	12825
929.218	12810
929.323	12741
929.428	12559
929.533	12730
929.638	12646
929.743	12563
929.848	12700
929.953	12547
930.058	12483
930.163	12342
930.267	12311
930.372	12445
930.477	12315
930.581	12502
930.685	12471
930.79	12201
930.894	12304
930.998	12213
931.103	12258
931.207	11946
931.311	11916
931.415	11779
931.519	11585
931.623	11611
