Data from test_V78500241_2694.txt Node
Date: Fri Mar 25 16:00:27 CST 2022
User: usil
Spectrometer: V785-0024
Trigger mode: 0
Integration Time (sec): 4.000000E-1
Scans to average: 1
Nonlinearity correction enabled: false
Boxcar width: 0
Storing dark spectrum: false
XAxis mode: Wavelengths
Number of Pixels in Spectrum: 1024
>>>>>Begin Spectral Data<<<<<
801.071	28717
801.214	28892
801.356	28710
801.499	28577
801.641	28424
801.783	28497
801.926	28550
802.068	28375
802.211	28356
802.353	28299
802.496	28124
802.638	28135
802.78	28006
802.923	28036
803.065	27816
803.208	28090
803.35	27998
803.492	28261
803.635	28356
803.777	28162
803.919	28386
804.061	28596
804.204	28314
804.346	28253
804.488	28234
804.63	28295
804.773	28310
804.915	28318
805.057	28451
805.199	28371
805.341	28436
805.483	28421
805.626	28489
805.768	28306
805.91	28599
806.052	28466
806.194	28451
806.336	28717
806.478	28519
806.62	28561
806.762	28538
806.904	28729
807.046	29117
807.188	28854
807.33	29037
807.472	29136
807.614	29018
807.756	28900
807.898	28630
808.04	28778
808.182	28835
808.324	28847
808.465	28900
808.607	29075
808.749	29299
808.891	29356
809.033	29387
809.174	29250
809.316	29227
809.458	29231
809.6	29200
809.741	29235
809.883	29425
810.025	29509
810.166	29474
810.308	29596
810.45	29402
810.591	29330
810.733	29250
810.875	29273
811.016	29178
811.158	29204
811.299	29235
811.441	29364
811.582	29356
811.724	29227
811.865	29132
812.007	29265
812.148	29204
812.29	29250
812.431	29254
812.573	29509
812.714	29570
812.855	29627
812.997	29802
813.138	29862
813.279	29855
813.421	29695
813.562	29722
813.703	29528
813.845	29349
813.986	29216
814.127	28976
814.268	28904
814.41	28999
814.551	28942
814.692	28911
814.833	28831
814.974	28923
815.115	28904
815.256	28869
815.397	28683
815.539	28824
815.68	28828
815.821	28622
815.962	28740
816.103	28733
816.244	28592
816.385	28542
816.526	28497
816.666	28333
816.807	28268
816.948	28299
817.089	28303
817.23	28200
817.371	28246
817.512	28276
817.653	28306
817.793	28055
817.934	28147
818.075	28341
818.216	28280
818.356	28150
818.497	28196
818.638	27998
818.778	27972
818.919	28036
819.06	28048
819.2	28120
819.341	28139
819.481	28226
819.622	28516
819.762	28641
819.903	28432
820.043	28428
820.184	28478
820.324	28382
820.465	28550
820.605	28478
820.746	28459
820.886	28223
821.026	28337
821.167	28356
821.307	28546
821.447	28192
821.588	28200
821.728	28173
821.868	27800
822.008	27633
822.149	27800
822.289	27724
822.429	27473
822.569	27458
822.709	27370
822.849	27329
822.99	27340
823.13	27226
823.27	27131
823.41	27157
823.55	26975
823.69	27005
823.83	27077
823.97	27032
824.11	26975
824.25	26834
824.389	26895
824.529	26994
824.669	26864
824.809	27051
824.949	27009
825.089	27017
825.228	26963
825.368	26743
825.508	26701
825.648	26632
825.787	26659
825.927	26868
826.067	26674
826.206	26754
826.346	26796
826.485	26868
826.625	26712
826.765	26967
826.904	26727
827.044	26590
827.183	26579
827.323	26453
827.462	26522
827.601	26507
827.741	26442
827.88	26469
828.02	26374
828.159	26415
828.298	26530
828.437	26404
828.577	26290
828.716	26606
828.855	26374
828.994	26237
829.134	26187
829.273	26210
829.412	26237
829.551	26176
829.69	26244
829.829	26206
829.968	26248
830.107	26256
830.246	26145
830.385	26062
830.524	26161
830.663	26039
830.802	25928
830.941	25803
831.08	25685
831.219	25845
831.357	25963
831.496	26012
831.635	25852
831.774	25772
831.913	25635
832.051	25567
832.19	25487
832.329	25689
832.467	25476
832.606	25362
832.744	25289
832.883	25571
833.022	25400
833.16	25400
833.299	25575
833.437	25407
833.576	25582
833.714	25400
833.852	25529
833.991	25479
834.129	25662
834.267	25502
834.406	25434
834.544	25533
834.682	25441
834.821	25487
834.959	25548
835.097	25320
835.235	25582
835.373	25704
835.511	25677
835.65	25411
835.788	25327
835.926	25255
836.064	25145
836.202	25034
836.34	25255
836.478	25335
836.615	25392
836.753	25297
836.891	25441
837.029	25422
837.167	25293
837.305	25183
837.443	25289
837.58	25145
837.718	25251
837.856	25251
837.993	25057
838.131	25088
838.269	25019
838.406	25061
838.544	25023
838.681	24859
838.819	24696
838.956	24669
839.094	24620
839.231	24745
839.369	24829
839.506	24951
839.643	24871
839.781	24665
839.918	24445
840.055	24730
840.193	24574
840.33	24513
840.467	24608
840.604	24684
840.742	24810
840.879	24384
841.016	24448
841.153	24460
841.29	24688
841.427	24471
841.564	24525
841.701	24570
841.838	24490
841.975	24372
842.112	24372
842.249	24315
842.385	24296
842.522	24601
842.659	24471
842.796	24190
842.933	24315
843.069	24220
843.206	24152
843.343	24369
843.479	24338
843.616	24247
843.752	24057
843.889	24205
844.025	24190
844.162	23897
844.298	24102
844.435	24098
844.571	23961
844.708	24106
844.844	24235
844.98	24254
845.117	24095
845.253	23840
845.389	23931
845.525	23950
845.661	23882
845.798	23847
845.934	23809
846.07	23809
846.206	23699
846.342	23965
846.478	23623
846.614	23535
846.75	23520
846.886	23665
847.022	23596
847.158	23581
847.294	23608
847.429	23516
847.565	23372
847.701	23707
847.837	23189
847.972	23326
848.108	23326
848.244	23410
848.379	23189
848.515	23083
848.65	23121
848.786	23064
848.921	23067
849.057	23174
849.192	23239
849.328	23086
849.463	23102
849.598	23025
849.734	23094
849.869	23048
850.004	22782
850.14	22839
850.275	22930
850.41	22729
850.545	22683
850.68	22862
850.815	22835
850.95	22904
851.085	23121
851.22	23018
851.355	22930
851.49	22790
851.625	22854
851.76	22831
851.895	22877
852.03	22733
852.165	22847
852.299	22904
852.434	22930
852.569	23044
852.703	22839
852.838	22889
852.973	23075
853.107	22896
853.242	22793
853.376	22573
853.511	22493
853.645	22611
853.78	22873
853.914	22653
854.048	22675
854.183	22649
854.317	22744
854.451	22854
854.585	22641
854.72	22565
854.854	22740
854.988	22702
855.122	22733
855.256	22615
855.39	22615
855.524	22763
855.658	22763
855.792	22706
855.926	22782
856.06	22828
856.194	22771
856.327	22649
856.461	22653
856.595	22580
856.729	22500
856.862	22729
856.996	22694
857.13	22733
857.263	22744
857.397	22790
857.53	22675
857.664	22740
857.797	22805
857.931	22831
858.064	22713
858.197	22755
858.331	22721
858.464	22588
858.597	22611
858.731	22618
858.864	22573
858.997	22569
859.13	22683
859.263	22618
859.396	22759
859.529	22580
859.662	22592
859.795	22675
859.928	22725
860.061	22847
860.194	22816
860.327	22702
860.46	22675
860.592	22790
860.725	22919
860.858	22660
860.99	22717
861.123	22481
861.256	22645
861.388	22615
861.521	23376
861.653	22485
861.786	22459
861.918	22531
862.05	22573
862.183	22626
862.315	22577
862.447	22675
862.58	22645
862.712	22485
862.844	22341
862.976	22504
863.108	22455
863.24	22725
863.372	22303
863.504	22314
863.636	22402
863.768	22379
863.9	22382
864.032	22470
864.164	22394
864.296	22417
864.428	22447
864.559	22310
864.691	22428
864.823	22398
864.954	22276
865.086	22287
865.217	22348
865.349	22196
865.48	22291
865.612	22325
865.743	22382
865.875	22192
866.006	22204
866.137	22200
866.269	22398
866.4	22234
866.531	22226
866.662	22272
866.793	22219
866.924	22211
867.055	22306
867.186	22246
867.317	22173
867.448	22097
867.579	22230
867.71	22188
867.841	22093
867.972	22128
868.103	22078
868.233	22200
868.364	22177
868.495	22272
868.625	22352
868.756	22569
868.886	22306
869.017	22375
869.147	22436
869.278	22519
869.408	22379
869.539	22573
869.669	22573
869.799	22485
869.929	22561
870.06	22527
870.19	22793
870.32	22763
870.45	22759
870.58	22782
870.71	22843
870.84	22862
870.97	23010
871.1	22869
871.23	22953
871.36	23067
871.489	22927
871.619	22965
871.749	22957
871.879	22923
872.008	23071
872.138	22991
872.267	23090
872.397	22991
872.526	22930
872.656	22824
872.785	22816
872.915	23075
873.044	23151
873.173	23155
873.303	22976
873.432	23151
873.561	23220
873.69	23121
873.819	22930
873.948	23178
874.077	23105
874.206	22980
874.335	23041
874.464	23231
874.593	23303
874.722	23261
874.851	23258
874.979	23220
875.108	23376
875.237	23318
875.365	23174
875.494	23261
875.623	23193
875.751	23128
875.88	23231
876.008	23334
876.136	23398
876.265	23691
876.393	23802
876.521	23691
876.65	23737
876.778	23604
876.906	23581
877.034	23592
877.162	23646
877.29	23562
877.418	23630
877.546	23436
877.674	23608
877.802	23703
877.93	23668
878.058	23581
878.185	23395
878.313	23596
878.441	23520
878.568	23284
878.696	23414
878.824	23589
878.951	23756
879.079	23577
879.206	23824
879.333	23737
879.461	23600
879.588	23623
879.715	23843
879.842	23840
879.97	23661
880.097	23497
880.224	23463
880.351	23505
880.478	23334
880.605	23280
880.732	23326
880.859	23596
880.986	23356
881.112	23322
881.239	23311
881.366	23159
881.493	23067
881.619	22965
881.746	22965
881.872	22946
881.999	22809
882.125	22991
882.252	23041
882.378	22991
882.505	22999
882.631	22744
882.757	22778
882.883	22721
883.01	22584
883.136	22588
883.262	22577
883.388	22550
883.514	22554
883.64	22691
883.766	22493
883.892	22402
884.018	22493
884.143	22599
884.269	22519
884.395	22363
884.52	22268
884.646	22257
884.772	22268
884.897	22185
885.023	22230
885.148	22325
885.274	22508
885.399	22382
885.524	22200
885.65	22306
885.775	22246
885.9	22242
886.025	22489
886.15	22356
886.275	22234
886.4	22280
886.525	22306
886.65	22265
886.775	22265
886.9	22390
887.025	22432
887.149	22341
887.274	22025
887.399	22166
887.523	22109
887.648	22032
887.773	21895
887.897	22070
888.021	22097
888.146	21949
888.27	22067
888.395	22025
888.519	22063
888.643	21983
888.767	22093
888.891	21934
889.015	21751
889.139	21842
889.263	21854
889.387	21922
889.511	22048
889.635	21937
889.759	21827
889.883	21789
890.006	21739
890.13	21778
890.254	21770
890.377	21762
890.501	21526
890.624	21523
890.748	21622
890.871	21332
890.995	21507
891.118	21256
891.241	21283
891.364	21363
891.488	21530
891.611	21431
891.734	21408
891.857	21420
891.98	21382
892.103	21359
892.226	21393
892.349	21355
892.471	21108
892.594	21249
892.717	21260
892.839	21195
892.962	21211
893.085	21325
893.207	21207
893.33	21051
893.452	21180
893.575	21260
893.697	21135
893.819	21405
893.941	21496
894.064	21386
894.186	21230
894.308	21146
894.43	21336
894.552	21329
894.674	21298
894.796	21093
894.918	21256
895.04	21214
895.161	21291
895.283	21260
895.405	21077
895.526	21211
895.648	21332
895.769	21176
895.891	21306
896.012	21348
896.134	21321
896.255	21199
896.376	21214
896.498	21150
896.619	21233
896.74	21157
896.861	21157
896.982	21424
897.103	21606
897.224	21557
897.345	21374
897.466	21306
897.587	21469
897.708	21572
897.828	21412
897.949	21389
898.07	21317
898.19	21310
898.311	21477
898.431	21294
898.552	21408
898.672	21542
898.792	21526
898.913	21462
899.033	21275
899.153	21104
899.273	21096
899.393	21291
899.513	21203
899.633	21157
899.753	21192
899.873	21074
899.993	21119
900.113	21157
900.232	21169
900.352	21089
900.472	20956
900.591	20956
900.711	21039
900.83	20918
900.95	20998
901.069	20944
901.189	20785
901.308	20735
901.427	20594
901.546	20575
901.665	20454
901.784	20503
901.904	20396
902.023	20252
902.141	20031
902.26	20088
902.379	20157
902.498	20020
902.617	19902
902.735	20027
902.854	19894
902.973	19871
903.091	19529
903.21	19700
903.328	19628
903.446	19472
903.565	19403
903.683	19426
903.801	19270
903.919	19278
904.038	19335
904.156	19198
904.274	19266
904.392	19244
904.51	19133
904.627	19217
904.745	19152
904.863	19198
904.981	19053
905.098	18837
905.216	18844
905.334	18966
905.451	18924
905.569	18787
905.686	18837
905.803	18909
905.921	18719
906.038	18730
906.155	18673
906.272	18513
906.389	18551
906.506	18410
906.623	18448
906.74	18372
906.857	18270
906.974	18292
907.091	18525
907.208	18528
907.324	18380
907.441	18273
907.557	18190
907.674	18148
907.79	18053
907.907	18087
908.023	18114
908.139	18057
908.256	18053
908.372	17965
908.488	17996
908.604	17847
908.72	17756
908.836	17813
908.952	17668
909.068	17920
909.184	17897
909.3	17790
909.415	17817
909.531	17718
909.647	17558
909.762	17448
909.878	17440
909.993	17463
910.108	17425
910.224	17452
910.339	17512
910.454	17391
910.57	17372
910.685	17174
910.8	17558
910.915	17463
911.03	17284
911.145	17132
911.259	17037
911.374	17109
911.489	16991
911.604	16873
911.718	16866
911.833	16862
911.947	16748
912.062	16615
912.176	16866
912.291	16828
912.405	16816
912.519	17064
912.633	17006
912.748	16896
912.862	16816
912.976	16584
913.09	16493
913.204	16675
913.318	16592
913.431	16668
913.545	16660
913.659	16744
913.772	16500
913.886	16436
914	16436
914.113	16550
914.226	16379
914.34	16497
914.453	16310
914.566	16440
914.68	16276
914.793	16207
914.906	16082
915.019	16093
915.132	15895
915.245	15953
915.358	16139
915.47	16017
915.583	15991
915.696	15975
915.809	16128
915.921	16082
916.034	15903
916.146	15831
916.259	15842
916.371	15816
916.483	16071
916.595	15743
916.708	15785
916.82	15785
916.932	15888
917.044	15724
917.156	15766
917.268	15679
917.38	15671
917.491	15538
917.603	15641
917.715	15682
917.826	15652
917.938	15447
918.049	15462
918.161	15443
918.272	15709
918.384	15595
918.495	15553
918.606	15401
918.717	15351
918.828	15447
918.939	15386
919.05	15275
919.161	15420
919.272	15222
919.383	15138
919.494	15313
919.604	15477
919.715	15302
919.826	15207
919.936	15291
920.047	15488
920.157	15359
920.267	15580
920.378	15313
920.488	15367
920.598	15454
920.708	15488
920.818	15389
920.928	15416
921.038	15584
921.148	15530
921.258	15268
921.368	15123
921.477	14986
921.587	15058
921.697	14849
921.806	15081
921.916	14918
922.025	14823
922.134	14648
922.244	14602
922.353	14708
922.462	14522
922.571	14381
922.68	14381
922.789	14206
922.898	14317
923.007	14252
923.116	14294
923.224	14252
923.333	14153
923.442	14046
923.55	14069
923.659	14062
923.767	14161
923.876	14134
923.984	14126
924.092	13967
924.201	14069
924.309	14039
924.417	13970
924.525	13963
924.633	14039
924.741	14777
924.849	13727
924.956	13868
925.064	13712
925.172	13563
925.279	13742
925.387	13723
925.494	13655
925.602	13852
925.709	13814
925.816	13609
925.924	13620
926.031	13620
926.138	13556
926.245	13632
926.352	13441
926.459	13548
926.566	13693
926.673	13499
926.779	13411
926.886	13308
926.993	13202
927.099	13179
927.206	13149
927.312	13160
927.419	13236
927.525	13293
927.631	13160
927.737	13099
927.843	13114
927.95	12935
928.056	12947
928.162	12981
928.267	13031
928.373	13643
928.479	13069
928.585	12871
928.69	12993
928.796	12977
928.901	12844
929.007	12654
929.112	12871
929.218	12753
929.323	12738
929.428	12738
929.533	12814
929.638	12597
929.743	12620
929.848	12639
929.953	12650
930.058	12517
930.163	12323
930.267	12467
930.372	12513
930.477	12304
930.581	12566
930.685	12372
930.79	12262
930.894	12190
930.998	12319
931.103	12350
931.207	11958
931.311	11984
931.415	11809
931.519	11600
931.623	11619
