Data from test_V78500241_42.txt Node
Date: Fri Mar 25 15:42:05 CST 2022
User: usil
Spectrometer: V785-0024
Trigger mode: 0
Integration Time (sec): 4.000000E-1
Scans to average: 1
Nonlinearity correction enabled: false
Boxcar width: 0
Storing dark spectrum: false
XAxis mode: Wavelengths
Number of Pixels in Spectrum: 1024
>>>>>Begin Spectral Data<<<<<
801.071	28679
801.214	28417
801.356	28196
801.499	28158
801.641	27975
801.783	27914
801.926	28048
802.068	28036
802.211	27880
802.353	27774
802.496	27652
802.638	27660
802.78	27614
802.923	27599
803.065	27462
803.208	27507
803.35	27618
803.492	27667
803.635	27701
803.777	27606
803.919	27880
804.061	28048
804.204	27724
804.346	27549
804.488	27587
804.63	27477
804.773	27500
804.915	27622
805.057	27903
805.199	27656
805.341	27774
805.483	27751
805.626	27759
805.768	27774
805.91	27739
806.052	27804
806.194	27652
806.336	27903
806.478	27827
806.62	27641
806.762	27861
806.904	27914
807.046	28109
807.188	28192
807.33	28128
807.472	28131
807.614	28025
807.756	28036
807.898	27873
808.04	27869
808.182	27831
808.324	27838
808.465	27934
808.607	27930
808.749	28109
808.891	28234
809.033	28421
809.174	28196
809.316	28204
809.458	28090
809.6	28173
809.741	28173
809.883	28299
810.025	28417
810.166	28428
810.308	28565
810.45	28314
810.591	28265
810.733	28280
810.875	27979
811.016	27934
811.158	27892
811.299	28105
811.441	28261
811.582	28196
811.724	28181
811.865	28010
812.007	27998
812.148	28044
812.29	28093
812.431	28249
812.573	28280
812.714	28455
812.855	28592
812.997	28569
813.138	28774
813.279	28580
813.421	28584
813.562	28470
813.703	28356
813.845	28185
813.986	27918
814.127	27751
814.268	27644
814.41	27675
814.551	27587
814.692	27762
814.833	27610
814.974	27549
815.115	27610
815.256	27374
815.397	27412
815.539	27485
815.68	27374
815.821	27283
815.962	27359
816.103	27310
816.244	27260
816.385	27039
816.526	27062
816.666	26758
816.807	26872
816.948	26830
817.089	26876
817.23	26773
817.371	26693
817.512	26785
817.653	26682
817.793	26640
817.934	26655
818.075	26606
818.216	26598
818.356	26727
818.497	26385
818.638	26385
818.778	26351
818.919	26313
819.06	26507
819.2	26632
819.341	26583
819.481	26560
819.622	26678
819.762	26921
819.903	26849
820.043	26678
820.184	26602
820.324	26655
820.465	26781
820.605	26651
820.746	26811
820.886	26423
821.026	26594
821.167	26568
821.307	26762
821.447	26621
821.588	26442
821.728	26275
821.868	26263
822.008	26008
822.149	26031
822.289	26092
822.429	25803
822.569	25719
822.709	25632
822.849	25495
822.99	25556
823.13	25407
823.27	25407
823.41	25316
823.55	25175
823.69	25209
823.83	25171
823.97	25183
824.11	24943
824.25	25103
824.389	25148
824.529	25126
824.669	24992
824.809	25179
824.949	25088
825.089	25126
825.228	25088
825.368	24821
825.508	24791
825.648	24798
825.787	25008
825.927	24791
826.067	24772
826.206	24787
826.346	24886
826.485	24814
826.625	24711
826.765	25019
826.904	24821
827.044	24471
827.183	24509
827.323	24384
827.462	24437
827.601	24448
827.741	24456
827.88	24445
828.02	24311
828.159	24395
828.298	24479
828.437	24563
828.577	24330
828.716	24536
828.855	24346
828.994	24148
829.134	24064
829.273	24098
829.412	24034
829.551	24026
829.69	24159
829.829	24163
829.968	24140
830.107	24186
830.246	24026
830.385	24068
830.524	23965
830.663	23904
830.802	23722
830.941	23634
831.08	23516
831.219	23798
831.357	23718
831.496	23889
831.635	23691
831.774	23604
831.913	23486
832.051	23334
832.19	23299
832.329	23459
832.467	23395
832.606	23178
832.744	23143
832.883	23391
833.022	23128
833.16	23185
833.299	23216
833.437	23231
833.576	23356
833.714	23235
833.852	23349
833.991	23322
834.129	23368
834.267	23303
834.406	23223
834.544	23334
834.682	23258
834.821	23162
834.959	23387
835.097	23261
835.235	23387
835.373	23204
835.511	23231
835.65	23174
835.788	23124
835.926	22877
836.064	22923
836.202	22862
836.34	23018
836.478	23121
836.615	23052
836.753	23067
836.891	23075
837.029	23022
837.167	22965
837.305	23006
837.443	22991
837.58	22930
837.718	23010
837.856	22995
837.993	22748
838.131	22824
838.269	22744
838.406	22767
838.544	22740
838.681	22455
838.819	22424
838.956	22440
839.094	22341
839.231	22531
839.369	22592
839.506	22717
839.643	22440
839.781	22291
839.918	22211
840.055	22280
840.193	22344
840.33	22162
840.467	22226
840.604	22287
840.742	22398
840.879	22082
841.016	22109
841.153	22013
841.29	22284
841.427	22173
841.564	22207
841.701	22188
841.838	22173
841.975	22006
842.112	22143
842.249	22040
842.385	21960
842.522	22158
842.659	22055
842.796	21994
842.933	21888
843.069	21800
843.206	21850
843.343	22040
843.479	21964
843.616	21789
843.752	21671
843.889	21759
844.025	21736
844.162	21583
844.298	21698
844.435	21652
844.571	21526
844.708	21720
844.844	21739
844.98	21629
845.117	21717
845.253	21473
845.389	21416
845.525	21469
845.661	21458
845.798	21291
845.934	21340
846.07	21313
846.206	21405
846.342	21488
846.478	21294
846.614	21119
846.75	20880
846.886	21047
847.022	21222
847.158	21032
847.294	21062
847.429	21123
847.565	21058
847.701	21287
847.837	20575
847.972	20773
848.108	20941
848.244	20655
848.379	20670
848.515	20670
848.65	20530
848.786	20689
848.921	20648
849.057	20800
849.192	20537
849.328	20541
849.463	20374
849.598	20617
849.734	20556
849.869	20560
850.004	20434
850.14	20355
850.275	20343
850.41	20294
850.545	20377
850.68	20294
850.815	20305
850.95	20271
851.085	20423
851.22	20454
851.355	20343
851.49	20271
851.625	20290
851.76	20267
851.895	20202
852.03	20164
852.165	20351
852.299	20275
852.434	20374
852.569	20339
852.703	20248
852.838	20320
852.973	20347
853.107	20336
853.242	20225
853.376	20172
853.511	20069
853.645	20073
853.78	20267
853.914	20157
854.048	19970
854.183	20092
854.317	20149
854.451	20256
854.585	20153
854.72	20145
854.854	20187
854.988	20069
855.122	20142
855.256	19989
855.39	20088
855.524	20187
855.658	20161
855.792	19974
855.926	20252
856.06	20115
856.194	20237
856.327	20126
856.461	20096
856.595	19974
856.729	20126
856.862	20202
856.996	20134
857.13	20199
857.263	20126
857.397	20054
857.53	20062
857.664	20172
857.797	20248
857.931	20229
858.064	20077
858.197	20202
858.331	20111
858.464	19932
858.597	19890
858.731	20092
858.864	20126
858.997	19997
859.13	19955
859.263	20039
859.396	20172
859.529	19940
859.662	20065
859.795	20088
859.928	20084
860.061	20069
860.194	20142
860.327	20012
860.46	19932
860.592	20016
860.725	20199
860.858	20084
860.99	19963
861.123	19875
861.256	19902
861.388	19997
861.521	20556
861.653	19864
861.786	19860
861.918	19837
862.05	20020
862.183	20005
862.315	20077
862.447	20069
862.58	20130
862.712	19947
862.844	19807
862.976	19765
863.108	19780
863.24	20077
863.372	19677
863.504	19814
863.636	19719
863.768	19750
863.9	19643
864.032	19537
864.164	19693
864.296	19723
864.428	19826
864.559	19738
864.691	19955
864.823	19772
864.954	19662
865.086	19772
865.217	19628
865.349	19616
865.48	19639
865.612	19559
865.743	19788
865.875	19639
866.006	19575
866.137	19556
866.269	19521
866.4	19567
866.531	19620
866.662	19552
866.793	19548
866.924	19628
867.055	19567
867.186	19506
867.317	19464
867.448	19464
867.579	19521
867.71	19480
867.841	19388
867.972	19616
868.103	19480
868.233	19540
868.364	19643
868.495	19655
868.625	19769
868.756	19993
868.886	19575
869.017	19784
869.147	19833
869.278	19921
869.408	19894
869.539	19788
869.669	19925
869.799	19784
869.929	19928
870.06	19852
870.19	19963
870.32	20046
870.45	20153
870.58	20138
870.71	20313
870.84	20320
870.97	20187
871.1	20199
871.23	20381
871.36	20442
871.489	20275
871.619	20366
871.749	20278
871.879	20427
872.008	20431
872.138	20351
872.267	20469
872.397	20381
872.526	20187
872.656	20237
872.785	20149
872.915	20396
873.044	20499
873.173	20393
873.303	20408
873.432	20522
873.561	20423
873.69	20408
873.819	20396
873.948	20492
874.077	20454
874.206	20419
874.335	20275
874.464	20545
874.593	20746
874.722	20556
874.851	20765
874.979	20678
875.108	20754
875.237	20629
875.365	20598
875.494	20648
875.623	20720
875.751	20640
875.88	20606
876.008	20792
876.136	20925
876.265	21043
876.393	21256
876.521	21241
876.65	21150
876.778	21020
876.906	21112
877.034	20994
877.162	21058
877.29	21028
877.418	21005
877.546	21066
877.674	21032
877.802	21047
877.93	20960
878.058	21024
878.185	20872
878.313	20963
878.441	20933
878.568	20819
878.696	20960
878.824	21093
878.951	21146
879.079	21123
879.206	21283
879.333	21207
879.461	21089
879.588	21100
879.715	21207
879.842	21420
879.97	21108
880.097	20887
880.224	20880
880.351	20876
880.478	20864
880.605	20750
880.732	20853
880.859	21062
880.986	20815
881.112	20967
881.239	20743
881.366	20560
881.493	20499
881.619	20438
881.746	20495
881.872	20518
881.999	20484
882.125	20370
882.252	20480
882.378	20431
882.505	20526
882.631	20476
882.757	20294
882.883	20305
883.01	20347
883.136	20122
883.262	20172
883.388	19921
883.514	20218
883.64	20259
883.766	20096
883.892	19906
884.018	19940
884.143	20233
884.269	20168
884.395	19970
884.52	19898
884.646	19970
884.772	19868
884.897	19849
885.023	19887
885.148	19982
885.274	19917
885.399	19974
885.524	19917
885.65	19822
885.775	19757
885.9	19826
886.025	19871
886.15	19917
886.275	19742
886.4	19723
886.525	19799
886.65	19757
886.775	19742
886.9	19951
887.025	20046
887.149	19860
887.274	19624
887.399	19533
887.523	19571
887.648	19438
887.773	19510
887.897	19594
888.021	19681
888.146	19491
888.27	19632
888.395	19708
888.519	19525
888.643	19708
888.767	19616
888.891	19502
889.015	19434
889.139	19499
889.263	19320
889.387	19506
889.511	19586
889.635	19411
889.759	19362
889.883	19384
890.006	19407
890.13	19407
890.254	19274
890.377	19419
890.501	19194
890.624	19072
890.748	19171
890.871	19076
890.995	18977
891.118	18970
891.241	19042
891.364	19000
891.488	19110
891.611	19065
891.734	18962
891.857	19065
891.98	18947
892.103	19038
892.226	19069
892.349	18901
892.471	18715
892.594	18863
892.717	18996
892.839	18916
892.962	18981
893.085	19046
893.207	18852
893.33	18814
893.452	18863
893.575	18943
893.697	18871
893.819	19148
893.941	19088
894.064	19088
894.186	18863
894.308	18840
894.43	19038
894.552	19069
894.674	19118
894.796	18817
894.918	19080
895.04	18856
895.161	19084
895.283	18973
895.405	18886
895.526	18954
895.648	18909
895.769	19038
895.891	18973
896.012	19042
896.134	18993
896.255	19031
896.376	18901
896.498	19095
896.619	19095
896.74	18996
896.861	19225
896.982	19392
897.103	19582
897.224	19339
897.345	19346
897.466	19301
897.587	19274
897.708	19339
897.828	19247
897.949	19175
898.07	19110
898.19	19164
898.311	19297
898.431	19198
898.552	19316
898.672	19137
898.792	19400
898.913	19206
899.033	19038
899.153	19050
899.273	18863
899.393	19004
899.513	19053
899.633	18909
899.753	18859
899.873	18878
899.993	18966
900.113	18935
900.232	18954
900.352	18856
900.472	18783
900.591	18726
900.711	18768
900.83	18722
900.95	18939
901.069	18848
901.189	18703
901.308	18452
901.427	18456
901.546	18289
901.665	18300
901.784	18353
901.904	18311
902.023	18167
902.141	17969
902.26	17977
902.379	17984
902.498	17935
902.617	17889
902.735	17885
902.854	17798
902.973	17794
903.091	17558
903.21	17585
903.328	17463
903.446	17512
903.565	17356
903.683	17364
903.801	17220
903.919	17296
904.038	17284
904.156	17159
904.274	17235
904.392	17109
904.51	17159
904.627	17136
904.745	17189
904.863	17178
904.981	16892
905.098	16809
905.216	16713
905.334	16771
905.451	16862
905.569	16618
905.686	16919
905.803	16812
905.921	16641
906.038	16622
906.155	16603
906.272	16527
906.389	16462
906.506	16356
906.623	16386
906.74	16265
906.857	16131
906.974	16185
907.091	16352
907.208	16405
907.324	16299
907.441	16150
907.557	16006
907.674	15937
907.79	15945
907.907	16044
908.023	16063
908.139	15926
908.256	15899
908.372	15819
908.488	15835
908.604	15804
908.72	15667
908.836	15682
908.952	15641
909.068	15751
909.184	15686
909.3	15762
909.415	15690
909.531	15690
909.647	15458
909.762	15389
909.878	15397
909.993	15447
910.108	15397
910.224	15344
910.339	15336
910.454	15344
910.57	15154
910.685	15135
910.8	15447
910.915	15416
911.03	15245
911.145	15017
911.259	15013
911.374	14941
911.489	14967
911.604	14910
911.718	14739
911.833	14785
911.947	14705
912.062	14583
912.176	14769
912.291	14762
912.405	14800
912.519	14986
912.633	14956
912.748	14724
912.862	14686
912.976	14438
913.09	14469
913.204	14571
913.318	14575
913.431	14701
913.545	14629
913.659	14629
913.772	14438
913.886	14400
914	14317
914.113	14446
914.226	14541
914.34	14339
914.453	14210
914.566	14370
914.68	14271
914.793	14320
914.906	13967
915.019	14001
915.132	13879
915.245	14058
915.358	14062
915.47	14054
915.583	14043
915.696	14084
915.809	14157
915.921	14138
916.034	13970
916.146	13940
916.259	13936
916.371	13925
916.483	13928
916.595	13788
916.708	13841
916.82	13883
916.932	13822
917.044	13864
917.156	13738
917.268	13795
917.38	13788
917.491	13696
917.603	13681
917.715	13769
917.826	13757
917.938	13616
918.049	13567
918.161	13643
918.272	13795
918.384	13738
918.495	13658
918.606	13529
918.717	13415
918.828	13518
918.939	13480
919.05	13365
919.161	13373
919.272	13304
919.383	13369
919.494	13441
919.604	13776
919.715	13460
919.826	13339
919.936	13411
920.047	13449
920.157	13491
920.267	13590
920.378	13381
920.488	13441
920.598	13578
920.708	13719
920.818	13582
920.928	13514
921.038	13651
921.148	13655
921.258	13373
921.368	13293
921.477	13244
921.587	13168
921.697	13008
921.806	13156
921.916	13080
922.025	12810
922.134	12894
922.244	12760
922.353	12913
922.462	12719
922.571	12601
922.68	12536
922.789	12483
922.898	12502
923.007	12437
923.116	12540
923.224	12460
923.333	12395
923.442	12327
923.55	12239
923.659	12334
923.767	12414
923.876	12239
923.984	12361
924.092	12247
924.201	12228
924.309	12235
924.417	12209
924.525	12186
924.633	12197
924.741	13095
924.849	11904
924.956	12140
925.064	12049
925.172	11878
925.279	11931
925.387	11935
925.494	11965
925.602	12049
925.709	11996
925.816	11855
925.924	11847
926.031	11992
926.138	11931
926.245	11958
926.352	11775
926.459	11912
926.566	11927
926.673	11897
926.779	11718
926.886	11809
926.993	11634
927.099	11585
927.206	11516
927.312	11547
927.419	11653
927.525	11551
927.631	11600
927.737	11505
927.843	11360
927.95	11269
928.056	11387
928.162	11417
928.267	11448
928.373	12045
928.479	11509
928.585	11143
928.69	11341
928.796	11341
928.901	11273
929.007	11124
929.112	11296
929.218	11166
929.323	11189
929.428	11143
929.533	11212
929.638	11113
929.743	11185
929.848	11071
929.953	11109
930.058	10957
930.163	10831
930.267	10805
930.372	10927
930.477	10793
930.581	11010
930.685	10797
930.79	10672
930.894	10786
930.998	10687
931.103	10835
931.207	10489
931.311	10325
931.415	10287
931.519	10086
931.623	10090
