Data from test_V78500241_2567.txt Node
Date: Fri Mar 25 15:59:34 CST 2022
User: usil
Spectrometer: V785-0024
Trigger mode: 0
Integration Time (sec): 4.000000E-1
Scans to average: 1
Nonlinearity correction enabled: false
Boxcar width: 0
Storing dark spectrum: false
XAxis mode: Wavelengths
Number of Pixels in Spectrum: 1024
>>>>>Begin Spectral Data<<<<<
801.071	28835
801.214	28881
801.356	28531
801.499	28417
801.641	28318
801.783	28394
801.926	28417
802.068	28409
802.211	28367
802.353	28329
802.496	28158
802.638	28109
802.78	27991
802.923	28082
803.065	28013
803.208	27895
803.35	27964
803.492	28318
803.635	28147
803.777	28249
803.919	28268
804.061	28580
804.204	28352
804.346	28310
804.488	28242
804.63	28333
804.773	28310
804.915	28375
805.057	28455
805.199	28421
805.341	28428
805.483	28470
805.626	28596
805.768	28299
805.91	28493
806.052	28493
806.194	28466
806.336	28744
806.478	28455
806.62	28554
806.762	28523
806.904	28904
807.046	29048
807.188	28892
807.33	28923
807.472	29109
807.614	28854
807.756	28949
807.898	28881
808.04	28778
808.182	28790
808.324	28835
808.465	28911
808.607	29166
808.749	29220
808.891	29296
809.033	29433
809.174	29193
809.316	29200
809.458	29166
809.6	29307
809.741	29155
809.883	29337
810.025	29417
810.166	29471
810.308	29543
810.45	29349
810.591	29448
810.733	29132
810.875	29102
811.016	29090
811.158	29121
811.299	29288
811.441	29318
811.582	29212
811.724	29159
811.865	29159
812.007	29277
812.148	29254
812.29	29220
812.431	29356
812.573	29402
812.714	29714
812.855	29843
812.997	29866
813.138	29961
813.279	29813
813.421	29764
813.562	29691
813.703	29573
813.845	29501
813.986	29284
814.127	29048
814.268	29041
814.41	28930
814.551	28957
814.692	28965
814.833	28919
814.974	28812
815.115	28896
815.256	28664
815.397	28797
815.539	28953
815.68	28596
815.821	28786
815.962	28774
816.103	28736
816.244	28523
816.385	28489
816.526	28519
816.666	28462
816.807	28181
816.948	28318
817.089	28268
817.23	28234
817.371	28242
817.512	28306
817.653	28204
817.793	28223
817.934	28090
818.075	28253
818.216	28265
818.356	28306
818.497	28173
818.638	27914
818.778	28036
818.919	28013
819.06	28101
819.2	28230
819.341	28257
819.481	28261
819.622	28303
819.762	28577
819.903	28550
820.043	28417
820.184	28360
820.324	28401
820.465	28424
820.605	28348
820.746	28291
820.886	28341
821.026	28360
821.167	28344
821.307	28478
821.447	28310
821.588	28112
821.728	28082
821.868	27960
822.008	27762
822.149	27743
822.289	27709
822.429	27382
822.569	27435
822.709	27447
822.849	27222
822.99	27230
823.13	27138
823.27	27268
823.41	27195
823.55	26925
823.69	26948
823.83	26967
823.97	26944
824.11	26792
824.25	26823
824.389	26880
824.529	26971
824.669	26864
824.809	26944
824.949	26963
825.089	26914
825.228	26940
825.368	26716
825.508	26739
825.648	26746
825.787	26731
825.927	26883
826.067	26800
826.206	26796
826.346	26861
826.485	26925
826.625	26876
826.765	26735
826.904	26750
827.044	26533
827.183	26495
827.323	26389
827.462	26537
827.601	26530
827.741	26499
827.88	26476
828.02	26339
828.159	26320
828.298	26453
828.437	26465
828.577	26423
828.716	26602
828.855	26244
828.994	26199
829.134	26248
829.273	26286
829.412	26145
829.551	26153
829.69	26065
829.829	26180
829.968	26282
830.107	26229
830.246	26081
830.385	26054
830.524	26050
830.663	25902
830.802	25925
830.941	25890
831.08	25864
831.219	25803
831.357	25860
831.496	25997
831.635	25864
831.774	25750
831.913	25651
832.051	25685
832.19	25563
832.329	25575
832.467	25434
832.606	25339
832.744	25487
832.883	25491
833.022	25320
833.16	25499
833.299	25544
833.437	25563
833.576	25464
833.714	25403
833.852	25613
833.991	25628
834.129	25613
834.267	25685
834.406	25533
834.544	25567
834.682	25540
834.821	25441
834.959	25715
835.097	25457
835.235	25491
835.373	25445
835.511	25529
835.65	25331
835.788	25426
835.926	25190
836.064	25274
836.202	25034
836.34	25411
836.478	25468
836.615	25358
836.753	25491
836.891	25304
837.029	25251
837.167	25247
837.305	25244
837.443	25171
837.58	25160
837.718	25209
837.856	25198
837.993	25190
838.131	25175
838.269	24989
838.406	25061
838.544	24890
838.681	24719
838.819	24772
838.956	24540
839.094	24540
839.231	24692
839.369	24806
839.506	25027
839.643	24863
839.781	24692
839.918	24673
840.055	24677
840.193	24559
840.33	24433
840.467	24654
840.604	24627
840.742	24863
840.879	24448
841.016	24456
841.153	24327
841.29	24604
841.427	24601
841.564	24570
841.701	24483
841.838	24433
841.975	24445
842.112	24464
842.249	24308
842.385	24224
842.522	24658
842.659	24357
842.796	24232
842.933	24209
843.069	24228
843.206	24213
843.343	24247
843.479	24232
843.616	24224
843.752	24171
843.889	24159
844.025	24353
844.162	24095
844.298	24232
844.435	24148
844.571	24102
844.708	24095
844.844	24213
844.98	24243
845.117	24171
845.253	24022
845.389	24064
845.525	23931
845.661	23965
845.798	23935
845.934	23832
846.07	23798
846.206	23874
846.342	23824
846.478	23748
846.614	23672
846.75	23512
846.886	23592
847.022	23585
847.158	23630
847.294	23551
847.429	23619
847.565	23463
847.701	23672
847.837	23193
847.972	23124
848.108	23406
848.244	23417
848.379	23181
848.515	23094
848.65	23025
848.786	23064
848.921	23067
849.057	23223
849.192	23136
849.328	23181
849.463	23083
849.598	22999
849.734	22892
849.869	22873
850.004	22820
850.14	22847
850.275	22835
850.41	22683
850.545	22877
850.68	22759
850.815	22877
850.95	22839
851.085	22987
851.22	22953
851.355	22877
851.49	22721
851.625	22927
851.76	22831
851.895	22774
852.03	22858
852.165	22915
852.299	22904
852.434	22915
852.569	22930
852.703	22965
852.838	22961
852.973	23052
853.107	22957
853.242	22790
853.376	22790
853.511	22584
853.645	22531
853.78	22835
853.914	22584
854.048	22626
854.183	22672
854.317	22721
854.451	22877
854.585	22725
854.72	22618
854.854	22854
854.988	22599
855.122	22774
855.256	22451
855.39	22649
855.524	22721
855.658	22755
855.792	22702
855.926	22672
856.06	22672
856.194	22755
856.327	22759
856.461	22603
856.595	22649
856.729	22736
856.862	22744
856.996	22710
857.13	22675
857.263	22797
857.397	22858
857.53	22679
857.664	22733
857.797	22828
857.931	22866
858.064	22656
858.197	22668
858.331	22668
858.464	22660
858.597	22557
858.731	22554
858.864	22569
858.997	22691
859.13	22607
859.263	22740
859.396	22774
859.529	22542
859.662	22694
859.795	22683
859.928	22694
860.061	22786
860.194	22866
860.327	22763
860.46	22725
860.592	22725
860.725	22835
860.858	22755
860.99	22653
861.123	22687
861.256	22649
861.388	22710
861.521	23353
861.653	22573
861.786	22421
861.918	22508
862.05	22443
862.183	22573
862.315	22672
862.447	22630
862.58	22565
862.712	22280
862.844	22382
862.976	22462
863.108	22535
863.24	22843
863.372	22341
863.504	22356
863.636	22436
863.768	22451
863.9	22398
864.032	22352
864.164	22295
864.296	22310
864.428	22440
864.559	22398
864.691	22455
864.823	22314
864.954	22394
865.086	22325
865.217	22341
865.349	22177
865.48	22101
865.612	22306
865.743	22272
865.875	22268
866.006	22101
866.137	22310
866.269	22303
866.4	22188
866.531	22097
866.662	22219
866.793	22135
866.924	22188
867.055	22280
867.186	22128
867.317	22124
867.448	22101
867.579	22013
867.71	22116
867.841	22109
867.972	22181
868.103	22025
868.233	22211
868.364	22154
868.495	22371
868.625	22481
868.756	22546
868.886	22470
869.017	22443
869.147	22455
869.278	22626
869.408	22402
869.539	22443
869.669	22421
869.799	22596
869.929	22478
870.06	22478
870.19	22767
870.32	22721
870.45	22660
870.58	22881
870.71	22991
870.84	22995
870.97	22687
871.1	22729
871.23	23064
871.36	23033
871.489	22915
871.619	23018
871.749	23052
871.879	23052
872.008	23067
872.138	23022
872.267	23124
872.397	22820
872.526	22889
872.656	22854
872.785	23033
872.915	23113
873.044	23083
873.173	23037
873.303	23003
873.432	23052
873.561	23208
873.69	22999
873.819	23014
873.948	23075
874.077	22987
874.206	22938
874.335	22995
874.464	23079
874.593	23269
874.722	23128
874.851	23258
874.979	23341
875.108	23326
875.237	23200
875.365	23048
875.494	23159
875.623	23448
875.751	23231
875.88	23372
876.008	23410
876.136	23433
876.265	23604
876.393	23722
876.521	23741
876.65	23592
876.778	23695
876.906	23497
877.034	23653
877.162	23566
877.29	23497
877.418	23619
877.546	23615
877.674	23554
877.802	23516
877.93	23539
878.058	23573
878.185	23429
878.313	23490
878.441	23562
878.568	23353
878.696	23558
878.824	23554
878.951	23668
879.079	23756
879.206	23805
879.333	23714
879.461	23516
879.588	23490
879.715	23775
879.842	23828
879.97	23790
880.097	23474
880.224	23398
880.351	23512
880.478	23478
880.605	23421
880.732	23398
880.859	23566
880.986	23406
881.112	23436
881.239	23376
881.366	23159
881.493	23071
881.619	22934
881.746	22892
881.872	23052
881.999	22961
882.125	22816
882.252	22934
882.378	22839
882.505	22949
882.631	22854
882.757	22717
882.883	22740
883.01	22767
883.136	22626
883.262	22516
883.388	22325
883.514	22573
883.64	22683
883.766	22550
883.892	22557
884.018	22485
884.143	22512
884.269	22672
884.395	22284
884.52	22238
884.646	22337
884.772	22185
884.897	22192
885.023	22246
885.148	22417
885.274	22443
885.399	22413
885.524	22428
885.65	22344
885.775	22356
885.9	22261
886.025	22371
886.15	22325
886.275	22261
886.4	22154
886.525	22265
886.65	22223
886.775	22291
886.9	22329
887.025	22584
887.149	22238
887.274	22139
887.399	22120
887.523	22025
887.648	21937
887.773	21953
887.897	22059
888.021	22067
888.146	22010
888.27	22055
888.395	22150
888.519	22051
888.643	22063
888.767	22154
888.891	21934
889.015	21930
889.139	21937
889.263	21778
889.387	21930
889.511	21983
889.635	21934
889.759	21937
889.883	21778
890.006	21857
890.13	22013
890.254	21797
890.377	21823
890.501	21511
890.624	21614
890.748	21625
890.871	21393
890.995	21370
891.118	21405
891.241	21401
891.364	21325
891.488	21481
891.611	21401
891.734	21431
891.857	21469
891.98	21374
892.103	21340
892.226	21382
892.349	21348
892.471	21070
892.594	21294
892.717	21188
892.839	21203
892.962	21298
893.085	21233
893.207	21222
893.33	21173
893.452	21237
893.575	21268
893.697	21275
893.819	21359
893.941	21393
894.064	21355
894.186	21100
894.308	21150
894.43	21378
894.552	21370
894.674	21302
894.796	21093
894.918	21108
895.04	21233
895.161	21412
895.283	21317
895.405	21222
895.526	21241
895.648	21119
895.769	21306
895.891	21241
896.012	21245
896.134	21112
896.255	21306
896.376	21306
896.498	21249
896.619	21256
896.74	21298
896.861	21378
896.982	21545
897.103	21564
897.224	21450
897.345	21466
897.466	21340
897.587	21386
897.708	21523
897.828	21370
897.949	21424
898.07	21203
898.19	21351
898.311	21511
898.431	21424
898.552	21519
898.672	21511
898.792	21416
898.913	21382
899.033	21268
899.153	21233
899.273	21036
899.393	21100
899.513	21142
899.633	21108
899.753	21275
899.873	21104
899.993	21138
900.113	21089
900.232	21218
900.352	21154
900.472	20948
900.591	20925
900.711	20902
900.83	20895
900.95	20956
901.069	21001
901.189	20830
901.308	20636
901.427	20423
901.546	20450
901.665	20446
901.784	20541
901.904	20313
902.023	20263
902.141	20107
902.26	20073
902.379	20020
902.498	20024
902.617	20031
902.735	20027
902.854	19963
902.973	19997
903.091	19575
903.21	19586
903.328	19632
903.446	19506
903.565	19453
903.683	19499
903.801	19411
903.919	19308
904.038	19335
904.156	19251
904.274	19308
904.392	19148
904.51	19072
904.627	19160
904.745	19179
904.863	19198
904.981	19034
905.098	18924
905.216	18848
905.334	18840
905.451	18894
905.569	18776
905.686	18791
905.803	18840
905.921	18681
906.038	18673
906.155	18700
906.272	18536
906.389	18593
906.506	18433
906.623	18403
906.74	18433
906.857	18190
906.974	18338
907.091	18403
907.208	18585
907.324	18464
907.441	18296
907.557	18106
907.674	18022
907.79	17954
907.907	18133
908.023	18087
908.139	18079
908.256	18041
908.372	17954
908.488	17946
908.604	17977
908.72	17756
908.836	17748
908.952	17722
909.068	17786
909.184	17847
909.3	17783
909.415	17813
909.531	17748
909.647	17467
909.762	17543
909.878	17490
909.993	17524
910.108	17490
910.224	17452
910.339	17493
910.454	17406
910.57	17246
910.685	17265
910.8	17512
910.915	17440
911.03	17303
911.145	17067
911.259	17010
911.374	17216
911.489	17025
911.604	16949
911.718	16782
911.833	16763
911.947	16847
912.062	16683
912.176	16774
912.291	16778
912.405	16771
912.519	16908
912.633	16987
912.748	16881
912.862	16691
912.976	16618
913.09	16630
913.204	16538
913.318	16561
913.431	16660
913.545	16618
913.659	16717
913.772	16489
913.886	16516
914	16382
914.113	16527
914.226	16455
914.34	16489
914.453	16303
914.566	16333
914.68	16356
914.793	16291
914.906	16040
915.019	15918
915.132	16013
915.245	15991
915.358	16040
915.47	16040
915.583	16010
915.696	15953
915.809	16131
915.921	16173
916.034	15903
916.146	15873
916.259	15797
916.371	15907
916.483	15899
916.595	15797
916.708	15812
916.82	15774
916.932	15743
917.044	15606
917.156	15759
917.268	15542
917.38	15545
917.491	15595
917.603	15675
917.715	15667
917.826	15785
917.938	15515
918.049	15378
918.161	15515
918.272	15663
918.384	15679
918.495	15538
918.606	15420
918.717	15237
918.828	15306
918.939	15405
919.05	15283
919.161	15378
919.272	15131
919.383	15146
919.494	15340
919.604	15614
919.715	15397
919.826	15184
919.936	15241
920.047	15367
920.157	15249
920.267	15549
920.378	15256
920.488	15272
920.598	15428
920.708	15606
920.818	15378
920.928	15397
921.038	15561
921.148	15572
921.258	15275
921.368	15104
921.477	14948
921.587	14979
921.697	14929
921.806	14986
921.916	15009
922.025	14731
922.134	14697
922.244	14454
922.353	14667
922.462	14636
922.571	14446
922.68	14336
922.789	14271
922.898	14377
923.007	14259
923.116	14324
923.224	14347
923.333	14180
923.442	14164
923.55	14065
923.659	14069
923.767	14172
923.876	14123
923.984	14126
924.092	13940
924.201	14077
924.309	13970
924.417	13936
924.525	13947
924.633	13982
924.741	14853
924.849	13731
924.956	13902
925.064	13609
925.172	13636
925.279	13689
925.387	13712
925.494	13662
925.602	13791
925.709	13647
925.816	13540
925.924	13582
926.031	13700
926.138	13552
926.245	13651
926.352	13525
926.459	13647
926.566	13712
926.673	13506
926.779	13468
926.886	13441
926.993	13244
927.099	13145
927.206	13206
927.312	13103
927.419	13301
927.525	13160
927.631	13152
927.737	13118
927.843	12985
927.95	12985
928.056	12985
928.162	13061
928.267	13019
928.373	13651
928.479	13091
928.585	12837
928.69	12913
928.796	13080
928.901	12795
929.007	12715
929.112	12821
929.218	12817
929.323	12684
929.428	12658
929.533	12791
929.638	12688
929.743	12734
929.848	12578
929.953	12677
930.058	12620
930.163	12388
930.267	12330
930.372	12593
930.477	12334
930.581	12574
930.685	12490
930.79	12273
930.894	12254
930.998	12182
931.103	12342
931.207	12022
931.311	11965
931.415	11878
931.519	11589
931.623	11630
