Data from test_V78500241_875.txt Node
Date: Fri Mar 25 15:47:51 CST 2022
User: usil
Spectrometer: V785-0024
Trigger mode: 0
Integration Time (sec): 4.000000E-1
Scans to average: 1
Nonlinearity correction enabled: false
Boxcar width: 0
Storing dark spectrum: false
XAxis mode: Wavelengths
Number of Pixels in Spectrum: 1024
>>>>>Begin Spectral Data<<<<<
801.071	27709
801.214	27667
801.356	27648
801.499	27416
801.641	27272
801.783	27405
801.926	27447
802.068	27412
802.211	27226
802.353	27203
802.496	27096
802.638	26902
802.78	26853
802.923	26872
803.065	26975
803.208	27039
803.35	27070
803.492	26986
803.635	27211
803.777	27077
803.919	27112
804.061	27382
804.204	27298
804.346	27154
804.488	27127
804.63	27032
804.773	27081
804.915	27195
805.057	27336
805.199	27085
805.341	27249
805.483	27481
805.626	27363
805.768	27291
805.91	27298
806.052	27507
806.194	27313
806.336	27660
806.478	27359
806.62	27279
806.762	27538
806.904	27686
807.046	27808
807.188	27732
807.33	27850
807.472	27743
807.614	27701
807.756	27648
807.898	27625
808.04	27603
808.182	27511
808.324	27542
808.465	27553
808.607	27808
808.749	27907
808.891	28124
809.033	28139
809.174	28029
809.316	27895
809.458	27949
809.6	27857
809.741	28109
809.883	28074
810.025	28325
810.166	28257
810.308	28295
810.45	28139
810.591	28109
810.733	27884
810.875	28040
811.016	27739
811.158	27972
811.299	27998
811.441	28154
811.582	28116
811.724	27994
811.865	28116
812.007	27918
812.148	27911
812.29	28055
812.431	28234
812.573	28394
812.714	28401
812.855	28295
812.997	28588
813.138	28725
813.279	28535
813.421	28451
813.562	28542
813.703	28474
813.845	28284
813.986	27998
814.127	27732
814.268	27580
814.41	27663
814.551	27679
814.692	27648
814.833	27759
814.974	27671
815.115	27694
815.256	27382
815.397	27507
815.539	27496
815.68	27416
815.821	27424
815.962	27492
816.103	27458
816.244	27302
816.385	27119
816.526	27203
816.666	27093
816.807	26975
816.948	27001
817.089	27203
817.23	27062
817.371	26925
817.512	26929
817.653	26864
817.793	26807
817.934	26971
818.075	26948
818.216	26864
818.356	26933
818.497	26838
818.638	26629
818.778	26693
818.919	26674
819.06	26765
819.2	26788
819.341	26975
819.481	26910
819.622	27108
819.762	27279
819.903	27222
820.043	27100
820.184	27199
820.324	27032
820.465	27051
820.605	27066
820.746	27100
820.886	27013
821.026	27096
821.167	26986
821.307	27028
821.447	26971
821.588	26887
821.728	26750
821.868	26659
822.008	26453
822.149	26492
822.289	26377
822.429	26263
822.569	26111
822.709	26088
822.849	25887
822.99	25864
823.13	25860
823.27	25917
823.41	25727
823.55	25635
823.69	25852
823.83	25750
823.97	25594
824.11	25495
824.25	25563
824.389	25586
824.529	25670
824.669	25620
824.809	25670
824.949	25628
825.089	25727
825.228	25586
825.368	25407
825.508	25464
825.648	25506
825.787	25476
825.927	25434
826.067	25312
826.206	25460
826.346	25537
826.485	25578
826.625	25438
826.765	25556
826.904	25468
827.044	25160
827.183	25209
827.323	25118
827.462	25228
827.601	25164
827.741	25179
827.88	25156
828.02	25069
828.159	25069
828.298	25152
828.437	25168
828.577	25084
828.716	25225
828.855	25171
828.994	24871
829.134	24935
829.273	24810
829.412	24844
829.551	24833
829.69	24783
829.829	24730
829.968	24840
830.107	24939
830.246	24745
830.385	24795
830.524	24623
830.663	24601
830.802	24635
830.941	24559
831.08	24483
831.219	24505
831.357	24597
831.496	24753
831.635	24369
831.774	24300
831.913	24311
832.051	24270
832.19	24285
832.329	24342
832.467	24308
832.606	24182
832.744	24190
832.883	24190
833.022	24095
833.16	24167
833.299	24167
833.437	24285
833.576	24216
833.714	24148
833.852	24281
833.991	24213
834.129	24213
834.267	24247
834.406	24213
834.544	24300
834.682	24239
834.821	24163
834.959	24251
835.097	24182
835.235	24159
835.373	24178
835.511	24186
835.65	24148
835.788	24053
835.926	23988
836.064	23786
836.202	23908
836.34	24003
836.478	24114
836.615	23904
836.753	24034
836.891	24190
837.029	24057
837.167	24038
837.305	23935
837.443	23817
837.58	23961
837.718	23824
837.856	23855
837.993	23703
838.131	23828
838.269	23646
838.406	23722
838.544	23646
838.681	23535
838.819	23509
838.956	23349
839.094	23425
839.231	23341
839.369	23531
839.506	23718
839.643	23653
839.781	23326
839.918	23345
840.055	23311
840.193	23162
840.33	23258
840.467	23299
840.604	23299
840.742	23573
840.879	23136
841.016	23273
841.153	23178
841.29	23425
841.427	23105
841.564	23227
841.701	23318
841.838	23174
841.975	23109
842.112	23181
842.249	22972
842.385	22965
842.522	23155
842.659	22972
842.796	22991
842.933	23090
843.069	22892
843.206	22923
843.343	23166
843.479	22946
843.616	22980
843.752	22835
843.889	22759
844.025	22820
844.162	22702
844.298	22839
844.435	22702
844.571	22797
844.708	22797
844.844	22816
844.98	22824
845.117	22759
845.253	22710
845.389	22573
845.525	22710
845.661	22706
845.798	22527
845.934	22683
846.07	22516
846.206	22588
846.342	22607
846.478	22508
846.614	22284
846.75	22234
846.886	22154
847.022	22158
847.158	22226
847.294	22196
847.429	22265
847.565	22048
847.701	22500
847.837	21926
847.972	22021
848.108	22017
848.244	22010
848.379	21926
848.515	21827
848.65	21941
848.786	21865
848.921	21857
849.057	21956
849.192	21956
849.328	21827
849.463	21747
849.598	21637
849.734	21728
849.869	21587
850.004	21564
850.14	21622
850.275	21644
850.41	21500
850.545	21572
850.68	21534
850.815	21583
850.95	21526
851.085	21838
851.22	21781
851.355	21587
851.49	21500
851.625	21504
851.76	21595
851.895	21534
852.03	21431
852.165	21507
852.299	21629
852.434	21751
852.569	21591
852.703	21572
852.838	21671
852.973	21755
853.107	21606
853.242	21504
853.376	21374
853.511	21241
853.645	21401
853.78	21660
853.914	21378
854.048	21412
854.183	21313
854.317	21321
854.451	21496
854.585	21370
854.72	21428
854.854	21473
854.988	21317
855.122	21462
855.256	21256
855.39	21374
855.524	21439
855.658	21504
855.792	21302
855.926	21382
856.06	21538
856.194	21477
856.327	21443
856.461	21329
856.595	21306
856.729	21416
856.862	21599
856.996	21401
857.13	21367
857.263	21454
857.397	21454
857.53	21340
857.664	21367
857.797	21469
857.931	21545
858.064	21378
858.197	21603
858.331	21363
858.464	21325
858.597	21298
858.731	21272
858.864	21374
858.997	21348
859.13	21340
859.263	21408
859.396	21526
859.529	21450
859.662	21401
859.795	21245
859.928	21477
860.061	21633
860.194	21587
860.327	21469
860.46	21481
860.592	21534
860.725	21526
860.858	21572
860.99	21386
861.123	21321
861.256	21332
861.388	21412
861.521	22207
861.653	21287
861.786	21195
861.918	21272
862.05	21317
862.183	21332
862.315	21393
862.447	21382
862.58	21291
862.712	21123
862.844	21146
862.976	21222
863.108	21176
863.24	21568
863.372	21123
863.504	21157
863.636	21131
863.768	21176
863.9	21161
864.032	20963
864.164	21032
864.296	21264
864.428	21256
864.559	21116
864.691	21207
864.823	21146
864.954	21024
865.086	21074
865.217	21180
865.349	20971
865.48	21009
865.612	21077
865.743	21180
865.875	21100
866.006	20902
866.137	21062
866.269	21104
866.4	20906
866.531	20918
866.662	21005
866.793	20899
866.924	20963
867.055	20994
867.186	21039
867.317	20941
867.448	20979
867.579	20929
867.71	20899
867.841	20743
867.972	20918
868.103	20979
868.233	20800
868.364	21028
868.495	21131
868.625	21150
868.756	21306
868.886	21169
869.017	21142
869.147	21325
869.278	21344
869.408	21218
869.539	21199
869.669	21233
869.799	21279
869.929	21310
870.06	21230
870.19	21447
870.32	21397
870.45	21492
870.58	21606
870.71	21671
870.84	21675
870.97	21538
871.1	21576
871.23	21686
871.36	21876
871.489	21698
871.619	21739
871.749	21865
871.879	21876
872.008	21876
872.138	21751
872.267	21774
872.397	21675
872.526	21572
872.656	21603
872.785	21542
872.915	21888
873.044	21991
873.173	21895
873.303	21835
873.432	21808
873.561	21876
873.69	21736
873.819	21770
873.948	21846
874.077	21842
874.206	21831
874.335	21755
874.464	21903
874.593	22040
874.722	21930
874.851	22147
874.979	21979
875.108	22154
875.237	21991
875.365	21983
875.494	22048
875.623	22124
875.751	22010
875.88	21937
876.008	22124
876.136	22192
876.265	22538
876.393	22592
876.521	22344
876.65	22527
876.778	22535
876.906	22299
877.034	22375
877.162	22409
877.29	22265
877.418	22257
877.546	22341
877.674	22306
877.802	22405
877.93	22394
878.058	22299
878.185	22299
878.313	22421
878.441	22390
878.568	22348
878.696	22421
878.824	22451
878.951	22417
879.079	22485
879.206	22713
879.333	22557
879.461	22379
879.588	22466
879.715	22596
879.842	22535
879.97	22371
880.097	22120
880.224	22207
880.351	22287
880.478	22318
880.605	22207
880.732	22181
880.859	22413
880.986	22310
881.112	22261
881.239	22093
881.366	21941
881.493	21819
881.619	21751
881.746	21766
881.872	21739
881.999	21682
882.125	21709
882.252	21888
882.378	21770
882.505	21804
882.631	21686
882.757	21469
882.883	21557
883.01	21492
883.136	21500
883.262	21317
883.388	21294
883.514	21557
883.64	21507
883.766	21370
883.892	21317
884.018	21260
884.143	21420
884.269	21507
884.395	21070
884.52	21093
884.646	21055
884.772	21081
884.897	21039
885.023	21081
885.148	21237
885.274	21272
885.399	21222
885.524	21089
885.65	21256
885.775	21036
885.9	21146
886.025	21260
886.15	21218
886.275	21062
886.4	21047
886.525	20986
886.65	21104
886.775	21074
886.9	21241
887.025	21291
887.149	21077
887.274	20971
887.399	20872
887.523	20941
887.648	20785
887.773	20762
887.897	20937
888.021	20925
888.146	20921
888.27	21161
888.395	20921
888.519	20929
888.643	20758
888.767	20811
888.891	20781
889.015	20636
889.139	20724
889.263	20640
889.387	20762
889.511	20883
889.635	20785
889.759	20686
889.883	20564
890.006	20682
890.13	20765
890.254	20644
890.377	20636
890.501	20473
890.624	20347
890.748	20526
890.871	20305
890.995	20271
891.118	20077
891.241	20298
891.364	20225
891.488	20393
891.611	20267
891.734	20328
891.857	20355
891.98	20240
892.103	20294
892.226	20180
892.349	20282
892.471	19982
892.594	20218
892.717	20119
892.839	20088
892.962	20183
893.085	20237
893.207	20111
893.33	20043
893.452	20069
893.575	20172
893.697	20134
893.819	20259
893.941	20404
894.064	20271
894.186	20180
894.308	20046
894.43	20149
894.552	20332
894.674	20164
894.796	20035
894.918	20073
895.04	20161
895.161	20187
895.283	20221
895.405	20168
895.526	20050
895.648	20020
895.769	20077
895.891	20229
896.012	20240
896.134	20252
896.255	20164
896.376	20046
896.498	20134
896.619	20130
896.74	20202
896.861	20115
896.982	20507
897.103	20514
897.224	20457
897.345	20389
897.466	20320
897.587	20454
897.708	20476
897.828	20396
897.949	20309
898.07	20328
898.19	20218
898.311	20412
898.431	20324
898.552	20309
898.672	20438
898.792	20412
898.913	20374
899.033	20248
899.153	20191
899.273	20001
899.393	20046
899.513	20100
899.633	20081
899.753	20237
899.873	20020
899.993	20119
900.113	19989
900.232	20157
900.352	19963
900.472	19982
900.591	19883
900.711	20027
900.83	19830
900.95	20027
901.069	19940
901.189	19681
901.308	19632
901.427	19480
901.546	19586
901.665	19487
901.784	19533
901.904	19316
902.023	19202
902.141	19023
902.26	18932
902.379	19091
902.498	18970
902.617	18993
902.735	19065
902.854	18966
902.973	18867
903.091	18703
903.21	18665
903.328	18559
903.446	18608
903.565	18486
903.683	18566
903.801	18391
903.919	18517
904.038	18460
904.156	18224
904.274	18266
904.392	18148
904.51	18129
904.627	18334
904.745	18308
904.863	18304
904.981	18011
905.098	17824
905.216	17988
905.334	18038
905.451	17859
905.569	17851
905.686	17878
905.803	17942
905.921	17638
906.038	17942
906.155	17649
906.272	17665
906.389	17676
906.506	17334
906.623	17448
906.74	17455
906.857	17368
906.974	17410
907.091	17471
907.208	17539
907.324	17360
907.441	17334
907.557	17185
907.674	17265
907.79	17124
907.907	17170
908.023	17121
908.139	17204
908.256	17071
908.372	16957
908.488	17003
908.604	16942
908.72	16923
908.836	16908
908.952	16877
909.068	16904
909.184	17052
909.3	16991
909.415	16934
909.531	16835
909.647	16634
909.762	16527
909.878	16546
909.993	16474
910.108	16622
910.224	16622
910.339	16577
910.454	16398
910.57	16356
910.685	16276
910.8	16542
910.915	16531
911.03	16238
911.145	16287
911.259	16196
911.374	16090
911.489	15987
911.604	16048
911.718	15880
911.833	15915
911.947	15846
912.062	15743
912.176	15857
912.291	15816
912.405	15907
912.519	16040
912.633	16002
912.748	15960
912.862	15903
912.976	15800
913.09	15545
913.204	15656
913.318	15751
913.431	15869
913.545	15819
913.659	15812
913.772	15587
913.886	15568
914	15507
914.113	15549
914.226	15667
914.34	15576
914.453	15462
914.566	15618
914.68	15564
914.793	15332
914.906	15233
915.019	15112
915.132	15119
915.245	15131
915.358	15116
915.47	15218
915.583	15226
915.696	15214
915.809	15256
915.921	15313
916.034	15081
916.146	15020
916.259	15039
916.371	15203
916.483	15119
916.595	15005
916.708	14948
916.82	14941
916.932	14960
917.044	14906
917.156	14937
917.268	14750
917.38	14895
917.491	14864
917.603	14792
917.715	14788
917.826	14925
917.938	14765
918.049	14598
918.161	14838
918.272	14929
918.384	14823
918.495	14765
918.606	14655
918.717	14511
918.828	14621
918.939	14629
919.05	14518
919.161	14503
919.272	14366
919.383	14324
919.494	14590
919.604	14724
919.715	14594
919.826	14480
919.936	14495
920.047	14552
920.157	14530
920.267	14731
920.378	14610
920.488	14476
920.598	14811
920.708	14891
920.818	14678
920.928	14610
921.038	14853
921.148	14750
921.258	14545
921.368	14457
921.477	14286
921.587	14252
921.697	14168
921.806	14355
921.916	14180
922.025	13997
922.134	14024
922.244	13856
922.353	13989
922.462	13860
922.571	13765
922.68	13628
922.789	13567
922.898	13651
923.007	13457
923.116	13628
923.224	13506
923.333	13521
923.442	13396
923.55	13384
923.659	13350
923.767	13468
923.876	13365
923.984	13415
924.092	13339
924.201	13373
924.309	13327
924.417	13324
924.525	13251
924.633	13278
924.741	14153
924.849	13088
924.956	13187
925.064	12962
925.172	12962
925.279	13053
925.387	13091
925.494	13023
925.602	13133
925.709	13076
925.816	12856
925.924	12958
926.031	13107
926.138	12939
926.245	13046
926.352	12787
926.459	12947
926.566	13088
926.673	12875
926.779	12779
926.886	12673
926.993	12540
927.099	12559
927.206	12506
927.312	12536
927.419	12570
927.525	12570
927.631	12631
927.737	12467
927.843	12426
927.95	12273
928.056	12350
928.162	12369
928.267	12460
928.373	13023
928.479	12441
928.585	12167
928.69	12296
928.796	12369
928.901	12258
929.007	12125
929.112	12258
929.218	12201
929.323	12129
929.428	12155
929.533	12266
929.638	12060
929.743	12079
929.848	12087
929.953	12072
930.058	12049
930.163	11836
930.267	11805
930.372	11999
930.477	11821
930.581	12038
930.685	11809
930.79	11771
930.894	11699
930.998	11611
931.103	11935
931.207	11493
931.311	11372
931.415	11299
931.519	11090
931.623	10991
