Data from test_V78500241_2063.txt Node
Date: Fri Mar 25 15:56:05 CST 2022
User: usil
Spectrometer: V785-0024
Trigger mode: 0
Integration Time (sec): 4.000000E-1
Scans to average: 1
Nonlinearity correction enabled: false
Boxcar width: 0
Storing dark spectrum: false
XAxis mode: Wavelengths
Number of Pixels in Spectrum: 1024
>>>>>Begin Spectral Data<<<<<
801.071	29018
801.214	28858
801.356	28675
801.499	28717
801.641	28531
801.783	28500
801.926	28668
802.068	28565
802.211	28443
802.353	28459
802.496	28341
802.638	28135
802.78	28101
802.923	28002
803.065	28055
803.208	28265
803.35	28348
803.492	28443
803.635	28443
803.777	28466
803.919	28481
804.061	28828
804.204	28542
804.346	28379
804.488	28405
804.63	28592
804.773	28462
804.915	28489
805.057	28687
805.199	28546
805.341	28618
805.483	28793
805.626	28675
805.768	28516
805.91	28607
806.052	28725
806.194	28607
806.336	28820
806.478	28630
806.62	28668
806.762	28767
806.904	29048
807.046	29223
807.188	29269
807.33	29239
807.472	29075
807.614	29155
807.756	29067
807.898	28957
808.04	29022
808.182	28953
808.324	28938
808.465	28908
808.607	29223
808.749	29383
808.891	29505
809.033	29512
809.174	29265
809.316	29322
809.458	29368
809.6	29417
809.741	29577
809.883	29459
810.025	29691
810.166	29558
810.308	29722
810.45	29687
810.591	29608
810.733	29410
810.875	29299
811.016	29261
811.158	29315
811.299	29406
811.441	29497
811.582	29429
811.724	29486
811.865	29379
812.007	29410
812.148	29444
812.29	29471
812.431	29623
812.573	29592
812.714	29775
812.855	30015
812.997	30034
813.138	30155
813.279	30022
813.421	29977
813.562	29862
813.703	29703
813.845	29703
813.986	29341
814.127	29128
814.268	29155
814.41	29147
814.551	29022
814.692	29052
814.833	29132
814.974	29041
815.115	29239
815.256	29086
815.397	28991
815.539	28923
815.68	28923
815.821	28847
815.962	28858
816.103	28869
816.244	28831
816.385	28733
816.526	28820
816.666	28500
816.807	28443
816.948	28508
817.089	28603
817.23	28325
817.371	28401
817.512	28322
817.653	28318
817.793	28352
817.934	28390
818.075	28451
818.216	28367
818.356	28303
818.497	28360
818.638	28112
818.778	28162
818.919	28242
819.06	28284
819.2	28295
819.341	28455
819.481	28466
819.622	28691
819.762	28763
819.903	28622
820.043	28649
820.184	28557
820.324	28592
820.465	28561
820.605	28683
820.746	28455
820.886	28390
821.026	28462
821.167	28500
821.307	28538
821.447	28538
821.588	28401
821.728	28356
821.868	28021
822.008	28010
822.149	27884
822.289	27888
822.429	27694
822.569	27618
822.709	27713
822.849	27549
822.99	27500
823.13	27488
823.27	27469
823.41	27252
823.55	27036
823.69	27325
823.83	27203
823.97	27188
824.11	26933
824.25	27074
824.389	27047
824.529	27119
824.669	27066
824.809	27188
824.949	27150
825.089	27241
825.228	27214
825.368	27043
825.508	26952
825.648	26891
825.787	26925
825.927	27089
826.067	26971
826.206	26845
826.346	27127
826.485	26971
826.625	26796
826.765	27070
826.904	26918
827.044	26705
827.183	26648
827.323	26708
827.462	26762
827.601	26648
827.741	26552
827.88	26621
828.02	26530
828.159	26648
828.298	26670
828.437	26655
828.577	26651
828.716	26735
828.855	26469
828.994	26450
829.134	26442
829.273	26549
829.412	26233
829.551	26320
829.69	26393
829.829	26221
829.968	26499
830.107	26442
830.246	26442
830.385	26389
830.524	26180
830.663	26324
830.802	26077
830.941	26020
831.08	25978
831.219	25944
831.357	26073
831.496	26172
831.635	25978
831.774	25856
831.913	25883
832.051	25807
832.19	25830
832.329	25723
832.467	25662
832.606	25616
832.744	25655
832.883	25594
833.022	25559
833.16	25681
833.299	25590
833.437	25655
833.576	25849
833.714	25719
833.852	25632
833.991	25746
834.129	25803
834.267	25757
834.406	25552
834.544	25708
834.682	25674
834.821	25635
834.959	25799
835.097	25677
835.235	25647
835.373	25712
835.511	25670
835.65	25468
835.788	25388
835.926	25403
836.064	25293
836.202	25331
836.34	25472
836.478	25548
836.615	25438
836.753	25453
836.891	25502
837.029	25464
837.167	25415
837.305	25407
837.443	25369
837.58	25274
837.718	25457
837.856	25400
837.993	25266
838.131	25438
838.269	25354
838.406	25247
838.544	25335
838.681	25034
838.819	24992
838.956	24829
839.094	24768
839.231	24840
839.369	24947
839.506	25202
839.643	25088
839.781	24764
839.918	24604
840.055	24882
840.193	24833
840.33	24677
840.467	24692
840.604	24798
840.742	24981
840.879	24475
841.016	24448
841.153	24498
841.29	24837
841.427	24620
841.564	24650
841.701	24650
841.838	24688
841.975	24589
842.112	24620
842.249	24555
842.385	24498
842.522	24635
842.659	24566
842.796	24509
842.933	24505
843.069	24330
843.206	24433
843.343	24509
843.479	24426
843.616	24445
843.752	24201
843.889	24220
844.025	24262
844.162	24182
844.298	24296
844.435	24319
844.571	24292
844.708	24273
844.844	24369
844.98	24395
845.117	24254
845.253	24209
845.389	24034
845.525	24098
845.661	24076
845.798	23901
845.934	24003
846.07	23893
846.206	23939
846.342	24087
846.478	23920
846.614	23687
846.75	23646
846.886	23676
847.022	23836
847.158	23646
847.294	23722
847.429	23722
847.565	23680
847.701	23851
847.837	23364
847.972	23471
848.108	23414
848.244	23516
848.379	23322
848.515	23402
848.65	23284
848.786	23239
848.921	23288
849.057	23315
849.192	23204
849.328	23387
849.463	23208
849.598	23303
849.734	23113
849.869	23132
850.004	23041
850.14	23117
850.275	23014
850.41	22839
850.545	22938
850.68	22930
850.815	23155
850.95	22965
851.085	23231
851.22	23185
851.355	23102
851.49	23060
851.625	23124
851.76	22999
851.895	22904
852.03	22961
852.165	23143
852.299	22972
852.434	23033
852.569	23041
852.703	22991
852.838	23025
852.973	23105
853.107	23197
853.242	22904
853.376	22934
853.511	22752
853.645	22873
853.78	22900
853.914	22930
854.048	22835
854.183	22809
854.317	23014
854.451	23124
854.585	22710
854.72	22877
854.854	22934
854.988	22812
855.122	22831
855.256	22717
855.39	22858
855.524	22889
855.658	22919
855.792	22835
855.926	22850
856.06	22961
856.194	22934
856.327	22774
856.461	22763
856.595	22809
856.729	22744
856.862	23033
856.996	22778
857.13	22889
857.263	23056
857.397	22957
857.53	22828
857.664	22812
857.797	22881
857.931	22896
858.064	22892
858.197	23048
858.331	22904
858.464	22759
858.597	22683
858.731	22858
858.864	22778
858.997	22778
859.13	22847
859.263	22809
859.396	22881
859.529	22843
859.662	22748
859.795	22790
859.928	22786
860.061	23060
860.194	23090
860.327	22820
860.46	22934
860.592	23041
860.725	22942
860.858	22927
860.99	22923
861.123	22801
861.256	22797
861.388	22812
861.521	23387
861.653	22713
861.786	22497
861.918	22622
862.05	22687
862.183	22782
862.315	22706
862.447	22816
862.58	22626
862.712	22531
862.844	22535
862.976	22725
863.108	22527
863.24	23044
863.372	22436
863.504	22588
863.636	22577
863.768	22516
863.9	22443
864.032	22470
864.164	22417
864.296	22535
864.428	22603
864.559	22672
864.691	22493
864.823	22550
864.954	22474
865.086	22485
865.217	22512
865.349	22299
865.48	22405
865.612	22405
865.743	22466
865.875	22428
866.006	22398
866.137	22306
866.269	22405
866.4	22413
866.531	22352
866.662	22421
866.793	22352
866.924	22390
867.055	22451
867.186	22421
867.317	22306
867.448	22272
867.579	22398
867.71	22204
867.841	22310
867.972	22318
868.103	22215
868.233	22291
868.364	22242
868.495	22367
868.625	22451
868.756	22641
868.886	22531
869.017	22497
869.147	22713
869.278	22755
869.408	22580
869.539	22474
869.669	22637
869.799	22645
869.929	22702
870.06	22649
870.19	22820
870.32	22706
870.45	22919
870.58	22831
870.71	23056
870.84	23064
870.97	23041
871.1	22953
871.23	23216
871.36	23124
871.489	23113
871.619	23014
871.749	23117
871.879	23227
872.008	23223
872.138	23147
872.267	23220
872.397	22991
872.526	23094
872.656	23033
872.785	22965
872.915	23128
873.044	23280
873.173	23216
873.303	23166
873.432	23258
873.561	23337
873.69	23083
873.819	23193
873.948	23277
874.077	23159
874.206	23197
874.335	23155
874.464	23345
874.593	23459
874.722	23395
874.851	23486
874.979	23493
875.108	23398
875.237	23383
875.365	23265
875.494	23368
875.623	23414
875.751	23376
875.88	23406
876.008	23524
876.136	23459
876.265	23684
876.393	23828
876.521	23824
876.65	23863
876.778	23870
876.906	23771
877.034	23707
877.162	23794
877.29	23615
877.418	23729
877.546	23790
877.674	23566
877.802	23687
877.93	23733
878.058	23684
878.185	23577
878.313	23676
878.441	23638
878.568	23516
878.696	23767
878.824	23737
878.951	23859
879.079	23942
879.206	24072
879.333	23973
879.461	23767
879.588	23885
879.715	23931
879.842	24015
879.97	23760
880.097	23516
880.224	23676
880.351	23592
880.478	23581
880.605	23649
880.732	23429
880.859	23596
880.986	23509
881.112	23592
881.239	23436
881.366	23326
881.493	23086
881.619	23128
881.746	23159
881.872	23235
881.999	23155
882.125	23071
882.252	23204
882.378	23010
882.505	23136
882.631	22972
882.757	22786
882.883	22885
883.01	22752
883.136	22656
883.262	22577
883.388	22588
883.514	22809
883.64	22672
883.766	22679
883.892	22542
884.018	22584
884.143	22721
884.269	22786
884.395	22603
884.52	22443
884.646	22531
884.772	22386
884.897	22318
885.023	22303
885.148	22531
885.274	22542
885.399	22500
885.524	22306
885.65	22398
885.775	22417
885.9	22318
886.025	22447
886.15	22447
886.275	22341
886.4	22261
886.525	22402
886.65	22246
886.775	22295
886.9	22493
887.025	22569
887.149	22246
887.274	22226
887.399	22120
887.523	22310
887.648	22082
887.773	22112
887.897	22238
888.021	22105
888.146	22109
888.27	22253
888.395	22249
888.519	22230
888.643	22223
888.767	22177
888.891	22017
889.015	22021
889.139	22017
889.263	21793
889.387	21975
889.511	22181
889.635	21941
889.759	21983
889.883	21972
890.006	21998
890.13	22006
890.254	21915
890.377	21778
890.501	21679
890.624	21739
890.748	21812
890.871	21583
890.995	21564
891.118	21485
891.241	21454
891.364	21545
891.488	21564
891.611	21469
891.734	21606
891.857	21530
891.98	21534
892.103	21545
892.226	21553
892.349	21473
892.471	21317
892.594	21378
892.717	21416
892.839	21359
892.962	21458
893.085	21408
893.207	21306
893.33	21218
893.452	21310
893.575	21428
893.697	21367
893.819	21507
893.941	21599
894.064	21580
894.186	21340
894.308	21389
894.43	21492
894.552	21561
894.674	21412
894.796	21245
894.918	21378
895.04	21226
895.161	21469
895.283	21389
895.405	21325
895.526	21355
895.648	21374
895.769	21367
895.891	21393
896.012	21405
896.134	21321
896.255	21161
896.376	21378
896.498	21424
896.619	21351
896.74	21389
896.861	21378
896.982	21603
897.103	21831
897.224	21644
897.345	21625
897.466	21504
897.587	21568
897.708	21694
897.828	21671
897.949	21435
898.07	21332
898.19	21519
898.311	21648
898.431	21511
898.552	21439
898.672	21679
898.792	21660
898.913	21462
899.033	21511
899.153	21412
899.273	21241
899.393	21249
899.513	21393
899.633	21230
899.753	21252
899.873	21119
899.993	21222
900.113	21226
900.232	21325
900.352	21146
900.472	21135
900.591	21047
900.711	21036
900.83	20956
900.95	21142
901.069	20921
901.189	20979
901.308	20701
901.427	20667
901.546	20579
901.665	20648
901.784	20716
901.904	20434
902.023	20431
902.141	20180
902.26	20142
902.379	20077
902.498	20039
902.617	20149
902.735	20149
902.854	20035
902.973	20001
903.091	19700
903.21	19849
903.328	19894
903.446	19643
903.565	19620
903.683	19594
903.801	19400
903.919	19449
904.038	19468
904.156	19171
904.274	19377
904.392	19331
904.51	19282
904.627	19278
904.745	19297
904.863	19381
904.981	19110
905.098	18897
905.216	18890
905.334	18901
905.451	19038
905.569	18833
905.686	18916
905.803	18951
905.921	18738
906.038	18817
906.155	18776
906.272	18673
906.389	18684
906.506	18555
906.623	18604
906.74	18498
906.857	18353
906.974	18429
907.091	18566
907.208	18578
907.324	18509
907.441	18372
907.557	18174
907.674	18239
907.79	18079
907.907	18110
908.023	18243
908.139	18155
908.256	18095
908.372	18098
908.488	18072
908.604	17885
908.72	17855
908.836	17916
908.952	17790
909.068	17863
909.184	17931
909.3	17863
909.415	17843
909.531	17893
909.647	17611
909.762	17554
909.878	17596
909.993	17539
910.108	17646
910.224	17596
910.339	17478
910.454	17402
910.57	17402
910.685	17353
910.8	17566
910.915	17573
911.03	17436
911.145	17181
911.259	17178
911.374	17193
911.489	17113
911.604	16999
911.718	16824
911.833	16942
911.947	16805
912.062	16744
912.176	16881
912.291	16987
912.405	16831
912.519	17045
912.633	17010
912.748	16900
912.862	16953
912.976	16759
913.09	16577
913.204	16641
913.318	16687
913.431	16694
913.545	16698
913.659	16759
913.772	16618
913.886	16558
914	16508
914.113	16641
914.226	16622
914.34	16622
914.453	16413
914.566	16603
914.68	16443
914.793	16295
914.906	16082
915.019	16063
915.132	16002
915.245	16029
915.358	16090
915.47	15991
915.583	16135
915.696	16124
915.809	16204
915.921	16162
916.034	16044
916.146	15987
916.259	15888
916.371	16093
916.483	16032
916.595	15937
916.708	15979
916.82	15793
916.932	15850
917.044	15903
917.156	15797
917.268	15641
917.38	15838
917.491	15736
917.603	15629
917.715	15675
917.826	15682
917.938	15652
918.049	15542
918.161	15587
918.272	15717
918.384	15774
918.495	15656
918.606	15466
918.717	15329
918.828	15397
918.939	15405
919.05	15370
919.161	15507
919.272	15226
919.383	15180
919.494	15564
919.604	15629
919.715	15431
919.826	15279
919.936	15340
920.047	15420
920.157	15389
920.267	15492
920.378	15450
920.488	15336
920.598	15542
920.708	15637
920.818	15420
920.928	15568
921.038	15622
921.148	15523
921.258	15378
921.368	15214
921.477	15104
921.587	15005
921.697	14986
921.806	15047
921.916	14921
922.025	14826
922.134	14686
922.244	14674
922.353	14743
922.462	14625
922.571	14473
922.68	14423
922.789	14332
922.898	14370
923.007	14351
923.116	14419
923.224	14339
923.333	14267
923.442	14256
923.55	14119
923.659	14233
923.767	14237
923.876	14142
923.984	14336
924.092	14065
924.201	14050
924.309	14065
924.417	14039
924.525	14065
924.633	14016
924.741	14853
924.849	13788
924.956	13890
925.064	13696
925.172	13658
925.279	13715
925.387	13776
925.494	13788
925.602	13795
925.709	13719
925.816	13597
925.924	13651
926.031	13757
926.138	13582
926.245	13734
926.352	13582
926.459	13841
926.566	13776
926.673	13590
926.779	13430
926.886	13537
926.993	13339
927.099	13301
927.206	13278
927.312	13217
927.419	13270
927.525	13209
927.631	13164
927.737	13221
927.843	13084
927.95	12970
928.056	13122
928.162	13107
928.267	13160
928.373	13696
928.479	13091
928.585	12913
928.69	13126
928.796	13046
928.901	12947
929.007	12875
929.112	12924
929.218	12825
929.323	12768
929.428	12779
929.533	12958
929.638	12681
929.743	12734
929.848	12787
929.953	12741
930.058	12627
930.163	12441
930.267	12441
930.372	12620
930.477	12315
930.581	12559
930.685	12475
930.79	12342
930.894	12304
930.998	12323
931.103	12323
931.207	12190
931.311	12053
931.415	11863
931.519	11748
931.623	11627
