Data from test_V78500241_2080.txt Node
Date: Fri Mar 25 15:56:12 CST 2022
User: usil
Spectrometer: V785-0024
Trigger mode: 0
Integration Time (sec): 4.000000E-1
Scans to average: 1
Nonlinearity correction enabled: false
Boxcar width: 0
Storing dark spectrum: false
XAxis mode: Wavelengths
Number of Pixels in Spectrum: 1024
>>>>>Begin Spectral Data<<<<<
801.071	29231
801.214	29121
801.356	28930
801.499	28934
801.641	28717
801.783	28824
801.926	28965
802.068	28786
802.211	28717
802.353	28656
802.496	28603
802.638	28550
802.78	28497
802.923	28417
803.065	28470
803.208	28360
803.35	28428
803.492	28660
803.635	28645
803.777	28592
803.919	28862
804.061	29151
804.204	28915
804.346	28725
804.488	28630
804.63	28778
804.773	28698
804.915	28752
805.057	28869
805.199	28797
805.341	28904
805.483	29121
805.626	29029
805.768	28858
805.91	28828
806.052	28999
806.194	28790
806.336	29113
806.478	28919
806.62	28919
806.762	29086
806.904	29227
807.046	29429
807.188	29425
807.33	29372
807.472	29398
807.614	29349
807.756	29356
807.898	29318
808.04	29090
808.182	29258
808.324	29227
808.465	29299
808.607	29627
808.749	29726
808.891	29699
809.033	29923
809.174	29752
809.316	29512
809.458	29623
809.6	29573
809.741	29726
809.883	29920
810.025	29912
810.166	29889
810.308	30045
810.45	29920
810.591	29722
810.733	29722
810.875	29589
811.016	29539
811.158	29623
811.299	29824
811.441	29882
811.582	29901
811.724	29756
811.865	29718
812.007	29611
812.148	29726
812.29	29680
812.431	29851
812.573	30034
812.714	30057
812.855	30289
812.997	30224
813.138	30334
813.279	30330
813.421	30251
813.562	30209
813.703	30140
813.845	30152
813.986	29680
814.127	29391
814.268	29368
814.41	29360
814.551	29433
814.692	29448
814.833	29220
814.974	29341
815.115	29474
815.256	29231
815.397	29261
815.539	29277
815.68	29250
815.821	29102
815.962	29220
816.103	29212
816.244	29006
816.385	28938
816.526	29029
816.666	28831
816.807	28580
816.948	28850
817.089	28786
817.23	28672
817.371	28752
817.512	28805
817.653	28569
817.793	28679
817.934	28603
818.075	28752
818.216	28721
818.356	28656
818.497	28542
818.638	28443
818.778	28565
818.919	28504
819.06	28706
819.2	28588
819.341	28824
819.481	28736
819.622	28877
819.762	29155
819.903	28965
820.043	29033
820.184	28866
820.324	28805
820.465	28820
820.605	28809
820.746	28953
820.886	28748
821.026	28904
821.167	28744
821.307	28934
821.447	28752
821.588	28786
821.728	28622
821.868	28516
822.008	28192
822.149	28265
822.289	28219
822.429	28021
822.569	27876
822.709	28025
822.849	27816
822.99	27808
823.13	27751
823.27	27720
823.41	27606
823.55	27583
823.69	27641
823.83	27629
823.97	27625
824.11	27420
824.25	27408
824.389	27344
824.529	27542
824.669	27298
824.809	27542
824.949	27553
825.089	27389
825.228	27466
825.368	27180
825.508	27241
825.648	27237
825.787	27367
825.927	27389
826.067	27313
826.206	27283
826.346	27378
826.485	27435
826.625	27230
826.765	27393
826.904	27321
827.044	27131
827.183	27047
827.323	27047
827.462	27100
827.601	27051
827.741	26994
827.88	27013
828.02	27013
828.159	26986
828.298	27013
828.437	27157
828.577	26956
828.716	26979
828.855	26895
828.994	26678
829.134	26800
829.273	26769
829.412	26621
829.551	26743
829.69	26773
829.829	26830
829.968	26826
830.107	26830
830.246	26689
830.385	26697
830.524	26522
830.663	26465
830.802	26423
830.941	26183
831.08	26286
831.219	26355
831.357	26393
831.496	26537
831.635	26374
831.774	26324
831.913	26278
832.051	26126
832.19	26161
832.329	26020
832.467	25944
832.606	25898
832.744	26008
832.883	26043
833.022	25925
833.16	26039
833.299	25951
833.437	26115
833.576	26115
833.714	26027
833.852	26115
833.991	26130
834.129	26145
834.267	26096
834.406	26088
834.544	26012
834.682	26062
834.821	26012
834.959	26225
835.097	26005
835.235	26031
835.373	26020
835.511	26058
835.65	25890
835.788	25913
835.926	25875
836.064	25620
836.202	25750
836.34	25909
836.478	25909
836.615	25780
836.753	25814
836.891	25871
837.029	25947
837.167	25788
837.305	25639
837.443	25776
837.58	25742
837.718	25734
837.856	25765
837.993	25693
838.131	25696
838.269	25594
838.406	25518
838.544	25514
838.681	25358
838.819	25335
838.956	25107
839.094	25084
839.231	25126
839.369	25324
839.506	25453
839.643	25339
839.781	25076
839.918	25069
840.055	25179
840.193	24985
840.33	25118
840.467	25050
840.604	24958
840.742	25422
840.879	24867
841.016	24966
841.153	25031
841.29	25072
841.427	25019
841.564	25171
841.701	25084
841.838	24977
841.975	24992
842.112	24890
842.249	24703
842.385	24753
842.522	25034
842.659	24897
842.796	24768
842.933	24829
843.069	24814
843.206	24779
843.343	24863
843.479	24753
843.616	24806
843.752	24627
843.889	24635
844.025	24669
844.162	24502
844.298	24715
844.435	24578
844.571	24483
844.708	24661
844.844	24585
844.98	24620
845.117	24719
845.253	24513
845.389	24441
845.525	24570
845.661	24407
845.798	24323
845.934	24334
846.07	24129
846.206	24380
846.342	24300
846.478	24224
846.614	24121
846.75	23878
846.886	23980
847.022	24087
847.158	24022
847.294	24060
847.429	24049
847.565	24041
847.701	24262
847.837	23832
847.972	23767
848.108	23855
848.244	23817
848.379	23653
848.515	23638
848.65	23608
848.786	23577
848.921	23528
849.057	23783
849.192	23642
849.328	23649
849.463	23539
849.598	23417
849.734	23467
849.869	23566
850.004	23486
850.14	23269
850.275	23273
850.41	23254
850.545	23322
850.68	23208
850.815	23330
850.95	23337
851.085	23554
851.22	23551
851.355	23482
851.49	23299
851.625	23360
851.76	23250
851.895	23326
852.03	23326
852.165	23353
852.299	23376
852.434	23372
852.569	23239
852.703	23265
852.838	23429
852.973	23429
853.107	23554
853.242	23174
853.376	23250
853.511	23014
853.645	23155
853.78	23303
853.914	23200
854.048	23178
854.183	23109
854.317	23109
854.451	23414
854.585	23322
854.72	23216
854.854	23223
854.988	23056
855.122	23223
855.256	22915
855.39	23159
855.524	23185
855.658	23178
855.792	23204
855.926	23193
856.06	23242
856.194	23303
856.327	23299
856.461	23098
856.595	23075
856.729	23079
856.862	23178
856.996	23121
857.13	23250
857.263	23459
857.397	23239
857.53	23052
857.664	23204
857.797	23239
857.931	23318
858.064	23208
858.197	23326
858.331	23239
858.464	23231
858.597	23029
858.731	23242
858.864	23147
858.997	23208
859.13	23166
859.263	23185
859.396	23250
859.529	23105
859.662	23204
859.795	23132
859.928	23147
860.061	23337
860.194	23474
860.327	23250
860.46	23102
860.592	23193
860.725	23398
860.858	23296
860.99	23254
861.123	23124
861.256	23079
861.388	23155
861.521	23859
861.653	23033
861.786	22896
861.918	23079
862.05	22919
862.183	22991
862.315	23071
862.447	23170
862.58	23022
862.712	22786
862.844	22809
862.976	23048
863.108	22911
863.24	23280
863.372	22755
863.504	22930
863.636	22881
863.768	22847
863.9	22930
864.032	22786
864.164	22831
864.296	22949
864.428	23041
864.559	22843
864.691	22911
864.823	22885
864.954	22831
865.086	22908
865.217	22759
865.349	22733
865.48	22778
865.612	22797
865.743	22805
865.875	22721
866.006	22672
866.137	22592
866.269	22710
866.4	22660
866.531	22691
866.662	22660
866.793	22687
866.924	22622
867.055	22755
867.186	22679
867.317	22634
867.448	22546
867.579	22599
867.71	22592
867.841	22615
867.972	22554
868.103	22694
868.233	22679
868.364	22782
868.495	22797
868.625	22831
868.756	22972
868.886	22809
869.017	22923
869.147	23052
869.278	22946
869.408	22911
869.539	22946
869.669	23086
869.799	23014
869.929	23109
870.06	22984
870.19	23178
870.32	23193
870.45	23299
870.58	23242
870.71	23531
870.84	23436
870.97	23284
871.1	23322
871.23	23433
871.36	23528
871.489	23406
871.619	23505
871.749	23493
871.879	23471
872.008	23630
872.138	23433
872.267	23455
872.397	23478
872.526	23364
872.656	23197
872.785	23387
872.915	23444
873.044	23638
873.173	23440
873.303	23554
873.432	23577
873.561	23657
873.69	23459
873.819	23558
873.948	23497
874.077	23433
874.206	23433
874.335	23471
874.464	23577
874.593	23775
874.722	23676
874.851	23714
874.979	23646
875.108	23821
875.237	23638
875.365	23531
875.494	23707
875.623	23840
875.751	23665
875.88	23786
876.008	23767
876.136	23984
876.265	24072
876.393	24254
876.521	24152
876.65	24155
876.778	24106
876.906	24087
877.034	23931
877.162	24060
877.29	24060
877.418	24098
877.546	23965
877.674	23935
877.802	24072
877.93	23980
878.058	23958
878.185	23912
878.313	23969
878.441	24049
878.568	23901
878.696	24049
878.824	24114
878.951	23950
879.079	24292
879.206	24205
879.333	24239
879.461	24178
879.588	24064
879.715	24167
879.842	24235
879.97	24209
880.097	23843
880.224	23802
880.351	23824
880.478	23870
880.605	23882
880.732	23870
880.859	24125
880.986	23817
881.112	23904
881.239	23726
881.366	23539
881.493	23448
881.619	23471
881.746	23448
881.872	23471
881.999	23391
882.125	23311
882.252	23505
882.378	23497
882.505	23490
882.631	23280
882.757	23098
882.883	23086
883.01	23083
883.136	22953
883.262	23018
883.388	23022
883.514	22957
883.64	23109
883.766	23003
883.892	22839
884.018	22850
884.143	22908
884.269	23185
884.395	22847
884.52	22679
884.646	22702
884.772	22649
884.897	22561
885.023	22664
885.148	22752
885.274	22801
885.399	22752
885.524	22622
885.65	22637
885.775	22774
885.9	22668
886.025	22839
886.15	22733
886.275	22653
886.4	22577
886.525	22664
886.65	22573
886.775	22584
886.9	22820
887.025	22740
887.149	22626
887.274	22599
887.399	22409
887.523	22542
887.648	22432
887.773	22337
887.897	22478
888.021	22459
888.146	22508
888.27	22603
888.395	22554
888.519	22493
888.643	22451
888.767	22409
888.891	22329
889.015	22257
889.139	22257
889.263	22223
889.387	22470
889.511	22428
889.635	22440
889.759	22181
889.883	22200
890.006	22173
890.13	22329
890.254	22185
890.377	22090
890.501	21922
890.624	21960
890.748	21903
890.871	21785
890.995	21797
891.118	21781
891.241	21778
891.364	21778
891.488	21941
891.611	21724
891.734	21842
891.857	21797
891.98	21861
892.103	21797
892.226	21660
892.349	21762
892.471	21595
892.594	21652
892.717	21717
892.839	21591
892.962	21717
893.085	21667
893.207	21622
893.33	21561
893.452	21667
893.575	21705
893.697	21564
893.819	21739
893.941	21911
894.064	21652
894.186	21576
894.308	21462
894.43	21698
894.552	21705
894.674	21720
894.796	21424
894.918	21625
895.04	21644
895.161	21675
895.283	21732
895.405	21701
895.526	21504
895.648	21583
895.769	21633
895.891	21679
896.012	21682
896.134	21679
896.255	21564
896.376	21515
896.498	21557
896.619	21576
896.74	21572
896.861	21724
896.982	22017
897.103	22051
897.224	21892
897.345	21827
897.466	21732
897.587	21816
897.708	21880
897.828	21823
897.949	21770
898.07	21667
898.19	21781
898.311	21854
898.431	21732
898.552	21781
898.672	21907
898.792	21892
898.913	21743
899.033	21629
899.153	21530
899.273	21370
899.393	21466
899.513	21488
899.633	21530
899.753	21545
899.873	21526
899.993	21564
900.113	21378
900.232	21424
900.352	21382
900.472	21416
900.591	21336
900.711	21310
900.83	21249
900.95	21367
901.069	21386
901.189	21211
901.308	20933
901.427	20830
901.546	20891
901.665	20819
901.784	20777
901.904	20644
902.023	20667
902.141	20377
902.26	20324
902.379	20393
902.498	20355
902.617	20199
902.735	20317
902.854	20244
902.973	20244
903.091	20024
903.21	19909
903.328	19860
903.446	19845
903.565	19883
903.683	19750
903.801	19662
903.919	19693
904.038	19757
904.156	19613
904.274	19655
904.392	19487
904.51	19567
904.627	19434
904.745	19487
904.863	19685
904.981	19449
905.098	19270
905.216	19255
905.334	19129
905.451	19221
905.569	19133
905.686	19327
905.803	19255
905.921	19137
906.038	19023
906.155	19050
906.272	18973
906.389	18875
906.506	18791
906.623	18734
906.74	18696
906.857	18688
906.974	18585
907.091	18719
907.208	18935
907.324	18726
907.441	18635
907.557	18388
907.674	18410
907.79	18448
907.907	18327
908.023	18433
908.139	18418
908.256	18323
908.372	18342
908.488	18228
908.604	18155
908.72	18178
908.836	18125
908.952	18068
909.068	18136
909.184	18323
909.3	18152
909.415	18133
909.531	18129
909.647	17851
909.762	17882
909.878	17832
909.993	17893
910.108	17786
910.224	17752
910.339	17771
910.454	17646
910.57	17558
910.685	17634
910.8	17855
910.915	17752
911.03	17649
911.145	17383
911.259	17341
911.374	17391
911.489	17242
911.604	17269
911.718	17143
911.833	17094
911.947	17166
912.062	16946
912.176	17220
912.291	17052
912.405	17113
912.519	17383
912.633	17303
912.748	17197
912.862	17083
912.976	16984
913.09	16919
913.204	16881
913.318	16972
913.431	17048
913.545	17006
913.659	17064
913.772	16957
913.886	16824
914	16725
914.113	16767
914.226	16816
914.34	16801
914.453	16626
914.566	16774
914.68	16630
914.793	16573
914.906	16363
915.019	16276
915.132	16226
915.245	16352
915.358	16287
915.47	16280
915.583	16200
915.696	16200
915.809	16424
915.921	16371
916.034	16207
916.146	16249
916.259	16192
916.371	16280
916.483	16154
916.595	16063
916.708	16124
916.82	16131
916.932	16063
917.044	16055
917.156	15964
917.268	15915
917.38	16051
917.491	15960
917.603	15972
917.715	16082
917.826	16055
917.938	15873
918.049	15728
918.161	15785
918.272	15979
918.384	15880
918.495	15804
918.606	15633
918.717	15603
918.828	15690
918.939	15610
919.05	15557
919.161	15663
919.272	15469
919.383	15492
919.494	15633
919.604	15861
919.715	15667
919.826	15538
919.936	15443
920.047	15663
920.157	15530
920.267	15770
920.378	15644
920.488	15553
920.598	15728
920.708	15823
920.818	15701
920.928	15656
921.038	15922
921.148	15781
921.258	15618
921.368	15488
921.477	15397
921.587	15408
921.697	15161
921.806	15256
921.916	15195
922.025	14937
922.134	14960
922.244	14906
922.353	14838
922.462	14819
922.571	14674
922.68	14629
922.789	14518
922.898	14632
923.007	14492
923.116	14610
923.224	14514
923.333	14564
923.442	14419
923.55	14484
923.659	14446
923.767	14393
923.876	14301
923.984	14347
924.092	14275
924.201	14256
924.309	14187
924.417	14202
924.525	14153
924.633	14218
924.741	15146
924.849	13947
924.956	14058
925.064	13932
925.172	13811
925.279	13883
925.387	13879
925.494	13826
925.602	13959
925.709	13974
925.816	13761
925.924	13750
926.031	13845
926.138	13860
926.245	13909
926.352	13742
926.459	13791
926.566	13921
926.673	13784
926.779	13639
926.886	13700
926.993	13434
927.099	13400
927.206	13426
927.312	13422
927.419	13415
927.525	13422
927.631	13487
927.737	13324
927.843	13331
927.95	13183
928.056	13228
928.162	13270
928.267	13259
928.373	13826
928.479	13289
928.585	13145
928.69	13126
928.796	13198
928.901	13080
929.007	12913
929.112	13141
929.218	13034
929.323	13046
929.428	12939
929.533	13053
929.638	12867
929.743	12939
929.848	12905
929.953	12848
930.058	12753
930.163	12620
930.267	12669
930.372	12669
930.477	12566
930.581	12875
930.685	12593
930.79	12445
930.894	12551
930.998	12483
931.103	12620
931.207	12209
931.311	12140
931.415	12095
931.519	11859
931.623	11821
