Data from test_V78500241_1847.txt Node
Date: Fri Mar 25 15:54:35 CST 2022
User: usil
Spectrometer: V785-0024
Trigger mode: 0
Integration Time (sec): 4.000000E-1
Scans to average: 1
Nonlinearity correction enabled: false
Boxcar width: 0
Storing dark spectrum: false
XAxis mode: Wavelengths
Number of Pixels in Spectrum: 1024
>>>>>Begin Spectral Data<<<<<
801.071	28451
801.214	28440
801.356	28230
801.499	28147
801.641	27991
801.783	28078
801.926	28162
802.068	28017
802.211	27994
802.353	28051
802.496	27827
802.638	27701
802.78	27648
802.923	27641
803.065	27553
803.208	27633
803.35	27675
803.492	27907
803.635	27945
803.777	27793
803.919	27888
804.061	28257
804.204	27880
804.346	27846
804.488	27774
804.63	27899
804.773	27945
804.915	27991
805.057	28055
805.199	27869
805.341	28059
805.483	28021
805.626	28166
805.768	28032
805.91	28112
806.052	28013
806.194	27941
806.336	28211
806.478	28150
806.62	28067
806.762	28147
806.904	28344
807.046	28519
807.188	28466
807.33	28508
807.472	28535
807.614	28561
807.756	28588
807.898	28500
808.04	28440
808.182	28394
808.324	28401
808.465	28436
808.607	28618
808.749	28812
808.891	28911
809.033	28938
809.174	28729
809.316	28820
809.458	28660
809.6	28809
809.741	28900
809.883	28946
810.025	28999
810.166	29094
810.308	29090
810.45	29060
810.591	28927
810.733	28816
810.875	28713
811.016	28778
811.158	28527
811.299	28755
811.441	28854
811.582	28999
811.724	28892
811.865	28820
812.007	28729
812.148	28831
812.29	28797
812.431	28946
812.573	29151
812.714	29170
812.855	29288
812.997	29334
813.138	29592
813.279	29406
813.421	29311
813.562	29254
813.703	29048
813.845	28858
813.986	28843
814.127	28527
814.268	28390
814.41	28630
814.551	28466
814.692	28481
814.833	28314
814.974	28470
815.115	28344
815.256	28341
815.397	28280
815.539	28265
815.68	28238
815.821	28090
815.962	28230
816.103	28344
816.244	28207
816.385	28025
816.526	28036
816.666	27914
816.807	27747
816.948	27671
817.089	27934
817.23	27918
817.371	27732
817.512	27713
817.653	27671
817.793	27720
817.934	27854
818.075	27724
818.216	27781
818.356	27736
818.497	27606
818.638	27534
818.778	27519
818.919	27553
819.06	27473
819.2	27648
819.341	27739
819.481	27861
819.622	27994
819.762	28166
819.903	28067
820.043	27972
820.184	27903
820.324	27857
820.465	27835
820.605	27918
820.746	27968
820.886	27850
821.026	27842
821.167	27812
821.307	27937
821.447	27804
821.588	27656
821.728	27557
821.868	27492
822.008	27165
822.149	27272
822.289	27294
822.429	26960
822.569	27017
822.709	26933
822.849	26842
822.99	26777
823.13	26636
823.27	26674
823.41	26651
823.55	26453
823.69	26602
823.83	26461
823.97	26377
824.11	26393
824.25	26324
824.389	26305
824.529	26389
824.669	26396
824.809	26461
824.949	26404
825.089	26476
825.228	26492
825.368	26278
825.508	26309
825.648	26210
825.787	26271
825.927	26324
826.067	26199
826.206	26206
826.346	26317
826.485	26233
826.625	26301
826.765	26412
826.904	26374
827.044	26145
827.183	26020
827.323	26065
827.462	26027
827.601	26069
827.741	25909
827.88	26039
828.02	25841
828.159	26005
828.298	25955
828.437	26005
828.577	25932
828.716	26103
828.855	25845
828.994	25693
829.134	25643
829.273	25613
829.412	25655
829.551	25491
829.69	25753
829.829	25567
829.968	25696
830.107	25826
830.246	25655
830.385	25624
830.524	25613
830.663	25479
830.802	25415
830.941	25171
831.08	25343
831.219	25278
831.357	25434
831.496	25518
831.635	25331
831.774	25217
831.913	25080
832.051	25110
832.19	25107
832.329	25050
832.467	25027
832.606	24916
832.744	24962
832.883	24909
833.022	24802
833.16	24958
833.299	25053
833.437	24935
833.576	25057
833.714	25034
833.852	25042
833.991	24951
834.129	25126
834.267	25141
834.406	25084
834.544	25114
834.682	24996
834.821	24943
834.959	25050
835.097	24943
835.235	25095
835.373	25168
835.511	25008
835.65	24779
835.788	24905
835.926	24722
836.064	24654
836.202	24570
836.34	24848
836.478	24916
836.615	24757
836.753	24825
836.891	24943
837.029	24897
837.167	24616
837.305	24627
837.443	24658
837.58	24700
837.718	24722
837.856	24696
837.993	24650
838.131	24532
838.269	24623
838.406	24677
838.544	24502
838.681	24273
838.819	24232
838.956	24144
839.094	24068
839.231	24205
839.369	24338
839.506	24471
839.643	24452
839.781	24102
839.918	24110
840.055	24091
840.193	24083
840.33	24178
840.467	24007
840.604	24102
840.742	24330
840.879	23870
841.016	23977
841.153	23923
841.29	24049
841.427	24136
841.564	24079
841.701	24018
841.838	23920
841.975	23969
842.112	24011
842.249	23927
842.385	23817
842.522	23999
842.659	23756
842.796	23657
842.933	23703
843.069	23737
843.206	23783
843.343	23764
843.479	23863
843.616	23687
843.752	23577
843.889	23570
844.025	23676
844.162	23531
844.298	23642
844.435	23558
844.571	23467
844.708	23619
844.844	23722
844.98	23627
845.117	23710
845.253	23440
845.389	23433
845.525	23524
845.661	23467
845.798	23318
845.934	23223
846.07	23303
846.206	23303
846.342	23337
846.478	23261
846.614	23056
846.75	22915
846.886	23090
847.022	23037
847.158	23151
847.294	22980
847.429	23064
847.565	23018
847.701	23288
847.837	22752
847.972	22763
848.108	22805
848.244	22771
848.379	22584
848.515	22645
848.65	22588
848.786	22641
848.921	22588
849.057	22687
849.192	22645
849.328	22607
849.463	22550
849.598	22493
849.734	22531
849.869	22428
850.004	22402
850.14	22455
850.275	22386
850.41	22230
850.545	22371
850.68	22322
850.815	22424
850.95	22386
851.085	22546
851.22	22489
851.355	22375
851.49	22360
851.625	22242
851.76	22379
851.895	22341
852.03	22234
852.165	22303
852.299	22348
852.434	22318
852.569	22329
852.703	22352
852.838	22519
852.973	22470
853.107	22493
853.242	22318
853.376	22417
853.511	22070
853.645	22135
853.78	22352
853.914	22242
854.048	22086
854.183	22124
854.317	22139
854.451	22352
854.585	22147
854.72	22139
854.854	22276
854.988	22139
855.122	22128
855.256	22021
855.39	22177
855.524	22249
855.658	22226
855.792	22257
855.926	22238
856.06	22196
856.194	22322
856.327	22150
856.461	22093
856.595	22131
856.729	22090
856.862	22436
856.996	22070
857.13	22268
857.263	22295
857.397	22386
857.53	22105
857.664	22158
857.797	22166
857.931	22371
858.064	22204
858.197	22428
858.331	22124
858.464	22036
858.597	22082
858.731	22116
858.864	22036
858.997	22207
859.13	22249
859.263	22257
859.396	22162
859.529	22032
859.662	22116
859.795	22105
859.928	22242
860.061	22443
860.194	22455
860.327	22261
860.46	22265
860.592	22280
860.725	22284
860.858	22341
860.99	22128
861.123	22128
861.256	22173
861.388	22234
861.521	22850
861.653	21991
861.786	22051
861.918	21979
862.05	22093
862.183	22120
862.315	22154
862.447	22234
862.58	22032
862.712	21937
862.844	21869
862.976	21945
863.108	22032
863.24	22379
863.372	21816
863.504	22029
863.636	21945
863.768	21854
863.9	21953
864.032	21888
864.164	21934
864.296	21998
864.428	21998
864.559	21854
864.691	21949
864.823	21876
864.954	22036
865.086	21816
865.217	21808
865.349	21709
865.48	21800
865.612	21694
865.743	21850
865.875	21800
866.006	21728
866.137	21747
866.269	21778
866.4	21717
866.531	21770
866.662	21580
866.793	21774
866.924	21747
867.055	21675
867.186	21610
867.317	21652
867.448	21633
867.579	21633
867.71	21793
867.841	21679
867.972	21759
868.103	21667
868.233	21713
868.364	21736
868.495	21945
868.625	21937
868.756	22135
868.886	21835
869.017	21968
869.147	21960
869.278	22101
869.408	21953
869.539	21945
869.669	21945
869.799	21838
869.929	22116
870.06	22051
870.19	22215
870.32	22272
870.45	22306
870.58	22386
870.71	22493
870.84	22436
870.97	22405
871.1	22459
871.23	22497
871.36	22588
871.489	22436
871.619	22504
871.749	22569
871.879	22672
872.008	22630
872.138	22592
872.267	22535
872.397	22459
872.526	22375
872.656	22379
872.785	22424
872.915	22615
873.044	22679
873.173	22466
873.303	22554
873.432	22649
873.561	22653
873.69	22599
873.819	22527
873.948	22618
874.077	22660
874.206	22535
874.335	22584
874.464	22656
874.593	22908
874.722	22725
874.851	22919
874.979	22858
875.108	22729
875.237	22767
875.365	22649
875.494	22660
875.623	22869
875.751	22809
875.88	22930
876.008	22919
876.136	22911
876.265	23132
876.393	23341
876.521	23273
876.65	23379
876.778	23136
876.906	22904
877.034	23140
877.162	23044
877.29	23121
877.418	23185
877.546	23151
877.674	23124
877.802	23086
877.93	23109
878.058	23060
878.185	22892
878.313	23109
878.441	23174
878.568	22965
878.696	22995
878.824	23212
878.951	23246
879.079	23288
879.206	23261
879.333	23307
879.461	23315
879.588	23220
879.715	23387
879.842	23406
879.97	23155
880.097	22957
880.224	23056
880.351	22980
880.478	23010
880.605	22908
880.732	22911
880.859	23166
880.986	23025
881.112	22949
881.239	22831
881.366	22702
881.493	22675
881.619	22546
881.746	22557
881.872	22466
881.999	22489
882.125	22512
882.252	22527
882.378	22512
882.505	22573
882.631	22337
882.757	22253
882.883	22299
883.01	22188
883.136	22169
883.262	22082
883.388	21972
883.514	22135
883.64	22223
883.766	22147
883.892	21945
884.018	21895
884.143	22105
884.269	22223
884.395	21960
884.52	21793
884.646	21857
884.772	21743
884.897	21717
885.023	21823
885.148	21838
885.274	21983
885.399	21850
885.524	21888
885.65	21808
885.775	21850
885.9	21705
886.025	21865
886.15	21850
886.275	21812
886.4	21804
886.525	21766
886.65	21644
886.775	21789
886.9	21873
887.025	22036
887.149	21705
887.274	21701
887.399	21538
887.523	21774
887.648	21629
887.773	21488
887.897	21610
888.021	21762
888.146	21485
888.27	21652
888.395	21622
888.519	21698
888.643	21587
888.767	21690
888.891	21458
889.015	21412
889.139	21439
889.263	21291
889.387	21450
889.511	21583
889.635	21530
889.759	21408
889.883	21321
890.006	21416
890.13	21416
890.254	21298
890.377	21264
890.501	21081
890.624	21074
890.748	21226
890.871	21017
890.995	20918
891.118	20929
891.241	20979
891.364	20868
891.488	20929
891.611	20925
891.734	21024
891.857	21058
891.98	20899
892.103	20990
892.226	20948
892.349	20838
892.471	20731
892.594	20929
892.717	20960
892.839	20746
892.962	20807
893.085	20826
893.207	20849
893.33	20720
893.452	20765
893.575	20807
893.697	20819
893.819	21013
893.941	21077
894.064	20914
894.186	20750
894.308	20842
894.43	21009
894.552	20960
894.674	20918
894.796	20876
894.918	20872
895.04	20834
895.161	20792
895.283	20872
895.405	20682
895.526	20895
895.648	20750
895.769	20849
895.891	20857
896.012	20861
896.134	20887
896.255	20811
896.376	20739
896.498	20842
896.619	20773
896.74	20788
896.861	20979
896.982	21169
897.103	21249
897.224	21100
897.345	20986
897.466	20960
897.587	21192
897.708	21138
897.828	21211
897.949	20933
898.07	20891
898.19	20910
898.311	21009
898.431	20895
898.552	21081
898.672	21173
898.792	21119
898.913	21028
899.033	20883
899.153	20929
899.273	20682
899.393	20807
899.513	20743
899.633	20819
899.753	20788
899.873	20765
899.993	20663
900.113	20648
900.232	20769
900.352	20667
900.472	20526
900.591	20560
900.711	20568
900.83	20552
900.95	20526
901.069	20476
901.189	20465
901.308	20161
901.427	20027
901.546	20100
901.665	20043
901.784	20107
901.904	19963
902.023	19837
902.141	19689
902.26	19841
902.379	19708
902.498	19685
902.617	19647
902.735	19518
902.854	19487
902.973	19499
903.091	19343
903.21	19225
903.328	19266
903.446	19278
903.565	19122
903.683	19027
903.801	19076
903.919	19103
904.038	18928
904.156	18798
904.274	18882
904.392	18821
904.51	18798
904.627	18764
904.745	18859
904.863	18821
904.981	18551
905.098	18540
905.216	18551
905.334	18612
905.451	18426
905.569	18429
905.686	18673
905.803	18563
905.921	18304
906.038	18353
906.155	18445
906.272	18152
906.389	18285
906.506	18087
906.623	18034
906.74	17980
906.857	17874
906.974	17973
907.091	18129
907.208	18121
907.324	17977
907.441	17847
907.557	17756
907.674	17718
907.79	17649
907.907	17741
908.023	17691
908.139	17722
908.256	17707
908.372	17596
908.488	17608
908.604	17440
908.72	17345
908.836	17558
908.952	17459
909.068	17436
909.184	17535
909.3	17455
909.415	17478
909.531	17467
909.647	17235
909.762	17166
909.878	17113
909.993	17189
910.108	17037
910.224	17067
910.339	17121
910.454	16957
910.57	16923
910.685	16862
910.8	17136
910.915	17105
911.03	16999
911.145	16828
911.259	16782
911.374	16763
911.489	16622
911.604	16687
911.718	16607
911.833	16481
911.947	16367
912.062	16306
912.176	16516
912.291	16493
912.405	16462
912.519	16641
912.633	16630
912.748	16470
912.862	16447
912.976	16299
913.09	16166
913.204	16261
913.318	16215
913.431	16295
913.545	16276
913.659	16318
913.772	16257
913.886	16128
914	16048
914.113	16158
914.226	16158
914.34	16071
914.453	15949
914.566	16166
914.68	15934
914.793	15827
914.906	15675
915.019	15739
915.132	15641
915.245	15641
915.358	15709
915.47	15603
915.583	15622
915.696	15682
915.809	15804
915.921	15717
916.034	15561
916.146	15447
916.259	15580
916.371	15629
916.483	15622
916.595	15412
916.708	15561
916.82	15428
916.932	15458
917.044	15435
917.156	15397
917.268	15199
917.38	15260
917.491	15203
917.603	15344
917.715	15416
917.826	15405
917.938	15279
918.049	15074
918.161	15161
918.272	15374
918.384	15348
918.495	15237
918.606	15017
918.717	15043
918.828	15104
918.939	15081
919.05	14861
919.161	15074
919.272	14796
919.383	14819
919.494	15017
919.604	15085
919.715	15032
919.826	14921
919.936	14899
920.047	15024
920.157	15043
920.267	15169
920.378	14971
920.488	14899
920.598	15058
920.708	15249
920.818	15116
920.928	15161
921.038	15287
921.148	15222
921.258	14944
921.368	14815
921.477	14705
921.587	14720
921.697	14579
921.806	14659
921.916	14617
922.025	14419
922.134	14374
922.244	14328
922.353	14377
922.462	14168
922.571	14115
922.68	14031
922.789	13955
922.898	13997
923.007	13894
923.116	14065
923.224	13982
923.333	13944
923.442	13875
923.55	13826
923.659	13734
923.767	13883
923.876	13750
923.984	13795
924.092	13712
924.201	13658
924.309	13807
924.417	13780
924.525	13662
924.633	13670
924.741	14431
924.849	13415
924.956	13552
925.064	13392
925.172	13415
925.279	13324
925.387	13343
925.494	13419
925.602	13438
925.709	13369
925.816	13327
925.924	13335
926.031	13460
926.138	13335
926.245	13346
926.352	13236
926.459	13388
926.566	13343
926.673	13259
926.779	13110
926.886	13050
926.993	13019
927.099	12913
927.206	12890
927.312	12856
927.419	12943
927.525	12886
927.631	12966
927.737	12806
927.843	12791
927.95	12673
928.056	12715
928.162	12757
928.267	12798
928.373	13422
928.479	12814
928.585	12555
928.69	12730
928.796	12821
928.901	12604
929.007	12547
929.112	12585
929.218	12528
929.323	12513
929.428	12471
929.533	12631
929.638	12445
929.743	12410
929.848	12494
929.953	12403
930.058	12323
930.163	12068
930.267	12254
930.372	12292
930.477	12171
930.581	12353
930.685	12289
930.79	12064
930.894	12041
930.998	12011
931.103	12228
931.207	11836
931.311	11737
931.415	11634
931.519	11364
931.623	11345
