Data from test_V78500241_122.txt Node
Date: Fri Mar 25 15:42:38 CST 2022
User: usil
Spectrometer: V785-0024
Trigger mode: 0
Integration Time (sec): 4.000000E-1
Scans to average: 1
Nonlinearity correction enabled: false
Boxcar width: 0
Storing dark spectrum: false
XAxis mode: Wavelengths
Number of Pixels in Spectrum: 1024
>>>>>Begin Spectral Data<<<<<
801.071	30110
801.214	30072
801.356	29802
801.499	29703
801.641	29490
801.783	29604
801.926	29642
802.068	29752
802.211	29577
802.353	29402
802.496	29349
802.638	29360
802.78	29345
802.923	29337
803.065	29261
803.208	29284
803.35	29379
803.492	29482
803.635	29482
803.777	29417
803.919	29604
804.061	29767
804.204	29600
804.346	29303
804.488	29353
804.63	29391
804.773	29410
804.915	29410
805.057	29551
805.199	29429
805.341	29436
805.483	29539
805.626	29455
805.768	29425
805.91	29459
806.052	29570
806.194	29482
806.336	29790
806.478	29646
806.62	29490
806.762	29726
806.904	29851
807.046	30102
807.188	29904
807.33	30018
807.472	29893
807.614	29824
807.756	29847
807.898	29794
808.04	29767
808.182	29623
808.324	29741
808.465	29638
808.607	29961
808.749	30121
808.891	30270
809.033	30315
809.174	30125
809.316	30194
809.458	30209
809.6	30144
809.741	30114
809.883	30140
810.025	30258
810.166	30399
810.308	30254
810.45	30178
810.591	30121
810.733	30289
810.875	30026
811.016	29942
811.158	30041
811.299	30133
811.441	30125
811.582	30277
811.724	30079
811.865	30038
812.007	30091
812.148	30174
812.29	30015
812.431	30152
812.573	30422
812.714	30559
812.855	30399
812.997	30673
813.138	30692
813.279	30540
813.421	30532
813.562	30384
813.703	30376
813.845	30083
813.986	29999
814.127	29790
814.268	29661
814.41	29649
814.551	29779
814.692	29836
814.833	29615
814.974	29592
815.115	29729
815.256	29474
815.397	29410
815.539	29543
815.68	29292
815.821	29269
815.962	29280
816.103	29505
816.244	29185
816.385	29102
816.526	29280
816.666	29018
816.807	28850
816.948	28843
817.089	28984
817.23	28866
817.371	28752
817.512	28881
817.653	28816
817.793	28733
817.934	28877
818.075	28778
818.216	28763
818.356	28706
818.497	28736
818.638	28596
818.778	28436
818.919	28565
819.06	28580
819.2	28626
819.341	28622
819.481	28679
819.622	28717
819.762	28991
819.903	28881
820.043	28953
820.184	28767
820.324	28816
820.465	28801
820.605	28778
820.746	28839
820.886	28664
821.026	28645
821.167	28664
821.307	28797
821.447	28645
821.588	28679
821.728	28375
821.868	28299
822.008	28116
822.149	28112
822.289	28143
822.429	27888
822.569	27823
822.709	27717
822.849	27576
822.99	27572
823.13	27564
823.27	27557
823.41	27389
823.55	27329
823.69	27355
823.83	27439
823.97	27348
824.11	27313
824.25	27100
824.389	27264
824.529	27336
824.669	27199
824.809	27298
824.949	27272
825.089	27173
825.228	27176
825.368	27085
825.508	26902
825.648	27123
825.787	27039
825.927	27058
826.067	26956
826.206	27100
826.346	26979
826.485	27001
826.625	27093
826.765	27188
826.904	27062
827.044	26762
827.183	26731
827.323	26602
827.462	26807
827.601	26674
827.741	26556
827.88	26724
828.02	26484
828.159	26606
828.298	26739
828.437	26651
828.577	26518
828.716	26670
828.855	26617
828.994	26419
829.134	26294
829.273	26457
829.412	26434
829.551	26366
829.69	26275
829.829	26366
829.968	26332
830.107	26339
830.246	26142
830.385	26229
830.524	26176
830.663	26043
830.802	25913
830.941	25849
831.08	25788
831.219	25868
831.357	25894
831.496	25947
831.635	25841
831.774	25780
831.913	25700
832.051	25616
832.19	25525
832.329	25556
832.467	25468
832.606	25350
832.744	25529
832.883	25422
833.022	25331
833.16	25518
833.299	25403
833.437	25358
833.576	25552
833.714	25422
833.852	25400
833.991	25460
834.129	25476
834.267	25514
834.406	25441
834.544	25506
834.682	25320
834.821	25472
834.959	25601
835.097	25521
835.235	25472
835.373	25472
835.511	25316
835.65	25289
835.788	25240
835.926	25122
836.064	25061
836.202	25088
836.34	25133
836.478	25263
836.615	25198
836.753	25377
836.891	25251
837.029	25232
837.167	25187
837.305	25027
837.443	25206
837.58	25061
837.718	25031
837.856	25076
837.993	25103
838.131	25053
838.269	24878
838.406	25034
838.544	24863
838.681	24536
838.819	24688
838.956	24582
839.094	24372
839.231	24627
839.369	24620
839.506	24772
839.643	24688
839.781	24441
839.918	24437
840.055	24399
840.193	24285
840.33	24330
840.467	24384
840.604	24403
840.742	24589
840.879	24277
841.016	24243
841.153	24228
841.29	24319
841.427	24429
841.564	24277
841.701	24292
841.838	24194
841.975	24372
842.112	24182
842.249	24114
842.385	24034
842.522	24270
842.659	24117
842.796	24064
842.933	24022
843.069	23958
843.206	23980
843.343	24007
843.479	23942
843.616	24026
843.752	23726
843.889	23691
844.025	23794
844.162	23691
844.298	23821
844.435	23604
844.571	23668
844.708	23722
844.844	23809
844.98	23878
845.117	23901
845.253	23657
845.389	23646
845.525	23558
845.661	23551
845.798	23398
845.934	23505
846.07	23444
846.206	23444
846.342	23425
846.478	23398
846.614	23254
846.75	23067
846.886	23140
847.022	23204
847.158	23178
847.294	23132
847.429	23151
847.565	23086
847.701	23292
847.837	22786
847.972	22809
848.108	22991
848.244	22881
848.379	22820
848.515	22683
848.65	22607
848.786	22710
848.921	22740
849.057	22790
849.192	22744
849.328	22702
849.463	22645
849.598	22664
849.734	22481
849.869	22698
850.004	22405
850.14	22478
850.275	22360
850.41	22284
850.545	22299
850.68	22386
850.815	22417
850.95	22318
851.085	22512
851.22	22504
851.355	22447
851.49	22344
851.625	22440
851.76	22265
851.895	22246
852.03	22287
852.165	22421
852.299	22451
852.434	22394
852.569	22337
852.703	22363
852.838	22409
852.973	22447
853.107	22538
853.242	22394
853.376	22253
853.511	22158
853.645	22135
853.78	22314
853.914	22249
854.048	22223
854.183	22074
854.317	22268
854.451	22344
854.585	22017
854.72	22200
854.854	22238
854.988	22128
855.122	22181
855.256	21899
855.39	22086
855.524	22093
855.658	22207
855.792	22238
855.926	22120
856.06	22280
856.194	22238
856.327	22188
856.461	22147
856.595	22109
856.729	22109
856.862	22192
856.996	22196
857.13	22116
857.263	22310
857.397	22200
857.53	22162
857.664	22139
857.797	22139
857.931	22188
858.064	22154
858.197	22200
858.331	22063
858.464	22021
858.597	22017
858.731	22078
858.864	22086
858.997	22139
859.13	22101
859.263	22010
859.396	22128
859.529	22010
859.662	22097
859.795	22044
859.928	22051
860.061	22230
860.194	22109
860.327	22078
860.46	22177
860.592	22135
860.725	22215
860.858	22177
860.99	21956
861.123	21968
861.256	22032
861.388	22101
861.521	22615
861.653	21842
861.786	21918
861.918	21949
862.05	22055
862.183	22040
862.315	22086
862.447	22070
862.58	22040
862.712	21941
862.844	21739
862.976	21934
863.108	21968
863.24	22063
863.372	21778
863.504	21755
863.636	21800
863.768	21846
863.9	21755
864.032	21652
864.164	21720
864.296	21781
864.428	21873
864.559	21793
864.691	21854
864.823	21656
864.954	21660
865.086	21682
865.217	21682
865.349	21542
865.48	21660
865.612	21793
865.743	21812
865.875	21507
866.006	21625
866.137	21591
866.269	21549
866.4	21614
866.531	21500
866.662	21515
866.793	21523
866.924	21507
867.055	21709
867.186	21599
867.317	21595
867.448	21424
867.579	21564
867.71	21557
867.841	21488
867.972	21572
868.103	21583
868.233	21523
868.364	21549
868.495	21667
868.625	21789
868.756	21876
868.886	21762
869.017	21701
869.147	21876
869.278	21975
869.408	21793
869.539	21701
869.669	21865
869.799	21827
869.929	21800
870.06	22021
870.19	22070
870.32	22010
870.45	22215
870.58	21994
870.71	22325
870.84	22234
870.97	22219
871.1	22147
871.23	22386
871.36	22405
871.489	22303
871.619	22424
871.749	22284
871.879	22466
872.008	22603
872.138	22337
872.267	22432
872.397	22257
872.526	22295
872.656	22154
872.785	22242
872.915	22417
873.044	22489
873.173	22386
873.303	22504
873.432	22344
873.561	22443
873.69	22508
873.819	22333
873.948	22497
874.077	22421
874.206	22352
874.335	22451
874.464	22474
874.593	22660
874.722	22577
874.851	22626
874.979	22630
875.108	22622
875.237	22603
875.365	22554
875.494	22596
875.623	22736
875.751	22569
875.88	22630
876.008	22740
876.136	22793
876.265	23086
876.393	23216
876.521	23060
876.65	23044
876.778	23029
876.906	23048
877.034	23006
877.162	22957
877.29	22930
877.418	22923
877.546	23075
877.674	22934
877.802	22885
877.93	23022
878.058	23029
878.185	22790
878.313	22946
878.441	23010
878.568	22904
878.696	22911
878.824	22930
878.951	23166
879.079	23197
879.206	23258
879.333	23174
879.461	23014
879.588	23067
879.715	23102
879.842	23166
879.97	22908
880.097	22679
880.224	22675
880.351	22710
880.478	22919
880.605	22626
880.732	22736
880.859	22987
880.986	22790
881.112	22877
881.239	22843
881.366	22634
881.493	22402
881.619	22219
881.746	22417
881.872	22356
881.999	22428
882.125	22223
882.252	22390
882.378	22314
882.505	22466
882.631	22249
882.757	22120
882.883	22131
883.01	22204
883.136	22013
883.262	21945
883.388	21850
883.514	22044
883.64	22048
883.766	21991
883.892	21892
884.018	21937
884.143	22021
884.269	22090
884.395	21911
884.52	21663
884.646	21816
884.772	21641
884.897	21625
885.023	21728
885.148	21808
885.274	21797
885.399	21797
885.524	21762
885.65	21694
885.775	21762
885.9	21648
886.025	21922
886.15	21713
886.275	21572
886.4	21481
886.525	21682
886.65	21481
886.775	21622
886.9	21816
887.025	21941
887.149	21698
887.274	21477
887.399	21447
887.523	21374
887.648	21458
887.773	21348
887.897	21447
888.021	21454
888.146	21424
888.27	21458
888.395	21374
888.519	21428
888.643	21443
888.767	21477
888.891	21340
889.015	21150
889.139	21165
889.263	21161
889.387	21298
889.511	21389
889.635	21363
889.759	21116
889.883	21081
890.006	21085
890.13	21218
890.254	20956
890.377	21135
890.501	20979
890.624	20941
890.748	20941
890.871	20769
890.995	20670
891.118	20758
891.241	20743
891.364	20769
891.488	20883
891.611	20826
891.734	20625
891.857	20826
891.98	20785
892.103	20785
892.226	20838
892.349	20686
892.471	20476
892.594	20632
892.717	20735
892.839	20545
892.962	20655
893.085	20655
893.207	20644
893.33	20476
893.452	20457
893.575	20708
893.697	20693
893.819	20899
893.941	20750
894.064	20762
894.186	20617
894.308	20594
894.43	20777
894.552	20857
894.674	20689
894.796	20511
894.918	20587
895.04	20670
895.161	20800
895.283	20724
895.405	20716
895.526	20541
895.648	20514
895.769	20636
895.891	20765
896.012	20765
896.134	20845
896.255	20701
896.376	20629
896.498	20727
896.619	20906
896.74	20727
896.861	20697
896.982	21028
897.103	21138
897.224	21024
897.345	20933
897.466	20811
897.587	21005
897.708	20967
897.828	20960
897.949	20868
898.07	20853
898.19	20838
898.311	20910
898.431	20735
898.552	20895
898.672	20956
898.792	20838
898.913	20800
899.033	20629
899.153	20541
899.273	20377
899.393	20446
899.513	20514
899.633	20552
899.753	20651
899.873	20419
899.993	20484
900.113	20480
900.232	20427
900.352	20450
900.472	20457
900.591	20309
900.711	20229
900.83	20183
900.95	20457
901.069	20385
901.189	20320
901.308	19993
901.427	19936
901.546	19997
901.665	19959
901.784	19932
901.904	19734
902.023	19651
902.141	19460
902.26	19464
902.379	19533
902.498	19381
902.617	19472
902.735	19415
902.854	19251
902.973	19263
903.091	19156
903.21	19046
903.328	18981
903.446	18932
903.565	18810
903.683	18734
903.801	18878
903.919	18810
904.038	18726
904.156	18669
904.274	18764
904.392	18631
904.51	18612
904.627	18536
904.745	18757
904.863	18551
904.981	18327
905.098	18258
905.216	18266
905.334	18304
905.451	18319
905.569	18194
905.686	18376
905.803	18247
905.921	18064
906.038	18098
906.155	18110
906.272	17942
906.389	18022
906.506	17687
906.623	17741
906.74	17703
906.857	17722
906.974	17634
907.091	17779
907.208	17878
907.324	17828
907.441	17653
907.557	17493
907.674	17562
907.79	17395
907.907	17414
908.023	17463
908.139	17490
908.256	17387
908.372	17341
908.488	17280
908.604	16991
908.72	17105
908.836	17124
908.952	17079
909.068	17132
909.184	17250
909.3	17113
909.415	17094
909.531	17086
909.647	16995
909.762	16828
909.878	16774
909.993	16771
910.108	16748
910.224	16592
910.339	16748
910.454	16656
910.57	16603
910.685	16508
910.8	16710
910.915	16752
911.03	16603
911.145	16382
911.259	16341
911.374	16318
911.489	16226
911.604	16162
911.718	16135
911.833	16131
911.947	15945
912.062	16040
912.176	16177
912.291	16120
912.405	16139
912.519	16440
912.633	16333
912.748	16204
912.862	16105
912.976	15945
913.09	15880
913.204	15907
913.318	15975
913.431	15987
913.545	16010
913.659	15987
913.772	15934
913.886	15720
914	15739
914.113	15812
914.226	15854
914.34	15816
914.453	15679
914.566	15770
914.68	15671
914.793	15492
914.906	15355
915.019	15321
915.132	15264
915.245	15313
915.358	15359
915.47	15374
915.583	15310
915.696	15367
915.809	15367
915.921	15481
916.034	15256
916.146	15306
916.259	15207
916.371	15268
916.483	15241
916.595	15188
916.708	15157
916.82	15176
916.932	15108
917.044	14956
917.156	15089
917.268	14872
917.38	14918
917.491	14963
917.603	14960
917.715	14902
917.826	15024
917.938	14986
918.049	14925
918.161	14815
918.272	15062
918.384	15020
918.495	14853
918.606	14769
918.717	14708
918.828	14769
918.939	14689
919.05	14545
919.161	14644
919.272	14461
919.383	14602
919.494	14701
919.604	14929
919.715	14568
919.826	14530
919.936	14590
920.047	14659
920.157	14678
920.267	14781
920.378	14621
920.488	14659
920.598	14880
920.708	14960
920.818	14720
920.928	14739
921.038	14876
921.148	14758
921.258	14575
921.368	14438
921.477	14309
921.587	14377
921.697	14180
921.806	14351
921.916	14084
922.025	14069
922.134	14077
922.244	13947
922.353	14031
922.462	13894
922.571	13860
922.68	13658
922.789	13559
922.898	13605
923.007	13582
923.116	13567
923.224	13651
923.333	13502
923.442	13365
923.55	13468
923.659	13384
923.767	13468
923.876	13312
923.984	13510
924.092	13312
924.201	13354
924.309	13422
924.417	13331
924.525	13225
924.633	13301
924.741	14046
924.849	13069
924.956	13251
925.064	13000
925.172	12962
925.279	13012
925.387	13050
925.494	13000
925.602	13080
925.709	13122
925.816	12897
925.924	12958
926.031	13122
926.138	12882
926.245	12924
926.352	12894
926.459	12996
926.566	12993
926.673	12856
926.779	12802
926.886	12677
926.993	12540
927.099	12494
927.206	12528
927.312	12490
927.419	12566
927.525	12570
927.631	12589
927.737	12544
927.843	12407
927.95	12289
928.056	12376
928.162	12395
928.267	12391
928.373	13015
928.479	12532
928.585	12258
928.69	12338
928.796	12372
928.901	12213
929.007	12125
929.112	12148
929.218	12110
929.323	12152
929.428	12083
929.533	12285
929.638	11996
929.743	12026
929.848	12140
929.953	12011
930.058	11908
930.163	11802
930.267	11722
930.372	11912
930.477	11733
930.581	11961
930.685	11859
930.79	11684
930.894	11680
930.998	11684
931.103	11710
931.207	11356
931.311	11356
931.415	11220
931.519	11086
931.623	11048
