Data from test_V78500241_3061.txt Node
Date: Fri Mar 25 16:03:00 CST 2022
User: usil
Spectrometer: V785-0024
Trigger mode: 0
Integration Time (sec): 4.000000E-1
Scans to average: 1
Nonlinearity correction enabled: false
Boxcar width: 0
Storing dark spectrum: false
XAxis mode: Wavelengths
Number of Pixels in Spectrum: 1024
>>>>>Begin Spectral Data<<<<<
801.071	28698
801.214	28729
801.356	28508
801.499	28531
801.641	28265
801.783	28390
801.926	28363
802.068	28242
802.211	28299
802.353	28268
802.496	28211
802.638	28147
802.78	28025
802.923	27964
803.065	27975
803.208	27918
803.35	28002
803.492	28238
803.635	28371
803.777	28219
803.919	28455
804.061	28554
804.204	28177
804.346	28226
804.488	28276
804.63	28181
804.773	28139
804.915	28356
805.057	28428
805.199	28230
805.341	28360
805.483	28478
805.626	28451
805.768	28310
805.91	28386
806.052	28432
806.194	28322
806.336	28611
806.478	28577
806.62	28561
806.762	28603
806.904	28706
807.046	29102
807.188	28881
807.33	28953
807.472	29041
807.614	28812
807.756	28839
807.898	28786
808.04	28809
808.182	28618
808.324	28896
808.465	28774
808.607	29044
808.749	29060
808.891	29185
809.033	29288
809.174	29269
809.316	29037
809.458	29140
809.6	29189
809.741	29200
809.883	29368
810.025	29467
810.166	29417
810.308	29482
810.45	29455
810.591	29379
810.733	29140
810.875	29204
811.016	29143
811.158	29029
811.299	29265
811.441	29379
811.582	29334
811.724	29181
811.865	29075
812.007	29140
812.148	29261
812.29	29170
812.431	29284
812.573	29531
812.714	29516
812.855	29653
812.997	29805
813.138	29870
813.279	29851
813.421	29718
813.562	29687
813.703	29452
813.845	29356
813.986	29022
814.127	28984
814.268	28778
814.41	28942
814.551	28869
814.692	28900
814.833	28854
814.974	28824
815.115	28862
815.256	28919
815.397	28771
815.539	28713
815.68	28733
815.821	28588
815.962	28694
816.103	28679
816.244	28607
816.385	28519
816.526	28592
816.666	28265
816.807	28211
816.948	28409
817.089	28257
817.23	28249
817.371	28249
817.512	28284
817.653	28162
817.793	28173
817.934	28238
818.075	28223
818.216	28291
818.356	28181
818.497	28287
818.638	27880
818.778	27911
818.919	27956
819.06	28010
819.2	28055
819.341	28287
819.481	28173
819.622	28398
819.762	28504
819.903	28478
820.043	28360
820.184	28196
820.324	28451
820.465	28459
820.605	28421
820.746	28295
820.886	28093
821.026	28375
821.167	28291
821.307	28303
821.447	28082
821.588	28036
821.728	28078
821.868	27797
822.008	27743
822.149	27789
822.289	27610
822.429	27367
822.569	27363
822.709	27405
822.849	27245
822.99	27287
823.13	27241
823.27	27135
823.41	27081
823.55	27066
823.69	27100
823.83	27028
823.97	26895
824.11	26823
824.25	26826
824.389	27024
824.529	26940
824.669	26868
824.809	27020
824.949	26994
825.089	26918
825.228	26883
825.368	26739
825.508	26686
825.648	26693
825.787	26651
825.927	26861
826.067	26701
826.206	26663
826.346	26701
826.485	26746
826.625	26765
826.765	26781
826.904	26838
827.044	26571
827.183	26568
827.323	26434
827.462	26617
827.601	26309
827.741	26480
827.88	26450
828.02	26480
828.159	26461
828.298	26469
828.437	26465
828.577	26370
828.716	26583
828.855	26324
828.994	25997
829.134	26199
829.273	26134
829.412	26145
829.551	26164
829.69	26210
829.829	26111
829.968	26305
830.107	26046
830.246	26092
830.385	25966
830.524	25982
830.663	25947
830.802	25894
830.941	25750
831.08	25795
831.219	25890
831.357	25833
831.496	25947
831.635	25780
831.774	25540
831.913	25708
832.051	25533
832.19	25540
832.329	25457
832.467	25601
832.606	25225
832.744	25487
832.883	25434
833.022	25483
833.16	25282
833.299	25502
833.437	25445
833.576	25434
833.714	25460
833.852	25518
833.991	25422
834.129	25696
834.267	25457
834.406	25521
834.544	25400
834.682	25495
834.821	25506
834.959	25605
835.097	25449
835.235	25518
835.373	25483
835.511	25449
835.65	25396
835.788	25388
835.926	25187
836.064	25187
836.202	25110
836.34	25228
836.478	25422
836.615	25354
836.753	25362
836.891	25308
837.029	25396
837.167	25270
837.305	25175
837.443	25145
837.58	25168
837.718	25228
837.856	25198
837.993	25107
838.131	25004
838.269	24985
838.406	24992
838.544	24989
838.681	24833
838.819	24658
838.956	24574
839.094	24631
839.231	24521
839.369	24749
839.506	25008
839.643	24783
839.781	24570
839.918	24486
840.055	24669
840.193	24616
840.33	24395
840.467	24498
840.604	24589
840.742	24829
840.879	24376
841.016	24376
841.153	24414
841.29	24448
841.427	24589
841.564	24544
841.701	24479
841.838	24403
841.975	24498
842.112	24300
842.249	24323
842.385	24258
842.522	24338
842.659	24289
842.796	24315
842.933	24201
843.069	24201
843.206	24262
843.343	24391
843.479	24247
843.616	24311
843.752	24125
843.889	24140
844.025	24171
844.162	23901
844.298	24152
844.435	24018
844.571	23999
844.708	24053
844.844	24190
844.98	24117
845.117	24125
845.253	24144
845.389	23958
845.525	23935
845.661	23882
845.798	23748
845.934	23802
846.07	23703
846.206	23874
846.342	23817
846.478	23786
846.614	23512
846.75	23406
846.886	23535
847.022	23547
847.158	23554
847.294	23566
847.429	23695
847.565	23482
847.701	23611
847.837	23193
847.972	23204
848.108	23315
848.244	23391
848.379	23094
848.515	23018
848.65	23098
848.786	23029
848.921	23060
849.057	23105
849.192	23109
849.328	23083
849.463	23113
849.598	22957
849.734	23022
849.869	22889
850.004	22980
850.14	22862
850.275	22889
850.41	22801
850.545	22831
850.68	22790
850.815	22858
850.95	22771
851.085	23056
851.22	22938
851.355	22896
851.49	22805
851.625	22683
851.76	22805
851.895	22782
852.03	22934
852.165	22881
852.299	22866
852.434	22911
852.569	22869
852.703	22889
852.838	22900
852.973	22946
853.107	22980
853.242	22759
853.376	22782
853.511	22443
853.645	22721
853.78	22881
853.914	22637
854.048	22557
854.183	22694
854.317	22668
854.451	22900
854.585	22687
854.72	22573
854.854	22660
854.988	22516
855.122	22733
855.256	22447
855.39	22672
855.524	22557
855.658	22660
855.792	22706
855.926	22664
856.06	22698
856.194	22752
856.327	22550
856.461	22637
856.595	22527
856.729	22634
856.862	22771
856.996	22835
857.13	22733
857.263	22839
857.397	22706
857.53	22691
857.664	22801
857.797	22649
857.931	22873
858.064	22748
858.197	22839
858.331	22634
858.464	22603
858.597	22653
858.731	22622
858.864	22592
858.997	22672
859.13	22698
859.263	22615
859.396	22679
859.529	22691
859.662	22645
859.795	22546
859.928	22710
860.061	22771
860.194	22828
860.327	22706
860.46	22748
860.592	22634
860.725	22748
860.858	22786
860.99	22740
861.123	22626
861.256	22679
861.388	22790
861.521	23288
861.653	22550
861.786	22489
861.918	22630
862.05	22557
862.183	22557
862.315	22584
862.447	22672
862.58	22603
862.712	22352
862.844	22402
862.976	22417
863.108	22398
863.24	22869
863.372	22348
863.504	22405
863.636	22379
863.768	22485
863.9	22333
864.032	22310
864.164	22295
864.296	22360
864.428	22314
864.559	22443
864.691	22432
864.823	22363
864.954	22512
865.086	22257
865.217	22192
865.349	22112
865.48	22204
865.612	22242
865.743	22287
865.875	22150
866.006	22352
866.137	22341
866.269	22234
866.4	22188
866.531	22207
866.662	22207
866.793	22090
866.924	22261
867.055	22120
867.186	22196
867.317	22162
867.448	22067
867.579	22154
867.71	22185
867.841	22017
867.972	22265
868.103	22173
868.233	22226
868.364	22219
868.495	22185
868.625	22337
868.756	22493
868.886	22352
869.017	22436
869.147	22470
869.278	22504
869.408	22493
869.539	22333
869.669	22474
869.799	22504
869.929	22607
870.06	22455
870.19	22694
870.32	22672
870.45	22721
870.58	22793
870.71	22957
870.84	22839
870.97	22900
871.1	22915
871.23	23079
871.36	23060
871.489	22923
871.619	22896
871.749	23033
871.879	23216
872.008	23155
872.138	23064
872.267	23041
872.397	22866
872.526	22854
872.656	22923
872.785	22942
872.915	23075
873.044	23117
873.173	22942
873.303	23094
873.432	23079
873.561	23269
873.69	22980
873.819	23044
873.948	23048
874.077	23029
874.206	23044
874.335	23162
874.464	23223
874.593	23258
874.722	23303
874.851	23288
874.979	23334
875.108	23212
875.237	23254
875.365	23185
875.494	23197
875.623	23337
875.751	23174
875.88	23414
876.008	23372
876.136	23330
876.265	23634
876.393	23745
876.521	23665
876.65	23714
876.778	23668
876.906	23486
877.034	23497
877.162	23577
877.29	23566
877.418	23562
877.546	23684
877.674	23596
877.802	23459
877.93	23570
878.058	23486
878.185	23425
878.313	23463
878.441	23452
878.568	23463
878.696	23611
878.824	23634
878.951	23775
879.079	23592
879.206	23954
879.333	23813
879.461	23596
879.588	23668
879.715	23745
879.842	23878
879.97	23653
880.097	23471
880.224	23395
880.351	23417
880.478	23341
880.605	23509
880.732	23296
880.859	23802
880.986	23330
881.112	23444
881.239	23261
881.366	23155
881.493	23162
881.619	23060
881.746	23025
881.872	22934
881.999	22934
882.125	22839
882.252	22976
882.378	22938
882.505	23006
882.631	22729
882.757	22771
882.883	22866
883.01	22641
883.136	22554
883.262	22417
883.388	22474
883.514	22622
883.64	22645
883.766	22542
883.892	22451
884.018	22481
884.143	22557
884.269	22733
884.395	22333
884.52	22196
884.646	22352
884.772	22211
884.897	22154
885.023	22276
885.148	22318
885.274	22421
885.399	22352
885.524	22284
885.65	22306
885.775	22215
885.9	22265
886.025	22325
886.15	22360
886.275	22219
886.4	22223
886.525	22394
886.65	22169
886.775	22192
886.9	22352
887.025	22379
887.149	22257
887.274	22128
887.399	22070
887.523	21953
887.648	21968
887.773	21911
887.897	22101
888.021	22173
888.146	22070
888.27	22097
888.395	22109
888.519	22029
888.643	22051
888.767	22158
888.891	21968
889.015	21785
889.139	21880
889.263	21667
889.387	21926
889.511	22063
889.635	22013
889.759	21842
889.883	21671
890.006	21682
890.13	21949
890.254	21724
890.377	21671
890.501	21564
890.624	21549
890.748	21595
890.871	21397
890.995	21374
891.118	21408
891.241	21374
891.364	21397
891.488	21469
891.611	21363
891.734	21424
891.857	21466
891.98	21435
892.103	21378
892.226	21378
892.349	21359
892.471	21272
892.594	21321
892.717	21306
892.839	21169
892.962	21264
893.085	21268
893.207	21226
893.33	21173
893.452	21199
893.575	21287
893.697	21294
893.819	21435
893.941	21416
894.064	21332
894.186	21169
894.308	21104
894.43	21382
894.552	21428
894.674	21313
894.796	21188
894.918	21241
895.04	21233
895.161	21355
895.283	21256
895.405	21252
895.526	21344
895.648	21150
895.769	21268
895.891	21218
896.012	21401
896.134	21275
896.255	21157
896.376	21169
896.498	21291
896.619	21207
896.74	21165
896.861	21386
896.982	21614
897.103	21770
897.224	21439
897.345	21408
897.466	21306
897.587	21439
897.708	21618
897.828	21420
897.949	21336
898.07	21176
898.19	21447
898.311	21492
898.431	21370
898.552	21477
898.672	21477
898.792	21439
898.913	21477
899.033	21291
899.153	21199
899.273	21074
899.393	21192
899.513	21226
899.633	21085
899.753	21176
899.873	21142
899.993	21138
900.113	20982
900.232	21100
900.352	21036
900.472	21001
900.591	20857
900.711	20861
900.83	20845
900.95	20838
901.069	21043
901.189	20777
901.308	20575
901.427	20377
901.546	20450
901.665	20454
901.784	20503
901.904	20328
902.023	20267
902.141	20088
902.26	20119
902.379	19978
902.498	19970
902.617	20043
902.735	20001
902.854	19875
902.973	19715
903.091	19681
903.21	19731
903.328	19662
903.446	19628
903.565	19438
903.683	19430
903.801	19373
903.919	19411
904.038	19308
904.156	19122
904.274	19324
904.392	19228
904.51	19095
904.627	19126
904.745	19362
904.863	19255
904.981	18977
905.098	18802
905.216	18916
905.334	18783
905.451	18829
905.569	18810
905.686	18791
905.803	18863
905.921	18585
906.038	18677
906.155	18730
906.272	18601
906.389	18521
906.506	18467
906.623	18414
906.74	18342
906.857	18235
906.974	18243
907.091	18479
907.208	18464
907.324	18403
907.441	18209
907.557	18106
907.674	18121
907.79	18053
907.907	18011
908.023	18148
908.139	18079
908.256	18083
908.372	17923
908.488	17935
908.604	17813
908.72	17798
908.836	17832
908.952	17805
909.068	17714
909.184	17828
909.3	17775
909.415	17764
909.531	17672
909.647	17554
909.762	17611
909.878	17482
909.993	17474
910.108	17429
910.224	17406
910.339	17383
910.454	17448
910.57	17284
910.685	17250
910.8	17474
910.915	17448
911.03	17334
911.145	17136
911.259	16991
911.374	17083
911.489	17022
911.604	16949
911.718	16862
911.833	16915
911.947	16824
912.062	16656
912.176	16774
912.291	16767
912.405	16839
912.519	16938
912.633	17014
912.748	16793
912.862	16774
912.976	16687
913.09	16546
913.204	16630
913.318	16531
913.431	16694
913.545	16767
913.659	16835
913.772	16497
913.886	16333
914	16413
914.113	16546
914.226	16558
914.34	16432
914.453	16360
914.566	16470
914.68	16310
914.793	16306
914.906	16082
915.019	16051
915.132	15926
915.245	16029
915.358	16131
915.47	16048
915.583	15991
915.696	16017
915.809	16010
915.921	16128
916.034	15918
916.146	15953
916.259	15937
916.371	16010
916.483	16010
916.595	15808
916.708	15876
916.82	15800
916.932	15728
917.044	15759
917.156	15770
917.268	15599
917.38	15523
917.491	15625
917.603	15732
917.715	15732
917.826	15679
917.938	15545
918.049	15424
918.161	15511
918.272	15720
918.384	15622
918.495	15523
918.606	15420
918.717	15256
918.828	15405
918.939	15485
919.05	15313
919.161	15329
919.272	15062
919.383	15214
919.494	15431
919.604	15428
919.715	15313
919.826	15317
919.936	15260
920.047	15336
920.157	15359
920.267	15420
920.378	15272
920.488	15230
920.598	15500
920.708	15568
920.818	15393
920.928	15416
921.038	15633
921.148	15568
921.258	15218
921.368	15085
921.477	14963
921.587	14994
921.697	14899
921.806	14963
921.916	14796
922.025	14682
922.134	14575
922.244	14617
922.353	14621
922.462	14473
922.571	14499
922.68	14259
922.789	14259
922.898	14343
923.007	14183
923.116	14256
923.224	14271
923.333	14225
923.442	14138
923.55	14050
923.659	14126
923.767	14176
923.876	14103
923.984	14092
924.092	14012
924.201	14123
924.309	14012
924.417	14012
924.525	13932
924.633	13906
924.741	14689
924.849	13696
924.956	13830
925.064	13674
925.172	13693
925.279	13734
925.387	13784
925.494	13620
925.602	13727
925.709	13662
925.816	13609
925.924	13597
926.031	13628
926.138	13643
926.245	13533
926.352	13586
926.459	13575
926.566	13643
926.673	13582
926.779	13411
926.886	13335
926.993	13236
927.099	13187
927.206	13232
927.312	13114
927.419	13259
927.525	13206
927.631	13156
927.737	13107
927.843	13080
927.95	12916
928.056	13065
928.162	13034
928.267	13046
928.373	13616
928.479	13141
928.585	12814
928.69	12958
928.796	12966
928.901	12852
929.007	12745
929.112	12825
929.218	12791
929.323	12798
929.428	12703
929.533	12844
929.638	12688
929.743	12696
929.848	12715
929.953	12719
930.058	12544
930.163	12460
930.267	12464
930.372	12475
930.477	12426
930.581	12612
930.685	12388
930.79	12220
930.894	12311
930.998	12213
931.103	12395
931.207	11999
931.311	11893
931.415	11931
931.519	11623
931.623	11668
