Data from test_V78500241_2418.txt Node
Date: Fri Mar 25 15:58:33 CST 2022
User: usil
Spectrometer: V785-0024
Trigger mode: 0
Integration Time (sec): 4.000000E-1
Scans to average: 1
Nonlinearity correction enabled: false
Boxcar width: 0
Storing dark spectrum: false
XAxis mode: Wavelengths
Number of Pixels in Spectrum: 1024
>>>>>Begin Spectral Data<<<<<
801.071	28786
801.214	28725
801.356	28596
801.499	28508
801.641	28455
801.783	28394
801.926	28367
802.068	28394
802.211	28344
802.353	28253
802.496	28162
802.638	28097
802.78	27918
802.923	27895
803.065	27854
803.208	27892
803.35	28044
803.492	28226
803.635	28333
803.777	28139
803.919	28257
804.061	28634
804.204	28417
804.346	28253
804.488	28280
804.63	28219
804.773	28196
804.915	28356
805.057	28504
805.199	28272
805.341	28379
805.483	28417
805.626	28398
805.768	28348
805.91	28497
806.052	28557
806.194	28459
806.336	28656
806.478	28386
806.62	28481
806.762	28538
806.904	28839
807.046	29044
807.188	28885
807.33	28896
807.472	28824
807.614	28915
807.756	28885
807.898	28752
808.04	28641
808.182	28797
808.324	28679
808.465	28869
808.607	28965
808.749	29044
808.891	29223
809.033	29402
809.174	29079
809.316	29117
809.458	29155
809.6	29086
809.741	29216
809.883	29421
810.025	29501
810.166	29433
810.308	29387
810.45	29436
810.591	29303
810.733	29231
810.875	29277
811.016	29003
811.158	29079
811.299	29368
811.441	29318
811.582	29223
811.724	29204
811.865	29185
812.007	29254
812.148	29216
812.29	29174
812.431	29303
812.573	29539
812.714	29589
812.855	29592
812.997	29805
813.138	29965
813.279	29862
813.421	29615
813.562	29623
813.703	29493
813.845	29414
813.986	29124
814.127	29086
814.268	28900
814.41	28873
814.551	28793
814.692	28824
814.833	28820
814.974	28888
815.115	28854
815.256	28687
815.397	28729
815.539	28649
815.68	28656
815.821	28649
815.962	28805
816.103	28519
816.244	28561
816.385	28516
816.526	28440
816.666	28249
816.807	28070
816.948	28424
817.089	28329
817.23	28272
817.371	28188
817.512	28158
817.653	28196
817.793	28177
817.934	28249
818.075	28207
818.216	28280
818.356	28116
818.497	28097
818.638	27979
818.778	27991
818.919	27926
819.06	27956
819.2	27941
819.341	28154
819.481	28169
819.622	28249
819.762	28512
819.903	28474
820.043	28421
820.184	28265
820.324	28348
820.465	28481
820.605	28489
820.746	28360
820.886	28143
821.026	28276
821.167	28318
821.307	28428
821.447	28249
821.588	28112
821.728	28006
821.868	27831
822.008	27743
822.149	27637
822.289	27637
822.429	27401
822.569	27306
822.709	27340
822.849	27203
822.99	27066
823.13	27184
823.27	27173
823.41	26937
823.55	26895
823.69	27154
823.83	26887
823.97	26891
824.11	26724
824.25	26670
824.389	26899
824.529	26754
824.669	26762
824.809	27001
824.949	26895
825.089	26902
825.228	26800
825.368	26670
825.508	26689
825.648	26701
825.787	26842
825.927	26864
826.067	26613
826.206	26640
826.346	26587
826.485	26826
826.625	26674
826.765	26769
826.904	26861
827.044	26511
827.183	26522
827.323	26533
827.462	26602
827.601	26370
827.741	26362
827.88	26438
828.02	26389
828.159	26396
828.298	26423
828.437	26598
828.577	26427
828.716	26552
828.855	26233
828.994	26096
829.134	26164
829.273	26119
829.412	26027
829.551	26142
829.69	26199
829.829	26176
829.968	26305
830.107	26115
830.246	26077
830.385	25970
830.524	26130
830.663	25997
830.802	25788
830.941	25681
831.08	25750
831.219	25898
831.357	25837
831.496	25986
831.635	25616
831.774	25575
831.913	25495
832.051	25548
832.19	25506
832.329	25518
832.467	25316
832.606	25388
832.744	25365
832.883	25441
833.022	25388
833.16	25441
833.299	25449
833.437	25358
833.576	25525
833.714	25388
833.852	25533
833.991	25594
834.129	25499
834.267	25483
834.406	25586
834.544	25460
834.682	25411
834.821	25384
834.959	25632
835.097	25407
835.235	25457
835.373	25419
835.511	25388
835.65	25441
835.788	25270
835.926	25225
836.064	25107
836.202	25027
836.34	25232
836.478	25312
836.615	25236
836.753	25247
836.891	25274
837.029	25289
837.167	25171
837.305	25103
837.443	25129
837.58	25122
837.718	25164
837.856	25126
837.993	24905
838.131	25148
838.269	24844
838.406	24970
838.544	24901
838.681	24829
838.819	24722
838.956	24570
839.094	24521
839.231	24566
839.369	24768
839.506	24977
839.643	24829
839.781	24551
839.918	24650
840.055	24502
840.193	24509
840.33	24494
840.467	24365
840.604	24528
840.742	24856
840.879	24361
841.016	24433
841.153	24254
841.29	24525
841.427	24445
841.564	24639
841.701	24528
841.838	24365
841.975	24372
842.112	24410
842.249	24292
842.385	24300
842.522	24505
842.659	24270
842.796	24144
842.933	24270
843.069	24125
843.206	24186
843.343	24270
843.479	24304
843.616	24136
843.752	24083
843.889	23961
844.025	24152
844.162	23946
844.298	23931
844.435	24026
844.571	23885
844.708	23863
844.844	24174
844.98	24083
845.117	23977
845.253	23885
845.389	23779
845.525	23828
845.661	23767
845.798	23684
845.934	23821
846.07	23668
846.206	23752
846.342	23840
846.478	23737
846.614	23509
846.75	23524
846.886	23391
847.022	23600
847.158	23516
847.294	23490
847.429	23512
847.565	23410
847.701	23710
847.837	23010
847.972	23121
848.108	23307
848.244	23170
848.379	23037
848.515	22987
848.65	23048
848.786	23029
848.921	23037
849.057	23109
849.192	23102
849.328	23117
849.463	23079
849.598	22927
849.734	22896
849.869	22885
850.004	22809
850.14	22828
850.275	22820
850.41	22778
850.545	22809
850.68	22736
850.815	22713
850.95	22691
851.085	22961
851.22	22949
851.355	22892
851.49	22736
851.625	22710
851.76	22824
851.895	22748
852.03	22687
852.165	22771
852.299	22782
852.434	22831
852.569	22957
852.703	22721
852.838	22885
852.973	22927
853.107	22919
853.242	22786
853.376	22694
853.511	22531
853.645	22691
853.78	22759
853.914	22698
854.048	22603
854.183	22634
854.317	22710
854.451	23014
854.585	22618
854.72	22554
854.854	22721
854.988	22523
855.122	22550
855.256	22432
855.39	22588
855.524	22694
855.658	22820
855.792	22664
855.926	22736
856.06	22634
856.194	22672
856.327	22713
856.461	22535
856.595	22618
856.729	22683
856.862	22736
856.996	22649
857.13	22713
857.263	22729
857.397	22626
857.53	22615
857.664	22656
857.797	22911
857.931	22736
858.064	22660
858.197	22675
858.331	22649
858.464	22687
858.597	22504
858.731	22508
858.864	22527
858.997	22649
859.13	22698
859.263	22637
859.396	22752
859.529	22622
859.662	22698
859.795	22599
859.928	22691
860.061	22900
860.194	22778
860.327	22729
860.46	22588
860.592	22729
860.725	22736
860.858	22717
860.99	22752
861.123	22634
861.256	22580
861.388	22523
861.521	23318
861.653	22573
861.786	22409
861.918	22493
862.05	22413
862.183	22569
862.315	22535
862.447	22637
862.58	22588
862.712	22344
862.844	22546
862.976	22371
863.108	22268
863.24	22668
863.372	22382
863.504	22257
863.636	22310
863.768	22402
863.9	22268
864.032	22230
864.164	22337
864.296	22253
864.428	22500
864.559	22382
864.691	22352
864.823	22306
864.954	22261
865.086	22284
865.217	22169
865.349	22204
865.48	22070
865.612	22162
865.743	22333
865.875	22150
866.006	22143
866.137	22188
866.269	22181
866.4	22272
866.531	22086
866.662	22070
866.793	22101
866.924	22093
867.055	22185
867.186	22143
867.317	22120
867.448	22078
867.579	22086
867.71	21979
867.841	22067
867.972	22101
868.103	22055
868.233	22173
868.364	22188
868.495	22268
868.625	22341
868.756	22451
868.886	22485
869.017	22352
869.147	22478
869.278	22421
869.408	22405
869.539	22379
869.669	22436
869.799	22413
869.929	22519
870.06	22561
870.19	22755
870.32	22683
870.45	22839
870.58	22691
870.71	22892
870.84	22869
870.97	22763
871.1	22752
871.23	22820
871.36	23067
871.489	22824
871.619	22930
871.749	23014
871.879	22942
872.008	23147
872.138	23086
872.267	22999
872.397	22900
872.526	22885
872.656	22835
872.785	22649
872.915	23052
873.044	22953
873.173	22934
873.303	23003
873.432	23033
873.561	23132
873.69	23006
873.819	23083
873.948	23018
874.077	22980
874.206	22881
874.335	22927
874.464	23151
874.593	23185
874.722	23113
874.851	23220
874.979	23132
875.108	23227
875.237	23193
875.365	23216
875.494	23250
875.623	23269
875.751	23079
875.88	23239
876.008	23334
876.136	23455
876.265	23566
876.393	23874
876.521	23585
876.65	23627
876.778	23661
876.906	23554
877.034	23524
877.162	23551
877.29	23497
877.418	23665
877.546	23608
877.674	23539
877.802	23505
877.93	23558
878.058	23581
878.185	23368
878.313	23615
878.441	23330
878.568	23334
878.696	23558
878.824	23581
878.951	23638
879.079	23680
879.206	23939
879.333	23836
879.461	23668
879.588	23592
879.715	23695
879.842	23733
879.97	23630
880.097	23429
880.224	23402
880.351	23421
880.478	23410
880.605	23265
880.732	23315
880.859	23627
880.986	23402
881.112	23482
881.239	23200
881.366	23235
881.493	23029
881.619	22957
881.746	22915
881.872	23037
881.999	22995
882.125	22968
882.252	22999
882.378	22908
882.505	22980
882.631	22752
882.757	22561
882.883	22843
883.01	22596
883.136	22554
883.262	22428
883.388	22360
883.514	22618
883.64	22561
883.766	22375
883.892	22276
884.018	22447
884.143	22584
884.269	22489
884.395	22261
884.52	22109
884.646	22341
884.772	22253
884.897	22090
885.023	22196
885.148	22322
885.274	22360
885.399	22238
885.524	22207
885.65	22253
885.775	22211
885.9	22135
886.025	22352
886.15	22284
886.275	22207
886.4	22200
886.525	22207
886.65	22135
886.775	22120
886.9	22318
887.025	22402
887.149	22280
887.274	22006
887.399	22029
887.523	22013
887.648	22086
887.773	21835
887.897	22063
888.021	22025
888.146	22006
888.27	22002
888.395	22040
888.519	21983
888.643	21861
888.767	21964
888.891	22010
889.015	21819
889.139	21865
889.263	21739
889.387	21968
889.511	21998
889.635	21922
889.759	21648
889.883	21789
890.006	21778
890.13	21918
890.254	21675
890.377	21644
890.501	21625
890.624	21572
890.748	21492
890.871	21526
890.995	21325
891.118	21214
891.241	21336
891.364	21294
891.488	21382
891.611	21344
891.734	21344
891.857	21310
891.98	21291
892.103	21393
892.226	21298
892.349	21192
892.471	21233
892.594	21218
892.717	21340
892.839	21218
892.962	21294
893.085	21180
893.207	21218
893.33	21169
893.452	21112
893.575	21214
893.697	21184
893.819	21359
893.941	21374
894.064	21386
894.186	21192
894.308	21131
894.43	21374
894.552	21321
894.674	21260
894.796	21070
894.918	21260
895.04	21154
895.161	21222
895.283	21291
895.405	21241
895.526	21199
895.648	21108
895.769	21252
895.891	21180
896.012	21157
896.134	21256
896.255	21093
896.376	21142
896.498	21192
896.619	21298
896.74	21291
896.861	21245
896.982	21629
897.103	21591
897.224	21386
897.345	21454
897.466	21367
897.587	21378
897.708	21462
897.828	21435
897.949	21252
898.07	21192
898.19	21321
898.311	21397
898.431	21336
898.552	21439
898.672	21496
898.792	21473
898.913	21408
899.033	21214
899.153	21142
899.273	21081
899.393	21146
899.513	21142
899.633	21138
899.753	21070
899.873	20933
899.993	21100
900.113	21104
900.232	21066
900.352	20895
900.472	20925
900.591	20902
900.711	20826
900.83	20762
900.95	20925
901.069	20990
901.189	20804
901.308	20556
901.427	20427
901.546	20423
901.665	20434
901.784	20431
901.904	20313
902.023	20229
902.141	20012
902.26	20016
902.379	19906
902.498	19917
902.617	19868
902.735	20027
902.854	19936
902.973	19799
903.091	19674
903.21	19563
903.328	19601
903.446	19578
903.565	19396
903.683	19430
903.801	19304
903.919	19346
904.038	19350
904.156	19308
904.274	19244
904.392	19038
904.51	19091
904.627	19179
904.745	19194
904.863	19164
904.981	18924
905.098	18894
905.216	18779
905.334	18745
905.451	18852
905.569	18772
905.686	18882
905.803	18806
905.921	18601
906.038	18677
906.155	18646
906.272	18517
906.389	18445
906.506	18372
906.623	18353
906.74	18308
906.857	18224
906.974	18330
907.091	18483
907.208	18346
907.324	18426
907.441	18319
907.557	18034
907.674	18041
907.79	17969
907.907	17969
908.023	18068
908.139	18068
908.256	17992
908.372	18041
908.488	18102
908.604	17916
908.72	17824
908.836	17821
908.952	17672
909.068	17790
909.184	17916
909.3	17847
909.415	17847
909.531	17790
909.647	17547
909.762	17535
909.878	17372
909.993	17414
910.108	17455
910.224	17425
910.339	17421
910.454	17368
910.57	17280
910.685	17174
910.8	17463
910.915	17414
911.03	17261
911.145	17064
911.259	17098
911.374	16999
911.489	16938
911.604	17014
911.718	16752
911.833	16778
911.947	16702
912.062	16622
912.176	16820
912.291	16866
912.405	16683
912.519	16843
912.633	17003
912.748	16877
912.862	16835
912.976	16603
913.09	16485
913.204	16516
913.318	16508
913.431	16717
913.545	16656
913.659	16664
913.772	16516
913.886	16356
914	16268
914.113	16462
914.226	16542
914.34	16382
914.453	16348
914.566	16337
914.68	16287
914.793	16188
914.906	16032
915.019	16006
915.132	15918
915.245	15831
915.358	15937
915.47	16017
915.583	15918
915.696	15857
915.809	16036
915.921	16067
916.034	15994
916.146	15770
916.259	15876
916.371	15918
916.483	15869
916.595	15762
916.708	15709
916.82	15789
916.932	15774
917.044	15800
917.156	15671
917.268	15500
917.38	15561
917.491	15530
917.603	15675
917.715	15603
917.826	15648
917.938	15488
918.049	15428
918.161	15477
918.272	15599
918.384	15644
918.495	15545
918.606	15435
918.717	15249
918.828	15237
918.939	15355
919.05	15287
919.161	15317
919.272	14971
919.383	15146
919.494	15340
919.604	15553
919.715	15363
919.826	15298
919.936	15188
920.047	15447
920.157	15256
920.267	15439
920.378	15355
920.488	15264
920.598	15473
920.708	15633
920.818	15431
920.928	15393
921.038	15538
921.148	15466
921.258	15298
921.368	15097
921.477	15013
921.587	15020
921.697	14834
921.806	14937
921.916	14853
922.025	14636
922.134	14670
922.244	14594
922.353	14739
922.462	14587
922.571	14389
922.68	14324
922.789	14218
922.898	14275
923.007	14305
923.116	14370
923.224	14259
923.333	14210
923.442	14134
923.55	14084
923.659	14123
923.767	14172
923.876	14096
923.984	14084
924.092	13993
924.201	14027
924.309	13936
924.417	14024
924.525	13936
924.633	13928
924.741	14724
924.849	13727
924.956	13890
925.064	13731
925.172	13734
925.279	13639
925.387	13746
925.494	13693
925.602	13772
925.709	13662
925.816	13582
925.924	13556
926.031	13651
926.138	13578
926.245	13567
926.352	13480
926.459	13674
926.566	13731
926.673	13529
926.779	13373
926.886	13335
926.993	13297
927.099	13095
927.206	13160
927.312	13190
927.419	13251
927.525	13282
927.631	13175
927.737	13057
927.843	13019
927.95	12989
928.056	13000
928.162	12943
928.267	13137
928.373	13624
928.479	13061
928.585	12829
928.69	12913
928.796	13000
928.901	12867
929.007	12772
929.112	12939
929.218	12856
929.323	12646
929.428	12711
929.533	12833
929.638	12665
929.743	12642
929.848	12654
929.953	12711
930.058	12604
930.163	12486
930.267	12391
930.372	12475
930.477	12319
930.581	12513
930.685	12418
930.79	12239
930.894	12338
930.998	12262
931.103	12388
931.207	12011
931.311	11874
931.415	11847
931.519	11741
931.623	11710
