Data from test_V78500241_3121.txt Node
Date: Fri Mar 25 16:03:25 CST 2022
User: usil
Spectrometer: V785-0024
Trigger mode: 0
Integration Time (sec): 4.000000E-1
Scans to average: 1
Nonlinearity correction enabled: false
Boxcar width: 0
Storing dark spectrum: false
XAxis mode: Wavelengths
Number of Pixels in Spectrum: 1024
>>>>>Begin Spectral Data<<<<<
801.071	28930
801.214	28919
801.356	28557
801.499	28497
801.641	28645
801.783	28352
801.926	28615
802.068	28588
802.211	28432
802.353	28367
802.496	28200
802.638	28242
802.78	28215
802.923	28257
803.065	28139
803.208	28215
803.35	28181
803.492	28386
803.635	28352
803.777	28306
803.919	28417
804.061	28839
804.204	28405
804.346	28474
804.488	28348
804.63	28360
804.773	28447
804.915	28424
805.057	28637
805.199	28413
805.341	28523
805.483	28554
805.626	28607
805.768	28588
805.91	28641
806.052	28641
806.194	28485
806.336	28767
806.478	28702
806.62	28664
806.762	28774
806.904	28995
807.046	29086
807.188	29140
807.33	29052
807.472	29014
807.614	29022
807.756	29048
807.898	28987
808.04	28873
808.182	28888
808.324	29025
808.465	28999
808.607	29113
808.749	29261
808.891	29383
809.033	29353
809.174	29273
809.316	29429
809.458	29204
809.6	29136
809.741	29383
809.883	29566
810.025	29672
810.166	29558
810.308	29524
810.45	29570
810.591	29402
810.733	29337
810.875	29360
811.016	29375
811.158	29227
811.299	29539
811.441	29573
811.582	29463
811.724	29383
811.865	29258
812.007	29326
812.148	29353
812.29	29372
812.431	29623
812.573	29779
812.714	29684
812.855	29836
812.997	29942
813.138	30102
813.279	29904
813.421	29817
813.562	29832
813.703	29558
813.845	29539
813.986	29414
814.127	29121
814.268	29064
814.41	29094
814.551	28957
814.692	29155
814.833	29010
814.974	29060
815.115	29048
815.256	28888
815.397	28946
815.539	28987
815.68	28847
815.821	28774
815.962	28854
816.103	28904
816.244	28759
816.385	28687
816.526	28736
816.666	28462
816.807	28268
816.948	28356
817.089	28478
817.23	28500
817.371	28329
817.512	28333
817.653	28405
817.793	28287
817.934	28314
818.075	28401
818.216	28337
818.356	28261
818.497	28207
818.638	28067
818.778	28158
818.919	28272
819.06	28211
819.2	28249
819.341	28318
819.481	28329
819.622	28645
819.762	28831
819.903	28561
820.043	28565
820.184	28512
820.324	28455
820.465	28470
820.605	28626
820.746	28485
820.886	28341
821.026	28527
821.167	28386
821.307	28474
821.447	28432
821.588	28303
821.728	28333
821.868	27964
822.008	27960
822.149	27907
822.289	28025
822.429	27629
822.569	27496
822.709	27648
822.849	27378
822.99	27424
823.13	27462
823.27	27329
823.41	27237
823.55	27116
823.69	27138
823.83	27169
823.97	27081
824.11	27013
824.25	27020
824.389	26994
824.529	27074
824.669	27005
824.809	27150
824.949	27074
825.089	27119
825.228	27135
825.368	26971
825.508	26929
825.648	26815
825.787	27081
825.927	27017
826.067	26861
826.206	26929
826.346	27119
826.485	26868
826.625	26952
826.765	26998
826.904	27058
827.044	26815
827.183	26651
827.323	26541
827.462	26876
827.601	26697
827.741	26632
827.88	26693
828.02	26556
828.159	26648
828.298	26739
828.437	26587
828.577	26629
828.716	26701
828.855	26629
828.994	26442
829.134	26233
829.273	26263
829.412	26366
829.551	26431
829.69	26377
829.829	26259
829.968	26446
830.107	26400
830.246	26336
830.385	26313
830.524	26172
830.663	26138
830.802	26027
830.941	25864
831.08	25913
831.219	25970
831.357	25966
831.496	26161
831.635	25868
831.774	25890
831.913	25826
832.051	25704
832.19	25734
832.329	25788
832.467	25708
832.606	25540
832.744	25483
832.883	25727
833.022	25586
833.16	25632
833.299	25521
833.437	25609
833.576	25681
833.714	25632
833.852	25578
833.991	25830
834.129	25731
834.267	25670
834.406	25693
834.544	25666
834.682	25685
834.821	25567
834.959	25814
835.097	25571
835.235	25693
835.373	25712
835.511	25826
835.65	25537
835.788	25624
835.926	25335
836.064	25251
836.202	25468
836.34	25521
836.478	25708
836.615	25449
836.753	25449
836.891	25521
837.029	25495
837.167	25525
837.305	25472
837.443	25320
837.58	25217
837.718	25320
837.856	25350
837.993	25217
838.131	25285
838.269	25297
838.406	25225
838.544	25126
838.681	25050
838.819	24886
838.956	24882
839.094	24871
839.231	24650
839.369	24852
839.506	25225
839.643	25042
839.781	24772
839.918	24726
840.055	24814
840.193	24692
840.33	24631
840.467	24757
840.604	24650
840.742	24886
840.879	24639
841.016	24559
841.153	24479
841.29	24677
841.427	24589
841.564	24665
841.701	24623
841.838	24528
841.975	24528
842.112	24563
842.249	24578
842.385	24327
842.522	24623
842.659	24517
842.796	24460
842.933	24441
843.069	24353
843.206	24407
843.343	24528
843.479	24464
843.616	24407
843.752	24270
843.889	24209
844.025	24429
844.162	24213
844.298	24247
844.435	24273
844.571	24114
844.708	24266
844.844	24372
844.98	24315
845.117	24437
845.253	24102
845.389	23916
845.525	24095
845.661	24121
845.798	23874
845.934	23973
846.07	23828
846.206	23965
846.342	24045
846.478	24015
846.614	23710
846.75	23600
846.886	23680
847.022	23729
847.158	23794
847.294	23600
847.429	23672
847.565	23733
847.701	23821
847.837	23429
847.972	23383
848.108	23467
848.244	23345
848.379	23326
848.515	23227
848.65	23280
848.786	23220
848.921	23132
849.057	23334
849.192	23349
849.328	23227
849.463	23330
849.598	23231
849.734	23151
849.869	23003
850.004	23014
850.14	22961
850.275	22980
850.41	23018
850.545	22892
850.68	23113
850.815	23128
850.95	22995
851.085	23159
851.22	23166
851.355	23041
851.49	23022
851.625	23022
851.76	22980
851.895	23079
852.03	22885
852.165	22957
852.299	22957
852.434	23079
852.569	23079
852.703	23090
852.838	23098
852.973	23022
853.107	23178
853.242	23003
853.376	22976
853.511	22729
853.645	22733
853.78	22972
853.914	22866
854.048	22801
854.183	22881
854.317	22828
854.451	22965
854.585	22885
854.72	22919
854.854	22866
854.988	22717
855.122	22862
855.256	22733
855.39	22809
855.524	22976
855.658	22843
855.792	22873
855.926	22828
856.06	22915
856.194	22938
856.327	22850
856.461	22812
856.595	22767
856.729	22752
856.862	23029
856.996	22908
857.13	22946
857.263	23006
857.397	22968
857.53	22835
857.664	22896
857.797	22885
857.931	22847
858.064	22942
858.197	22946
858.331	22824
858.464	22820
858.597	22782
858.731	22774
858.864	22759
858.997	22793
859.13	22797
859.263	22873
859.396	23052
859.529	22873
859.662	22820
859.795	22793
859.928	22915
860.061	23052
860.194	23018
860.327	22877
860.46	22736
860.592	23044
860.725	23086
860.858	23025
860.99	22961
861.123	22790
861.256	22717
861.388	22858
861.521	23376
861.653	22763
861.786	22519
861.918	22675
862.05	22660
862.183	22668
862.315	22862
862.447	22847
862.58	22771
862.712	22516
862.844	22523
862.976	22752
863.108	22512
863.24	22961
863.372	22348
863.504	22531
863.636	22660
863.768	22660
863.9	22542
864.032	22577
864.164	22516
864.296	22611
864.428	22596
864.559	22580
864.691	22588
864.823	22535
864.954	22554
865.086	22554
865.217	22394
865.349	22440
865.48	22363
865.612	22466
865.743	22481
865.875	22394
866.006	22299
866.137	22424
866.269	22379
866.4	22386
866.531	22428
866.662	22409
866.793	22226
866.924	22329
867.055	22299
867.186	22299
867.317	22291
867.448	22306
867.579	22470
867.71	22306
867.841	22268
867.972	22398
868.103	22402
868.233	22348
868.364	22440
868.495	22424
868.625	22603
868.756	22759
868.886	22557
869.017	22538
869.147	22702
869.278	22588
869.408	22580
869.539	22683
869.669	22611
869.799	22561
869.929	22675
870.06	22611
870.19	22820
870.32	22805
870.45	23033
870.58	22995
870.71	23071
870.84	22896
870.97	22972
871.1	22934
871.23	23155
871.36	23231
871.489	23094
871.619	23242
871.749	23166
871.879	23174
872.008	23383
872.138	23200
872.267	23246
872.397	23105
872.526	22949
872.656	23094
872.785	23022
872.915	23322
873.044	23368
873.173	23296
873.303	23277
873.432	23258
873.561	23395
873.69	23220
873.819	23254
873.948	23292
874.077	23102
874.206	23159
874.335	23200
874.464	23364
874.593	23334
874.722	23349
874.851	23330
874.979	23467
875.108	23410
875.237	23307
875.365	23311
875.494	23368
875.623	23497
875.751	23387
875.88	23448
876.008	23531
876.136	23592
876.265	23817
876.393	23893
876.521	23908
876.65	23847
876.778	23714
876.906	23687
877.034	23767
877.162	23832
877.29	23707
877.418	23874
877.546	23851
877.674	23665
877.802	23710
877.93	23642
878.058	23737
878.185	23566
878.313	23630
878.441	23699
878.568	23657
878.696	23752
878.824	23855
878.951	23817
879.079	23908
879.206	23958
879.333	23954
879.461	23775
879.588	23870
879.715	24064
879.842	23942
879.97	23714
880.097	23623
880.224	23665
880.351	23596
880.478	23691
880.605	23497
880.732	23490
880.859	23783
880.986	23512
881.112	23509
881.239	23471
881.366	23239
881.493	23174
881.619	23178
881.746	23105
881.872	23159
881.999	23136
882.125	23151
882.252	23280
882.378	23056
882.505	23273
882.631	22953
882.757	22831
882.883	22946
883.01	22816
883.136	22759
883.262	22634
883.388	22713
883.514	22809
883.64	22786
883.766	22660
883.892	22519
884.018	22607
884.143	22626
884.269	22793
884.395	22485
884.52	22382
884.646	22455
884.772	22318
884.897	22272
885.023	22413
885.148	22561
885.274	22413
885.399	22443
885.524	22443
885.65	22443
885.775	22363
885.9	22363
886.025	22512
886.15	22577
886.275	22398
886.4	22363
886.525	22306
886.65	22242
886.775	22424
886.9	22497
887.025	22615
887.149	22280
887.274	22223
887.399	22143
887.523	22268
887.648	22063
887.773	22010
887.897	22226
888.021	22131
888.146	22093
888.27	22219
888.395	22303
888.519	22204
888.643	22093
888.767	22230
888.891	22086
889.015	21937
889.139	22124
889.263	21907
889.387	21926
889.511	22200
889.635	22097
889.759	22010
889.883	21869
890.006	22017
890.13	22067
890.254	21926
890.377	21892
890.501	21762
890.624	21679
890.748	21785
890.871	21698
890.995	21561
891.118	21504
891.241	21614
891.364	21538
891.488	21705
891.611	21428
891.734	21515
891.857	21466
891.98	21549
892.103	21500
892.226	21534
892.349	21378
892.471	21348
892.594	21416
892.717	21435
892.839	21473
892.962	21481
893.085	21443
893.207	21488
893.33	21298
893.452	21310
893.575	21458
893.697	21405
893.819	21542
893.941	21450
894.064	21492
894.186	21268
894.308	21412
894.43	21507
894.552	21420
894.674	21344
894.796	21424
894.918	21268
895.04	21313
895.161	21462
895.283	21389
895.405	21325
895.526	21367
895.648	21386
895.769	21473
895.891	21454
896.012	21462
896.134	21321
896.255	21481
896.376	21393
896.498	21332
896.619	21382
896.74	21374
896.861	21401
896.982	21682
897.103	21865
897.224	21625
897.345	21610
897.466	21595
897.587	21561
897.708	21755
897.828	21701
897.949	21473
898.07	21428
898.19	21519
898.311	21694
898.431	21428
898.552	21389
898.672	21553
898.792	21648
898.913	21644
899.033	21321
899.153	21340
899.273	21268
899.393	21363
899.513	21408
899.633	21283
899.753	21332
899.873	21154
899.993	21325
900.113	21283
900.232	21127
900.352	21131
900.472	21055
900.591	20971
900.711	21024
900.83	21051
900.95	21051
901.069	21138
901.189	20883
901.308	20617
901.427	20549
901.546	20758
901.665	20636
901.784	20484
901.904	20389
902.023	20415
902.141	20244
902.26	20172
902.379	20138
902.498	20024
902.617	20115
902.735	20119
902.854	20073
902.973	20115
903.091	19719
903.21	19799
903.328	19841
903.446	19670
903.565	19681
903.683	19544
903.801	19445
903.919	19453
904.038	19514
904.156	19354
904.274	19514
904.392	19285
904.51	19293
904.627	19327
904.745	19400
904.863	19384
904.981	19042
905.098	18970
905.216	19031
905.334	19000
905.451	19008
905.569	18863
905.686	18962
905.803	19061
905.921	18753
906.038	18894
906.155	18795
906.272	18650
906.389	18753
906.506	18433
906.623	18589
906.74	18604
906.857	18429
906.974	18407
907.091	18486
907.208	18608
907.324	18540
907.441	18483
907.557	18239
907.674	18300
907.79	18319
907.907	18167
908.023	18201
908.139	18289
908.256	18186
908.372	17942
908.488	18174
908.604	17916
908.72	17901
908.836	17901
908.952	17809
909.068	17756
909.184	17992
909.3	17813
909.415	17969
909.531	17927
909.647	17748
909.762	17748
909.878	17684
909.993	17767
910.108	17516
910.224	17429
910.339	17604
910.454	17486
910.57	17497
910.685	17349
910.8	17627
910.915	17505
911.03	17383
911.145	17189
911.259	17124
911.374	17223
911.489	17200
911.604	17060
911.718	16927
911.833	16949
911.947	16942
912.062	16828
912.176	16930
912.291	17033
912.405	16904
912.519	17136
912.633	17113
912.748	17033
912.862	16862
912.976	16805
913.09	16596
913.204	16706
913.318	16759
913.431	16919
913.545	16850
913.659	16713
913.772	16710
913.886	16455
914	16592
914.113	16641
914.226	16630
914.34	16500
914.453	16322
914.566	16516
914.68	16360
914.793	16390
914.906	16257
915.019	16071
915.132	16040
915.245	16040
915.358	16135
915.47	16135
915.583	16135
915.696	16090
915.809	16200
915.921	16276
916.034	16078
916.146	16017
916.259	15975
916.371	16029
916.483	15979
916.595	15998
916.708	15937
916.82	15922
916.932	15888
917.044	15926
917.156	15789
917.268	15629
917.38	15770
917.491	15682
917.603	15641
917.715	15778
917.826	15762
917.938	15675
918.049	15599
918.161	15641
918.272	15770
918.384	15778
918.495	15610
918.606	15530
918.717	15515
918.828	15526
918.939	15572
919.05	15287
919.161	15393
919.272	15237
919.383	15397
919.494	15439
919.604	15545
919.715	15428
919.826	15252
919.936	15367
920.047	15564
920.157	15416
920.267	15599
920.378	15420
920.488	15378
920.598	15530
920.708	15686
920.818	15477
920.928	15488
921.038	15637
921.148	15580
921.258	15283
921.368	15256
921.477	15024
921.587	15066
921.697	14921
921.806	15058
921.916	14948
922.025	14804
922.134	14800
922.244	14625
922.353	14716
922.462	14594
922.571	14579
922.68	14362
922.789	14408
922.898	14454
923.007	14374
923.116	14461
923.224	14355
923.333	14339
923.442	14221
923.55	14195
923.659	14191
923.767	14263
923.876	14138
923.984	14278
924.092	14046
924.201	14168
924.309	14027
924.417	14024
924.525	14069
924.633	14024
924.741	14819
924.849	13750
924.956	13894
925.064	13799
925.172	13719
925.279	13704
925.387	13738
925.494	13757
925.602	13871
925.709	13765
925.816	13636
925.924	13704
926.031	13769
926.138	13647
926.245	13708
926.352	13662
926.459	13674
926.566	13795
926.673	13677
926.779	13518
926.886	13529
926.993	13335
927.099	13339
927.206	13244
927.312	13255
927.419	13327
927.525	13304
927.631	13255
927.737	13198
927.843	13156
927.95	12966
928.056	13057
928.162	13099
928.267	13080
928.373	13746
928.479	13168
928.585	12867
928.69	13031
928.796	13129
928.901	12954
929.007	12814
929.112	12954
929.218	12882
929.323	12920
929.428	12806
929.533	12859
929.638	12688
929.743	12711
929.848	12852
929.953	12650
930.058	12627
930.163	12486
930.267	12483
930.372	12604
930.477	12403
930.581	12703
930.685	12471
930.79	12369
930.894	12342
930.998	12330
931.103	12532
931.207	12152
931.311	12098
931.415	11836
931.519	11665
931.623	11691
