Data from test_V78500241_1568.txt Node
Date: Fri Mar 25 15:52:39 CST 2022
User: usil
Spectrometer: V785-0024
Trigger mode: 0
Integration Time (sec): 4.000000E-1
Scans to average: 1
Nonlinearity correction enabled: false
Boxcar width: 0
Storing dark spectrum: false
XAxis mode: Wavelengths
Number of Pixels in Spectrum: 1024
>>>>>Begin Spectral Data<<<<<
801.071	28063
801.214	27895
801.356	27694
801.499	27648
801.641	27553
801.783	27530
801.926	27595
802.068	27587
802.211	27408
802.353	27336
802.496	27306
802.638	27169
802.78	27089
802.923	27214
803.065	27165
803.208	27230
803.35	27325
803.492	27317
803.635	27389
803.777	27268
803.919	27412
804.061	27800
804.204	27408
804.346	27192
804.488	27317
804.63	27321
804.773	27264
804.915	27351
805.057	27622
805.199	27363
805.341	27591
805.483	27606
805.626	27603
805.768	27435
805.91	27644
806.052	27591
806.194	27439
806.336	27705
806.478	27648
806.62	27553
806.762	27663
806.904	27816
807.046	28040
807.188	27922
807.33	27903
807.472	27899
807.614	27842
807.756	27911
807.898	27865
808.04	27755
808.182	27831
808.324	27934
808.465	27728
808.607	28158
808.749	28162
808.891	28200
809.033	28344
809.174	28276
809.316	28150
809.458	28143
809.6	28306
809.741	28261
809.883	28310
810.025	28478
810.166	28432
810.308	28508
810.45	28424
810.591	28211
810.733	28303
810.875	28204
811.016	28105
811.158	28036
811.299	28360
811.441	28131
811.582	28284
811.724	28116
811.865	28070
812.007	28116
812.148	28234
812.29	28280
812.431	28341
812.573	28774
812.714	28497
812.855	28752
812.997	28706
813.138	28980
813.279	28908
813.421	28618
813.562	28755
813.703	28352
813.845	28246
813.986	28070
814.127	27861
814.268	27838
814.41	27785
814.551	27953
814.692	27873
814.833	27690
814.974	27743
815.115	27911
815.256	27656
815.397	27648
815.539	27842
815.68	27679
815.821	27679
815.962	27576
816.103	27614
816.244	27629
816.385	27408
816.526	27439
816.666	27272
816.807	27173
816.948	27173
817.089	27340
817.23	27081
817.371	27275
817.512	27154
817.653	27195
817.793	27184
817.934	27157
818.075	27108
818.216	27180
818.356	27142
818.497	27009
818.638	26842
818.778	26887
818.919	27024
819.06	26853
819.2	27093
819.341	27192
819.481	27195
819.622	27329
819.762	27576
819.903	27500
820.043	27450
820.184	27363
820.324	27321
820.465	27443
820.605	27249
820.746	27302
820.886	27032
821.026	27298
821.167	27214
821.307	27374
821.447	27131
821.588	27005
821.728	26948
821.868	26746
822.008	26682
822.149	26689
822.289	26583
822.429	26450
822.569	26358
822.709	26358
822.849	26221
822.99	26100
823.13	26020
823.27	26119
823.41	25898
823.55	25902
823.69	25997
823.83	26088
823.97	25841
824.11	25769
824.25	25883
824.389	25898
824.529	25822
824.669	25704
824.809	25868
824.949	25807
825.089	25811
825.228	25750
825.368	25643
825.508	25655
825.648	25647
825.787	25776
825.927	25689
826.067	25609
826.206	25666
826.346	25658
826.485	25731
826.625	25647
826.765	25727
826.904	25693
827.044	25358
827.183	25533
827.323	25308
827.462	25400
827.601	25422
827.741	25316
827.88	25400
828.02	25365
828.159	25365
828.298	25350
828.437	25373
828.577	25251
828.716	25308
828.855	25358
828.994	25129
829.134	25107
829.273	25175
829.412	24947
829.551	25008
829.69	24996
829.829	25107
829.968	25263
830.107	25084
830.246	25023
830.385	25076
830.524	24981
830.663	24848
830.802	24848
830.941	24719
831.08	24703
831.219	24711
831.357	24810
831.496	24943
831.635	24703
831.774	24688
831.913	24486
832.051	24555
832.19	24479
832.329	24445
832.467	24308
832.606	24433
832.744	24308
832.883	24334
833.022	24262
833.16	24365
833.299	24426
833.437	24410
833.576	24483
833.714	24410
833.852	24483
833.991	24502
834.129	24467
834.267	24460
834.406	24448
834.544	24525
834.682	24475
834.821	24350
834.959	24410
835.097	24441
835.235	24479
835.373	24388
835.511	24426
835.65	24285
835.788	24171
835.926	24076
836.064	23992
836.202	24018
836.34	24346
836.478	24190
836.615	24171
836.753	24251
836.891	24357
837.029	24239
837.167	24155
837.305	24045
837.443	24201
837.58	24174
837.718	24068
837.856	24079
837.993	23977
838.131	24076
838.269	23904
838.406	24003
838.544	23737
838.681	23813
838.819	23676
838.956	23482
839.094	23539
839.231	23501
839.369	23589
839.506	23935
839.643	23908
839.781	23558
839.918	23459
840.055	23490
840.193	23608
840.33	23531
840.467	23299
840.604	23528
840.742	23771
840.879	23360
841.016	23448
841.153	23356
841.29	23501
841.427	23395
841.564	23516
841.701	23444
841.838	23311
841.975	23349
842.112	23299
842.249	23349
842.385	23208
842.522	23452
842.659	23254
842.796	23170
842.933	23227
843.069	23242
843.206	23269
843.343	23162
843.479	23132
843.616	23159
843.752	22965
843.889	23113
844.025	23212
844.162	22984
844.298	23048
844.435	23010
844.571	22908
844.708	22949
844.844	23090
844.98	23064
845.117	23181
845.253	22949
845.389	22938
845.525	22915
845.661	22774
845.798	22763
845.934	22839
846.07	22649
846.206	22691
846.342	22835
846.478	22740
846.614	22546
846.75	22363
846.886	22322
847.022	22584
847.158	22493
847.294	22485
847.429	22519
847.565	22417
847.701	22656
847.837	22226
847.972	22067
848.108	22192
848.244	22158
848.379	22059
848.515	22029
848.65	22006
848.786	22070
848.921	22002
849.057	22086
849.192	22044
849.328	21960
849.463	21941
849.598	21968
849.734	21899
849.869	21994
850.004	21838
850.14	21800
850.275	21770
850.41	21675
850.545	21713
850.68	21892
850.815	21808
850.95	21698
851.085	21895
851.22	21934
851.355	21804
851.49	21835
851.625	21713
851.76	21682
851.895	21789
852.03	21675
852.165	21743
852.299	21899
852.434	21987
852.569	21812
852.703	21762
852.838	21743
852.973	21937
853.107	21953
853.242	21732
853.376	21625
853.511	21477
853.645	21667
853.78	21690
853.914	21625
854.048	21564
854.183	21618
854.317	21686
854.451	21903
854.585	21736
854.72	21603
854.854	21698
854.988	21530
855.122	21606
855.256	21466
855.39	21618
855.524	21724
855.658	21618
855.792	21629
855.926	21564
856.06	21713
856.194	21698
856.327	21633
856.461	21564
856.595	21485
856.729	21564
856.862	21854
856.996	21606
857.13	21610
857.263	21759
857.397	21671
857.53	21644
857.664	21698
857.797	21564
857.931	21778
858.064	21743
858.197	21599
858.331	21538
858.464	21348
858.597	21500
858.731	21633
858.864	21644
858.997	21553
859.13	21614
859.263	21610
859.396	21736
859.529	21660
859.662	21553
859.795	21492
859.928	21587
860.061	21827
860.194	21648
860.327	21667
860.46	21606
860.592	21835
860.725	21827
860.858	21759
860.99	21629
861.123	21580
861.256	21542
861.388	21705
861.521	22147
861.653	21431
861.786	21393
861.918	21367
862.05	21557
862.183	21542
862.315	21583
862.447	21587
862.58	21515
862.712	21332
862.844	21287
862.976	21538
863.108	21389
863.24	21797
863.372	21249
863.504	21359
863.636	21294
863.768	21401
863.9	21435
864.032	21256
864.164	21302
864.296	21363
864.428	21496
864.559	21481
864.691	21416
864.823	21233
864.954	21298
865.086	21431
865.217	21317
865.349	21226
865.48	21260
865.612	21275
865.743	21359
865.875	21355
866.006	21283
866.137	21192
866.269	21203
866.4	21214
866.531	21222
866.662	21127
866.793	21108
866.924	21146
867.055	21256
867.186	21325
867.317	21203
867.448	21047
867.579	21195
867.71	21081
867.841	21096
867.972	21230
868.103	21108
868.233	21241
868.364	21119
868.495	21211
868.625	21458
868.756	21519
868.886	21416
869.017	21268
869.147	21439
869.278	21576
869.408	21450
869.539	21401
869.669	21439
869.799	21382
869.929	21443
870.06	21466
870.19	21736
870.32	21778
870.45	21857
870.58	21778
870.71	22025
870.84	21968
870.97	21911
871.1	21827
871.23	21922
871.36	22032
871.489	21968
871.619	22036
871.749	22025
871.879	22093
872.008	22169
872.138	22021
872.267	22029
872.397	21842
872.526	21926
872.656	21835
872.785	21800
872.915	22093
873.044	22044
873.173	22093
873.303	22188
873.432	22116
873.561	22192
873.69	22154
873.819	22166
873.948	22169
874.077	22006
874.206	21956
874.335	22109
874.464	22177
874.593	22223
874.722	22356
874.851	22280
874.979	22440
875.108	22325
875.237	22230
875.365	22120
875.494	22207
875.623	22276
875.751	22246
875.88	22173
876.008	22299
876.136	22329
876.265	22679
876.393	22816
876.521	22744
876.65	22790
876.778	22706
876.906	22653
877.034	22702
877.162	22660
877.29	22592
877.418	22656
877.546	22519
877.674	22599
877.802	22546
877.93	22713
878.058	22577
878.185	22478
878.313	22527
878.441	22489
878.568	22390
878.696	22607
878.824	22683
878.951	22725
879.079	22873
879.206	22953
879.333	22915
879.461	22626
879.588	22637
879.715	22752
879.842	22942
879.97	22675
880.097	22474
880.224	22440
880.351	22428
880.478	22432
880.605	22443
880.732	22390
880.859	22679
880.986	22493
881.112	22417
881.239	22177
881.366	22280
881.493	22078
881.619	21926
881.746	21987
881.872	21998
881.999	22025
882.125	22010
882.252	22002
882.378	21979
882.505	22067
882.631	21899
882.757	21652
882.883	21717
883.01	21732
883.136	21557
883.262	21599
883.388	21591
883.514	21682
883.64	21679
883.766	21591
883.892	21424
884.018	21568
884.143	21561
884.269	21694
884.395	21408
884.52	21245
884.646	21256
884.772	21332
884.897	21188
885.023	21260
885.148	21435
885.274	21466
885.399	21321
885.524	21359
885.65	21420
885.775	21264
885.9	21428
886.025	21363
886.15	21473
886.275	21211
886.4	21157
886.525	21268
886.65	21142
886.775	21268
886.9	21291
887.025	21523
887.149	21252
887.274	21119
887.399	21154
887.523	20921
887.648	21070
887.773	20979
887.897	21165
888.021	21199
888.146	21074
888.27	21192
888.395	21237
888.519	21070
888.643	21165
888.767	21176
888.891	21005
889.015	20815
889.139	20956
889.263	20845
889.387	20895
889.511	21058
889.635	20975
889.759	20891
889.883	20864
890.006	20876
890.13	20838
890.254	20880
890.377	20800
890.501	20575
890.624	20648
890.748	20587
890.871	20617
890.995	20415
891.118	20355
891.241	20461
891.364	20404
891.488	20537
891.611	20446
891.734	20434
891.857	20488
891.98	20431
892.103	20434
892.226	20484
892.349	20267
892.471	20240
892.594	20381
892.717	20514
892.839	20427
892.962	20332
893.085	20419
893.207	20343
893.33	20267
893.452	20320
893.575	20351
893.697	20301
893.819	20469
893.941	20522
894.064	20560
894.186	20233
894.308	20275
894.43	20385
894.552	20507
894.674	20412
894.796	20290
894.918	20313
895.04	20252
895.161	20537
895.283	20415
895.405	20229
895.526	20351
895.648	20313
895.769	20389
895.891	20400
896.012	20537
896.134	20461
896.255	20450
896.376	20415
896.498	20343
896.619	20358
896.74	20400
896.861	20427
896.982	20731
897.103	20838
897.224	20590
897.345	20674
897.466	20678
897.587	20522
897.708	20636
897.828	20602
897.949	20621
898.07	20442
898.19	20492
898.311	20705
898.431	20526
898.552	20488
898.672	20632
898.792	20667
898.913	20568
899.033	20476
899.153	20366
899.273	20256
899.393	20374
899.513	20221
899.633	20305
899.753	20339
899.873	20119
899.993	20461
900.113	20214
900.232	20298
900.352	20301
900.472	20214
900.591	20115
900.711	20172
900.83	20096
900.95	20210
901.069	20210
901.189	20058
901.308	19890
901.427	19643
901.546	19643
901.665	19780
901.784	19635
901.904	19662
902.023	19373
902.141	19244
902.26	19289
902.379	19228
902.498	19316
902.617	19179
902.735	19171
902.854	19179
902.973	19156
903.091	18840
903.21	18779
903.328	18844
903.446	18730
903.565	18707
903.683	18749
903.801	18471
903.919	18551
904.038	18669
904.156	18395
904.274	18506
904.392	18380
904.51	18418
904.627	18403
904.745	18441
904.863	18467
904.981	18201
905.098	18079
905.216	18060
905.334	18167
905.451	18098
905.569	18011
905.686	18072
905.803	18060
905.921	18007
906.038	17999
906.155	17897
906.272	17847
906.389	17821
906.506	17642
906.623	17653
906.74	17623
906.857	17417
906.974	17509
907.091	17653
907.208	17771
907.324	17543
907.441	17573
907.557	17387
907.674	17417
907.79	17303
907.907	17303
908.023	17273
908.139	17372
908.256	17299
908.372	17212
908.488	17223
908.604	17189
908.72	17010
908.836	17075
908.952	16995
909.068	17075
909.184	17140
909.3	16984
909.415	17033
909.531	17014
909.647	16873
909.762	16790
909.878	16717
909.993	16771
910.108	16577
910.224	16721
910.339	16774
910.454	16683
910.57	16580
910.685	16424
910.8	16824
910.915	16698
911.03	16637
911.145	16344
911.259	16428
911.374	16402
911.489	16215
911.604	16147
911.718	15987
911.833	16078
911.947	15956
912.062	15926
912.176	16029
912.291	16086
912.405	16131
912.519	16257
912.633	16299
912.748	16196
912.862	16200
912.976	15937
913.09	15774
913.204	15922
913.318	15850
913.431	15899
913.545	15918
913.659	16002
913.772	15850
913.886	15759
914	15663
914.113	15762
914.226	15800
914.34	15800
914.453	15584
914.566	15785
914.68	15679
914.793	15618
914.906	15393
915.019	15405
915.132	15260
915.245	15325
915.358	15287
915.47	15252
915.583	15298
915.696	15329
915.809	15458
915.921	15435
916.034	15222
916.146	15249
916.259	15192
916.371	15287
916.483	15245
916.595	15154
916.708	15089
916.82	15142
916.932	15127
917.044	15047
917.156	15001
917.268	14948
917.38	14944
917.491	14948
917.603	15032
917.715	14948
917.826	15039
917.938	14941
918.049	14853
918.161	14883
918.272	15077
918.384	15047
918.495	14800
918.606	14830
918.717	14648
918.828	14769
918.939	14701
919.05	14613
919.161	14693
919.272	14499
919.383	14484
919.494	14674
919.604	14887
919.715	14731
919.826	14484
919.936	14689
920.047	14769
920.157	14636
920.267	14906
920.378	14689
920.488	14640
920.598	14796
920.708	14975
920.818	14876
920.928	14773
921.038	14929
921.148	14925
921.258	14564
921.368	14522
921.477	14457
921.587	14400
921.697	14278
921.806	14351
921.916	14317
922.025	14008
922.134	13928
922.244	14012
922.353	14195
922.462	13932
922.571	13761
922.68	13662
922.789	13693
922.898	13704
923.007	13620
923.116	13780
923.224	13658
923.333	13670
923.442	13548
923.55	13491
923.659	13525
923.767	13696
923.876	13445
923.984	13567
924.092	13339
924.201	13438
924.309	13434
924.417	13426
924.525	13297
924.633	13346
924.741	14275
924.849	13194
924.956	13263
925.064	13126
925.172	13053
925.279	13046
925.387	13198
925.494	13023
925.602	13209
925.709	13114
925.816	12962
925.924	12985
926.031	13164
926.138	13042
926.245	13065
926.352	12932
926.459	13076
926.566	13168
926.673	12981
926.779	12894
926.886	12787
926.993	12669
927.099	12650
927.206	12620
927.312	12589
927.419	12692
927.525	12662
927.631	12669
927.737	12620
927.843	12544
927.95	12391
928.056	12395
928.162	12551
928.267	12525
928.373	13107
928.479	12585
928.585	12304
928.69	12426
928.796	12498
928.901	12338
929.007	12205
929.112	12353
929.218	12273
929.323	12216
929.428	12144
929.533	12365
929.638	12209
929.743	12144
929.848	12186
929.953	12178
930.058	12076
930.163	11897
930.267	11935
930.372	12091
930.477	11901
930.581	12030
930.685	11973
930.79	11726
930.894	11832
930.998	11771
931.103	11870
931.207	11490
931.311	11448
931.415	11433
931.519	11208
931.623	11143
