Data from test_V78500241_3653.txt Node
Date: Fri Mar 25 16:07:06 CST 2022
User: usil
Spectrometer: V785-0024
Trigger mode: 0
Integration Time (sec): 4.000000E-1
Scans to average: 1
Nonlinearity correction enabled: false
Boxcar width: 0
Storing dark spectrum: false
XAxis mode: Wavelengths
Number of Pixels in Spectrum: 1024
>>>>>Begin Spectral Data<<<<<
801.071	28417
801.214	28538
801.356	28367
801.499	28215
801.641	28021
801.783	28063
801.926	28188
802.068	28051
802.211	28067
802.353	27854
802.496	27861
802.638	27766
802.78	27652
802.923	27694
803.065	27625
803.208	27800
803.35	27713
803.492	27880
803.635	27972
803.777	27907
803.919	27949
804.061	28265
804.204	28032
804.346	27983
804.488	27865
804.63	27983
804.773	27861
804.915	28044
805.057	28093
805.199	27945
805.341	28223
805.483	28021
805.626	28120
805.768	27991
805.91	28074
806.052	28055
806.194	28078
806.336	28238
806.478	28196
806.62	28223
806.762	28287
806.904	28322
807.046	28588
807.188	28481
807.33	28607
807.472	28596
807.614	28455
807.756	28725
807.898	28443
808.04	28207
808.182	28436
808.324	28508
808.465	28424
808.607	28626
808.749	28778
808.891	28911
809.033	29010
809.174	28869
809.316	28831
809.458	28873
809.6	28755
809.741	28923
809.883	28995
810.025	29147
810.166	29090
810.308	29029
810.45	28957
810.591	29067
810.733	28736
810.875	28793
811.016	28713
811.158	28656
811.299	28873
811.441	29010
811.582	29048
811.724	28786
811.865	28877
812.007	28934
812.148	28847
812.29	28854
812.431	29109
812.573	29193
812.714	29151
812.855	29493
812.997	29349
813.138	29608
813.279	29520
813.421	29250
813.562	29360
813.703	29079
813.845	29010
813.986	28790
814.127	28729
814.268	28630
814.41	28504
814.551	28462
814.692	28634
814.833	28523
814.974	28409
815.115	28588
815.256	28474
815.397	28489
815.539	28360
815.68	28329
815.821	28230
815.962	28417
816.103	28257
816.244	28333
816.385	28147
816.526	28188
816.666	28044
816.807	27983
816.948	28013
817.089	27812
817.23	27751
817.371	27880
817.512	27895
817.653	27827
817.793	27785
817.934	27705
818.075	27873
818.216	27922
818.356	27778
818.497	27572
818.638	27568
818.778	27545
818.919	27580
819.06	27690
819.2	27816
819.341	27850
819.481	27751
819.622	28032
819.762	28280
819.903	28158
820.043	28070
820.184	27899
820.324	28063
820.465	28139
820.605	28032
820.746	27914
820.886	27808
821.026	28021
821.167	27899
821.307	27941
821.447	27876
821.588	27804
821.728	27762
821.868	27500
822.008	27378
822.149	27359
822.289	27275
822.429	27108
822.569	26914
822.709	27096
822.849	26838
822.99	26872
823.13	26918
823.27	26872
823.41	26807
823.55	26606
823.69	26613
823.83	26796
823.97	26629
824.11	26442
824.25	26473
824.389	26423
824.529	26693
824.669	26511
824.809	26686
824.949	26507
825.089	26609
825.228	26552
825.368	26381
825.508	26400
825.648	26351
825.787	26328
825.927	26461
826.067	26282
826.206	26389
826.346	26358
826.485	26465
826.625	26393
826.765	26389
826.904	26355
827.044	26218
827.183	26062
827.323	26221
827.462	26267
827.601	26142
827.741	26191
827.88	26145
828.02	25932
828.159	25986
828.298	26100
828.437	26149
828.577	26012
828.716	26332
828.855	25936
828.994	25879
829.134	25826
829.273	25750
829.412	25723
829.551	25662
829.69	25811
829.829	25765
829.968	25841
830.107	25795
830.246	25807
830.385	25575
830.524	25647
830.663	25605
830.802	25426
830.941	25388
831.08	25403
831.219	25445
831.357	25514
831.496	25655
831.635	25388
831.774	25354
831.913	25206
832.051	25183
832.19	25228
832.329	25209
832.467	25122
832.606	25000
832.744	24996
832.883	25004
833.022	24928
833.16	25012
833.299	25038
833.437	24928
833.576	25061
833.714	25141
833.852	25122
833.991	25072
834.129	25297
834.267	25213
834.406	25171
834.544	25141
834.682	25187
834.821	25091
834.959	25088
835.097	25137
835.235	25061
835.373	25164
835.511	25168
835.65	24913
835.788	25084
835.926	24848
836.064	24772
836.202	24810
836.34	24970
836.478	25065
836.615	24977
836.753	24894
836.891	24943
837.029	25012
837.167	24916
837.305	24814
837.443	24745
837.58	24616
837.718	24791
837.856	24924
837.993	24635
838.131	24875
838.269	24673
838.406	24597
838.544	24566
838.681	24327
838.819	24563
838.956	24144
839.094	24087
839.231	24273
839.369	24521
839.506	24578
839.643	24639
839.781	24304
839.918	24106
840.055	24209
840.193	24136
840.33	24121
840.467	24239
840.604	24247
840.742	24502
840.879	24152
841.016	24034
841.153	24015
841.29	24251
841.427	24011
841.564	24178
841.701	24053
841.838	24159
841.975	24022
842.112	24011
842.249	24045
842.385	23977
842.522	24209
842.659	23973
842.796	23863
842.933	23973
843.069	23737
843.206	23779
843.343	23863
843.479	23912
843.616	23851
843.752	23760
843.889	23710
844.025	23878
844.162	23627
844.298	23710
844.435	23665
844.571	23467
844.708	23710
844.844	23798
844.98	23817
845.117	23741
845.253	23646
845.389	23524
845.525	23581
845.661	23619
845.798	23486
845.934	23455
846.07	23395
846.206	23414
846.342	23383
846.478	23376
846.614	23204
846.75	23181
846.886	23060
847.022	23193
847.158	23143
847.294	23178
847.429	23223
847.565	23181
847.701	23299
847.837	22847
847.972	22774
848.108	22934
848.244	22991
848.379	22698
848.515	22763
848.65	22660
848.786	22759
848.921	22710
849.057	22694
849.192	22923
849.328	22675
849.463	22869
849.598	22694
849.734	22611
849.869	22527
850.004	22523
850.14	22474
850.275	22569
850.41	22443
850.545	22363
850.68	22478
850.815	22546
850.95	22615
851.085	22664
851.22	22523
851.355	22470
851.49	22421
851.625	22421
851.76	22371
851.895	22478
852.03	22440
852.165	22459
852.299	22592
852.434	22516
852.569	22516
852.703	22466
852.838	22455
852.973	22634
853.107	22538
853.242	22531
853.376	22432
853.511	22230
853.645	22360
853.78	22268
853.914	22299
854.048	22207
854.183	22333
854.317	22375
854.451	22493
854.585	22402
854.72	22421
854.854	22470
854.988	22306
855.122	22322
855.256	22238
855.39	22230
855.524	22447
855.658	22363
855.792	22367
855.926	22348
856.06	22405
856.194	22447
856.327	22333
856.461	22398
856.595	22219
856.729	22348
856.862	22379
856.996	22253
857.13	22485
857.263	22382
857.397	22443
857.53	22268
857.664	22318
857.797	22485
857.931	22447
858.064	22352
858.197	22371
858.331	22360
858.464	22257
858.597	22280
858.731	22234
858.864	22348
858.997	22371
859.13	22238
859.263	22249
859.396	22424
859.529	22287
859.662	22249
859.795	22249
859.928	22226
860.061	22428
860.194	22424
860.327	22436
860.46	22314
860.592	22489
860.725	22538
860.858	22470
860.99	22402
861.123	22226
861.256	22211
861.388	22287
861.521	23060
861.653	22234
861.786	22074
861.918	22223
862.05	22234
862.183	22265
862.315	22284
862.447	22375
862.58	22128
862.712	22196
862.844	22006
862.976	22131
863.108	22074
863.24	22478
863.372	21964
863.504	21987
863.636	22097
863.768	21994
863.9	22147
864.032	21941
864.164	22010
864.296	22051
864.428	22036
864.559	22070
864.691	22044
864.823	22093
864.954	22055
865.086	21968
865.217	21808
865.349	21888
865.48	21857
865.612	21975
865.743	22051
865.875	21949
866.006	21861
866.137	21975
866.269	21945
866.4	21888
866.531	21808
866.662	21831
866.793	21873
866.924	21884
867.055	21876
867.186	21835
867.317	21793
867.448	21770
867.579	21770
867.71	21873
867.841	21827
867.972	21747
868.103	21736
868.233	21907
868.364	21747
868.495	21960
868.625	22093
868.756	22169
868.886	22067
869.017	22010
869.147	22207
869.278	22063
869.408	21991
869.539	22196
869.669	22181
869.799	22192
869.929	22196
870.06	22284
870.19	22265
870.32	22405
870.45	22424
870.58	22535
870.71	22538
870.84	22523
870.97	22538
871.1	22554
871.23	22634
871.36	22660
871.489	22497
871.619	22637
871.749	22672
871.879	22698
872.008	22702
872.138	22717
872.267	22535
872.397	22607
872.526	22500
872.656	22588
872.785	22634
872.915	22725
873.044	22839
873.173	22653
873.303	22763
873.432	22736
873.561	22869
873.69	22702
873.819	22797
873.948	22793
874.077	22733
874.206	22702
874.335	22767
874.464	22763
874.593	22984
874.722	22930
874.851	22984
874.979	22885
875.108	22991
875.237	22995
875.365	22793
875.494	22877
875.623	23079
875.751	22854
875.88	22946
876.008	23105
876.136	23075
876.265	23322
876.393	23349
876.521	23482
876.65	23273
876.778	23429
876.906	23277
877.034	23227
877.162	23239
877.29	23277
877.418	23368
877.546	23159
877.674	23307
877.802	23223
877.93	23220
878.058	23265
878.185	23117
878.313	23105
878.441	23303
878.568	23079
878.696	23197
878.824	23395
878.951	23467
879.079	23391
879.206	23634
879.333	23570
879.461	23250
879.588	23436
879.715	23501
879.842	23512
879.97	23200
880.097	23044
880.224	23006
880.351	23147
880.478	23155
880.605	22984
880.732	23124
880.859	23330
880.986	23102
881.112	23102
881.239	22923
881.366	22801
881.493	22759
881.619	22656
881.746	22729
881.872	22782
881.999	22710
882.125	22615
882.252	22694
882.378	22725
882.505	22733
882.631	22455
882.757	22337
882.883	22394
883.01	22268
883.136	22310
883.262	22166
883.388	22044
883.514	22371
883.64	22451
883.766	22253
883.892	22112
884.018	22139
884.143	22211
884.269	22421
884.395	22017
884.52	21953
884.646	22002
884.772	21945
884.897	21857
885.023	22021
885.148	22078
885.274	22131
885.399	22097
885.524	21888
885.65	22010
885.775	22006
885.9	21953
886.025	22025
886.15	21975
886.275	21915
886.4	21823
886.525	21941
886.65	21846
886.775	21861
886.9	22059
887.025	22143
887.149	21911
887.274	21762
887.399	21831
887.523	21762
887.648	21686
887.773	21572
887.897	21842
888.021	21739
888.146	21564
888.27	21751
888.395	21873
888.519	21717
888.643	21747
888.767	21751
888.891	21663
889.015	21610
889.139	21542
889.263	21599
889.387	21614
889.511	21724
889.635	21701
889.759	21408
889.883	21485
890.006	21477
890.13	21591
890.254	21351
890.377	21542
890.501	21291
890.624	21100
890.748	21374
890.871	21070
890.995	21070
891.118	21051
891.241	21024
891.364	20994
891.488	21188
891.611	21096
891.734	21100
891.857	21093
891.98	21005
892.103	21055
892.226	21074
892.349	21032
892.471	20952
892.594	20990
892.717	20956
892.839	20990
892.962	20906
893.085	20986
893.207	20982
893.33	20876
893.452	20914
893.575	20990
893.697	20971
893.819	21154
893.941	21093
894.064	21047
894.186	20880
894.308	20830
894.43	21036
894.552	21001
894.674	21096
894.796	20941
894.918	20804
895.04	20929
895.161	20963
895.283	20887
895.405	20876
895.526	21077
895.648	20906
895.769	20902
895.891	20963
896.012	21001
896.134	20960
896.255	20906
896.376	20861
896.498	21020
896.619	20902
896.74	20834
896.861	20998
896.982	21157
897.103	21439
897.224	21066
897.345	21119
897.466	21020
897.587	21211
897.708	21135
897.828	21150
897.949	21230
898.07	20925
898.19	21077
898.311	21207
898.431	21131
898.552	21173
898.672	21070
898.792	21355
898.913	21291
899.033	20994
899.153	20948
899.273	20777
899.393	20979
899.513	20990
899.633	20952
899.753	20952
899.873	20781
899.993	20880
900.113	20823
900.232	20910
900.352	20754
900.472	20819
900.591	20743
900.711	20621
900.83	20625
900.95	20743
901.069	20792
901.189	20507
901.308	20343
901.427	20267
901.546	20161
901.665	20256
901.784	20221
901.904	20069
902.023	20073
902.141	19761
902.26	19822
902.379	19928
902.498	19750
902.617	19704
902.735	19757
902.854	19818
902.973	19582
903.091	19369
903.21	19324
903.328	19392
903.446	19255
903.565	19198
903.683	19240
903.801	19137
903.919	19118
904.038	19042
904.156	18798
904.274	19103
904.392	18905
904.51	18783
904.627	18916
904.745	19012
904.863	18924
904.981	18848
905.098	18506
905.216	18654
905.334	18601
905.451	18589
905.569	18555
905.686	18646
905.803	18563
905.921	18372
906.038	18551
906.155	18494
906.272	18365
906.389	18304
906.506	18148
906.623	18121
906.74	18022
906.857	17958
906.974	18102
907.091	18129
907.208	18304
907.324	18144
907.441	18011
907.557	17897
907.674	17828
907.79	17923
907.907	17741
908.023	17885
908.139	17828
908.256	17794
908.372	17733
908.488	17676
908.604	17524
908.72	17516
908.836	17608
908.952	17459
909.068	17532
909.184	17646
909.3	17516
909.415	17528
909.531	17558
909.647	17273
909.762	17277
909.878	17109
909.993	17231
910.108	17273
910.224	17288
910.339	17254
910.454	17124
910.57	17045
910.685	17109
910.8	17178
910.915	17265
911.03	16942
911.145	16908
911.259	16858
911.374	16889
911.489	16820
911.604	16759
911.718	16565
911.833	16542
911.947	16447
912.062	16421
912.176	16596
912.291	16588
912.405	16523
912.519	16710
912.633	16900
912.748	16637
912.862	16599
912.976	16512
913.09	16299
913.204	16333
913.318	16390
913.431	16443
913.545	16432
913.659	16455
913.772	16375
913.886	16299
914	16188
914.113	16276
914.226	16375
914.34	16223
914.453	16051
914.566	16097
914.68	16112
914.793	15949
914.906	15876
915.019	15732
915.132	15785
915.245	15728
915.358	15743
915.47	15717
915.583	15747
915.696	15751
915.809	15854
915.921	15857
916.034	15663
916.146	15633
916.259	15736
916.371	15766
916.483	15641
916.595	15538
916.708	15530
916.82	15625
916.932	15564
917.044	15584
917.156	15443
917.268	15317
917.38	15481
917.491	15351
917.603	15447
917.715	15500
917.826	15466
917.938	15428
918.049	15237
918.161	15412
918.272	15515
918.384	15443
918.495	15317
918.606	15192
918.717	15097
918.828	15176
918.939	15173
919.05	15104
919.161	15135
919.272	14971
919.383	14872
919.494	15142
919.604	15382
919.715	15058
919.826	14994
919.936	15047
920.047	15116
920.157	15058
920.267	15279
920.378	15146
920.488	15062
920.598	15268
920.708	15287
920.818	15195
920.928	15260
921.038	15344
921.148	15264
921.258	15024
921.368	14872
921.477	14705
921.587	14777
921.697	14617
921.806	14781
921.916	14674
922.025	14587
922.134	14499
922.244	14389
922.353	14450
922.462	14366
922.571	14305
922.68	14157
922.789	14168
922.898	14039
923.007	13993
923.116	14096
923.224	14020
923.333	14054
923.442	14016
923.55	13940
923.659	13807
923.767	13986
923.876	13852
923.984	13871
924.092	13837
924.201	13807
924.309	13784
924.417	13822
924.525	13784
924.633	13757
924.741	14667
924.849	13506
924.956	13666
925.064	13468
925.172	13559
925.279	13533
925.387	13441
925.494	13407
925.602	13601
925.709	13506
925.816	13388
925.924	13441
926.031	13362
926.138	13362
926.245	13487
926.352	13369
926.459	13419
926.566	13468
926.673	13422
926.779	13137
926.886	13168
926.993	13038
927.099	13110
927.206	12951
927.312	12935
927.419	13034
927.525	13012
927.631	13050
927.737	12886
927.843	12897
927.95	12791
928.056	12852
928.162	12954
928.267	12764
928.373	13510
928.479	12939
928.585	12696
928.69	12760
928.796	12852
928.901	12654
929.007	12593
929.112	12696
929.218	12684
929.323	12597
929.428	12551
929.533	12650
929.638	12429
929.743	12521
929.848	12513
929.953	12460
930.058	12433
930.163	12175
930.267	12205
930.372	12346
930.477	12148
930.581	12300
930.685	12304
930.79	12026
930.894	12045
930.998	12060
931.103	12148
931.207	11828
931.311	11824
931.415	11710
931.519	11532
931.623	11433
