Data from test_V78500241_130.txt Node
Date: Fri Mar 25 15:42:42 CST 2022
User: usil
Spectrometer: V785-0024
Trigger mode: 0
Integration Time (sec): 4.000000E-1
Scans to average: 1
Nonlinearity correction enabled: false
Boxcar width: 0
Storing dark spectrum: false
XAxis mode: Wavelengths
Number of Pixels in Spectrum: 1024
>>>>>Begin Spectral Data<<<<<
801.071	30163
801.214	30182
801.356	29935
801.499	29946
801.641	29802
801.783	29908
801.926	29840
802.068	29809
802.211	29760
802.353	29737
802.496	29395
802.638	29410
802.78	29345
802.923	29269
803.065	29322
803.208	29235
803.35	29444
803.492	29524
803.635	29490
803.777	29467
803.919	29505
804.061	29741
804.204	29490
804.346	29463
804.488	29372
804.63	29551
804.773	29417
804.915	29448
805.057	29570
805.199	29429
805.341	29611
805.483	29627
805.626	29695
805.768	29436
805.91	29657
806.052	29634
806.194	29592
806.336	29783
806.478	29733
806.62	29482
806.762	29737
806.904	29954
807.046	30117
807.188	29942
807.33	29984
807.472	30091
807.614	29847
807.756	29802
807.898	29718
808.04	29843
808.182	29832
808.324	29764
808.465	29889
808.607	29893
808.749	30030
808.891	30285
809.033	30433
809.174	30174
809.316	30087
809.458	30129
809.6	30121
809.741	30232
809.883	30232
810.025	30410
810.166	30426
810.308	30372
810.45	30334
810.591	30346
810.733	30091
810.875	30163
811.016	30022
811.158	29996
811.299	30190
811.441	30407
811.582	30369
811.724	30144
811.865	30068
812.007	30064
812.148	30205
812.29	30125
812.431	30334
812.573	30456
812.714	30616
812.855	30604
812.997	30631
813.138	30954
813.279	30681
813.421	30505
813.562	30627
813.703	30357
813.845	30441
813.986	30076
814.127	29771
814.268	29859
814.41	29771
814.551	29752
814.692	29980
814.833	29535
814.974	29718
815.115	29775
815.256	29570
815.397	29486
815.539	29680
815.68	29433
815.821	29349
815.962	29570
816.103	29307
816.244	29410
816.385	29273
816.526	29212
816.666	29018
816.807	28809
816.948	29022
817.089	29010
817.23	28862
817.371	28953
817.512	28900
817.653	28976
817.793	28725
817.934	28873
818.075	28896
818.216	28987
818.356	28797
818.497	28694
818.638	28500
818.778	28596
818.919	28611
819.06	28478
819.2	28740
819.341	28873
819.481	28736
819.622	29006
819.762	29124
819.903	29064
820.043	28934
820.184	28854
820.324	28847
820.465	28900
820.605	28809
820.746	28694
820.886	28771
821.026	28805
821.167	28736
821.307	28672
821.447	28805
821.588	28664
821.728	28516
821.868	28356
822.008	28169
822.149	28154
822.289	28215
822.429	27960
822.569	27888
822.709	27850
822.849	27770
822.99	27686
823.13	27504
823.27	27629
823.41	27576
823.55	27359
823.69	27424
823.83	27283
823.97	27325
824.11	27237
824.25	27127
824.389	27195
824.529	27397
824.669	27154
824.809	27218
824.949	27363
825.089	27291
825.228	27287
825.368	26956
825.508	27047
825.648	27032
825.787	27173
825.927	27066
826.067	27024
826.206	27085
826.346	27100
826.485	27146
826.625	27055
826.765	27249
826.904	27184
827.044	26781
827.183	26842
827.323	26644
827.462	26689
827.601	26857
827.741	26644
827.88	26689
828.02	26568
828.159	26674
828.298	26773
828.437	26712
828.577	26533
828.716	26720
828.855	26674
828.994	26434
829.134	26240
829.273	26442
829.412	26457
829.551	26309
829.69	26404
829.829	26442
829.968	26564
830.107	26473
830.246	26347
830.385	26336
830.524	26168
830.663	25978
830.802	26039
830.941	25902
831.08	25974
831.219	25894
831.357	25997
831.496	26157
831.635	25841
831.774	25715
831.913	25849
832.051	25712
832.19	25666
832.329	25658
832.467	25712
832.606	25544
832.744	25453
832.883	25533
833.022	25483
833.16	25548
833.299	25578
833.437	25518
833.576	25445
833.714	25556
833.852	25537
833.991	25559
834.129	25514
834.267	25734
834.406	25502
834.544	25457
834.682	25590
834.821	25426
834.959	25635
835.097	25373
835.235	25502
835.373	25460
835.511	25544
835.65	25282
835.788	25236
835.926	25278
836.064	24992
836.202	25061
836.34	25179
836.478	25377
836.615	25304
836.753	25240
836.891	25407
837.029	25244
837.167	25171
837.305	25263
837.443	25187
837.58	25156
837.718	25244
837.856	25190
837.993	25072
838.131	25088
838.269	24992
838.406	25042
838.544	24947
838.681	24684
838.819	24593
838.956	24532
839.094	24574
839.231	24601
839.369	24635
839.506	24909
839.643	24798
839.781	24483
839.918	24448
840.055	24418
840.193	24509
840.33	24483
840.467	24528
840.604	24471
840.742	24620
840.879	24289
841.016	24350
841.153	24201
841.29	24540
841.427	24311
841.564	24399
841.701	24300
841.838	24190
841.975	24384
842.112	24308
842.249	24235
842.385	24095
842.522	24285
842.659	24064
842.796	24007
842.933	24167
843.069	23897
843.206	23977
843.343	24079
843.479	24011
843.616	23912
843.752	23828
843.889	23748
844.025	23935
844.162	23741
844.298	23931
844.435	23802
844.571	23687
844.708	23775
844.844	23775
844.98	23889
845.117	23939
845.253	23710
845.389	23611
845.525	23638
845.661	23691
845.798	23436
845.934	23581
846.07	23406
846.206	23600
846.342	23623
846.478	23474
846.614	23364
846.75	23147
846.886	23216
847.022	23315
847.158	23197
847.294	23246
847.429	23147
847.565	23185
847.701	23387
847.837	22885
847.972	22790
848.108	23086
848.244	22927
848.379	22767
848.515	22744
848.65	22763
848.786	22717
848.921	22702
849.057	22843
849.192	22889
849.328	22740
849.463	22797
849.598	22733
849.734	22771
849.869	22611
850.004	22512
850.14	22459
850.275	22462
850.41	22421
850.545	22443
850.68	22382
850.815	22588
850.95	22413
851.085	22717
851.22	22550
851.355	22432
851.49	22405
851.625	22371
851.76	22474
851.895	22367
852.03	22261
852.165	22287
852.299	22382
852.434	22455
852.569	22470
852.703	22493
852.838	22459
852.973	22470
853.107	22516
853.242	22367
853.376	22207
853.511	22188
853.645	22166
853.78	22329
853.914	22219
854.048	22223
854.183	22295
854.317	22303
854.451	22299
854.585	22230
854.72	22188
854.854	22249
854.988	22135
855.122	22192
855.256	22226
855.39	22154
855.524	22287
855.658	22382
855.792	22284
855.926	22131
856.06	22253
856.194	22284
856.327	22249
856.461	22207
856.595	22192
856.729	22242
856.862	22234
856.996	22207
857.13	22352
857.263	22398
857.397	22150
857.53	22078
857.664	22253
857.797	22230
857.931	22238
858.064	22379
858.197	22306
858.331	22150
858.464	22135
858.597	22059
858.731	22051
858.864	22074
858.997	22135
859.13	22116
859.263	22185
859.396	22230
859.529	22086
859.662	22116
859.795	22101
859.928	22112
860.061	22344
860.194	22371
860.327	22116
860.46	22234
860.592	22185
860.725	22303
860.858	22253
860.99	22063
861.123	22040
861.256	22055
861.388	22059
861.521	22634
861.653	21918
861.786	21930
861.918	21979
862.05	22067
862.183	22135
862.315	22265
862.447	22219
862.58	22124
862.712	21827
862.844	21736
862.976	21937
863.108	21899
863.24	22226
863.372	21819
863.504	21857
863.636	21869
863.768	21789
863.9	21831
864.032	21747
864.164	21720
864.296	21854
864.428	21842
864.559	21960
864.691	21800
864.823	21774
864.954	21827
865.086	21800
865.217	21648
865.349	21644
865.48	21667
865.612	21759
865.743	21831
865.875	21800
866.006	21542
866.137	21705
866.269	21675
866.4	21800
866.531	21629
866.662	21576
866.793	21633
866.924	21679
867.055	21686
867.186	21599
867.317	21500
867.448	21473
867.579	21633
867.71	21500
867.841	21534
867.972	21625
868.103	21542
868.233	21652
868.364	21564
868.495	21774
868.625	21797
868.756	21915
868.886	21781
869.017	21888
869.147	21926
869.278	21892
869.408	21869
869.539	21804
869.669	21861
869.799	21934
869.929	21972
870.06	21876
870.19	22078
870.32	22185
870.45	22337
870.58	22242
870.71	22291
870.84	22196
870.97	22325
871.1	22287
871.23	22436
871.36	22424
871.489	22329
871.619	22379
871.749	22481
871.879	22489
872.008	22557
872.138	22527
872.267	22284
872.397	22299
872.526	22249
872.656	22234
872.785	22284
872.915	22436
873.044	22443
873.173	22409
873.303	22618
873.432	22481
873.561	22523
873.69	22436
873.819	22485
873.948	22489
874.077	22447
874.206	22268
874.335	22470
874.464	22538
874.593	22721
874.722	22653
874.851	22736
874.979	22759
875.108	22793
875.237	22656
875.365	22565
875.494	22805
875.623	22866
875.751	22698
875.88	22649
876.008	22698
876.136	22847
876.265	23132
876.393	23098
876.521	23220
876.65	23136
876.778	23090
876.906	23064
877.034	23029
877.162	22934
877.29	23044
877.418	22987
877.546	23140
877.674	23155
877.802	22949
877.93	23025
878.058	22999
878.185	22854
878.313	23025
878.441	22930
878.568	22869
878.696	22984
878.824	23037
878.951	23010
879.079	23356
879.206	23220
879.333	23136
879.461	23098
879.588	23033
879.715	23197
879.842	23284
879.97	23052
880.097	22953
880.224	22843
880.351	22862
880.478	22892
880.605	22847
880.732	22885
880.859	23052
880.986	22828
881.112	22820
881.239	22702
881.366	22584
881.493	22481
881.619	22337
881.746	22428
881.872	22497
881.999	22417
882.125	22268
882.252	22481
882.378	22363
882.505	22637
882.631	22360
882.757	22032
882.883	22215
883.01	22242
883.136	22090
883.262	21998
883.388	21865
883.514	22215
883.64	22234
883.766	21987
883.892	21972
884.018	21930
884.143	22051
884.269	22238
884.395	21911
884.52	21736
884.646	21892
884.772	21739
884.897	21610
885.023	21876
885.148	21819
885.274	21953
885.399	21911
885.524	21751
885.65	21869
885.775	21679
885.9	21709
886.025	21861
886.15	21831
886.275	21652
886.4	21606
886.525	21713
886.65	21538
886.775	21614
886.9	21854
887.025	21975
887.149	21709
887.274	21408
887.399	21435
887.523	21447
887.648	21416
887.773	21450
887.897	21526
888.021	21542
888.146	21561
888.27	21454
888.395	21515
888.519	21500
888.643	21473
888.767	21561
888.891	21435
889.015	21233
889.139	21340
889.263	21192
889.387	21336
889.511	21485
889.635	21329
889.759	21249
889.883	21218
890.006	21359
890.13	21264
890.254	21154
890.377	21154
890.501	21005
890.624	20948
890.748	20960
890.871	20921
890.995	20929
891.118	20777
891.241	20769
891.364	20792
891.488	20933
891.611	20830
891.734	20765
891.857	20868
891.98	20944
892.103	20804
892.226	20773
892.349	20781
892.471	20575
892.594	20697
892.717	20788
892.839	20644
892.962	20667
893.085	20769
893.207	20765
893.33	20552
893.452	20590
893.575	20769
893.697	20826
893.819	20800
893.941	20864
894.064	20857
894.186	20758
894.308	20594
894.43	20773
894.552	20857
894.674	20849
894.796	20655
894.918	20701
895.04	20644
895.161	20834
895.283	20834
895.405	20629
895.526	20678
895.648	20648
895.769	20651
895.891	20708
896.012	20842
896.134	20731
896.255	20834
896.376	20682
896.498	20773
896.619	20758
896.74	20823
896.861	20826
896.982	21077
897.103	21241
897.224	20925
897.345	20902
897.466	20994
897.587	20883
897.708	21001
897.828	20842
897.949	20880
898.07	20819
898.19	20883
898.311	20960
898.431	20826
898.552	20838
898.672	20979
898.792	20887
898.913	20754
899.033	20686
899.153	20758
899.273	20419
899.393	20765
899.513	20579
899.633	20640
899.753	20636
899.873	20514
899.993	20552
900.113	20495
900.232	20431
900.352	20423
900.472	20366
900.591	20427
900.711	20389
900.83	20267
900.95	20507
901.069	20522
901.189	20328
901.308	20062
901.427	19993
901.546	19986
901.665	19982
901.784	19970
901.904	19856
902.023	19715
902.141	19639
902.26	19407
902.379	19518
902.498	19483
902.617	19403
902.735	19457
902.854	19396
902.973	19221
903.091	19091
903.21	18985
903.328	19145
903.446	19034
903.565	18962
903.683	18901
903.801	18719
903.919	18817
904.038	18844
904.156	18589
904.274	18627
904.392	18684
904.51	18646
904.627	18658
904.745	18795
904.863	18608
904.981	18395
905.098	18273
905.216	18300
905.334	18304
905.451	18315
905.569	18213
905.686	18209
905.803	18213
905.921	18091
906.038	18216
906.155	17977
906.272	17855
906.389	17973
906.506	17855
906.623	17764
906.74	17760
906.857	17646
906.974	17748
907.091	17889
907.208	17920
907.324	17779
907.441	17611
907.557	17532
907.674	17448
907.79	17535
907.907	17474
908.023	17501
908.139	17471
908.256	17402
908.372	17429
908.488	17337
908.604	17223
908.72	17208
908.836	17121
908.952	17124
909.068	17185
909.184	17181
909.3	17098
909.415	17086
909.531	17136
909.647	16915
909.762	16911
909.878	16854
909.993	16706
910.108	16782
910.224	16687
910.339	16755
910.454	16763
910.57	16694
910.685	16504
910.8	16850
910.915	16691
911.03	16698
911.145	16440
911.259	16432
911.374	16481
911.489	16367
911.604	16306
911.718	16150
911.833	16234
911.947	16059
912.062	16074
912.176	16116
912.291	16211
912.405	16234
912.519	16329
912.633	16276
912.748	16147
912.862	16131
912.976	15956
913.09	15926
913.204	15888
913.318	15953
913.431	15991
913.545	15983
913.659	16063
913.772	15953
913.886	15922
914	15755
914.113	15823
914.226	15808
914.34	15861
914.453	15603
914.566	15857
914.68	15625
914.793	15633
914.906	15431
915.019	15283
915.132	15317
915.245	15310
915.358	15408
915.47	15466
915.583	15374
915.696	15397
915.809	15488
915.921	15439
916.034	15272
916.146	15317
916.259	15214
916.371	15355
916.483	15367
916.595	15207
916.708	15169
916.82	15264
916.932	15230
917.044	15142
917.156	15176
917.268	14971
917.38	14971
917.491	15020
917.603	14941
917.715	15089
917.826	15074
917.938	14914
918.049	14887
918.161	15001
918.272	14986
918.384	15066
918.495	14967
918.606	14815
918.717	14697
918.828	14765
918.939	14796
919.05	14617
919.161	14617
919.272	14613
919.383	14530
919.494	14693
919.604	14838
919.715	14724
919.826	14648
919.936	14632
920.047	14765
920.157	14545
920.267	14864
920.378	14682
920.488	14655
920.598	14834
920.708	15005
920.818	14788
920.928	14754
921.038	14971
921.148	14937
921.258	14625
921.368	14480
921.477	14358
921.587	14309
921.697	14244
921.806	14286
921.916	14221
922.025	14073
922.134	14046
922.244	14024
922.353	14054
922.462	13849
922.571	13811
922.68	13609
922.789	13601
922.898	13605
923.007	13590
923.116	13662
923.224	13559
923.333	13563
923.442	13510
923.55	13403
923.659	13441
923.767	13533
923.876	13502
923.984	13445
924.092	13365
924.201	13346
924.309	13308
924.417	13365
924.525	13297
924.633	13316
924.741	13963
924.849	13099
924.956	13251
925.064	13095
925.172	13004
925.279	13065
925.387	13057
925.494	13057
925.602	13171
925.709	13038
925.816	12993
925.924	13027
926.031	13065
926.138	13008
926.245	13080
926.352	12916
926.459	13118
926.566	13099
926.673	13053
926.779	12810
926.886	12753
926.993	12711
927.099	12582
927.206	12574
927.312	12593
927.419	12608
927.525	12566
927.631	12658
927.737	12448
927.843	12509
927.95	12357
928.056	12460
928.162	12350
928.267	12429
928.373	13133
928.479	12490
928.585	12292
928.69	12311
928.796	12418
928.901	12197
929.007	12129
929.112	12220
929.218	12205
929.323	12079
929.428	12060
929.533	12251
929.638	12026
929.743	12030
929.848	12201
929.953	12098
930.058	12003
930.163	11824
930.267	11904
930.372	11931
930.477	11775
930.581	11946
930.685	11863
930.79	11710
930.894	11714
930.998	11699
931.103	11809
931.207	11459
931.311	11376
931.415	11330
931.519	11006
931.623	11018
