Data from test_V78500241_1950.txt Node
Date: Fri Mar 25 15:55:18 CST 2022
User: usil
Spectrometer: V785-0024
Trigger mode: 0
Integration Time (sec): 4.000000E-1
Scans to average: 1
Nonlinearity correction enabled: false
Boxcar width: 0
Storing dark spectrum: false
XAxis mode: Wavelengths
Number of Pixels in Spectrum: 1024
>>>>>Begin Spectral Data<<<<<
801.071	28919
801.214	28721
801.356	28615
801.499	28485
801.641	28500
801.783	28462
801.926	28443
802.068	28466
802.211	28363
802.353	28295
802.496	28287
802.638	28036
802.78	28120
802.923	27934
803.065	28059
803.208	28051
803.35	28280
803.492	28394
803.635	28291
803.777	28348
803.919	28375
804.061	28694
804.204	28341
804.346	28112
804.488	28196
804.63	28299
804.773	28360
804.915	28322
805.057	28493
805.199	28440
805.341	28474
805.483	28500
805.626	28584
805.768	28554
805.91	28462
806.052	28649
806.194	28459
806.336	28656
806.478	28531
806.62	28523
806.762	28763
806.904	28744
807.046	29094
807.188	29056
807.33	28957
807.472	29018
807.614	28877
807.756	28858
807.898	28831
808.04	28797
808.182	28797
808.324	28839
808.465	28778
808.607	28946
808.749	29128
808.891	29368
809.033	29467
809.174	29360
809.316	29318
809.458	29212
809.6	29086
809.741	29334
809.883	29337
810.025	29486
810.166	29585
810.308	29634
810.45	29436
810.591	29531
810.733	29326
810.875	29181
811.016	29254
811.158	29052
811.299	29303
811.441	29288
811.582	29490
811.724	29242
811.865	29170
812.007	29216
812.148	29250
812.29	29227
812.431	29425
812.573	29520
812.714	29691
812.855	29680
812.997	29942
813.138	29984
813.279	29923
813.421	29817
813.562	29653
813.703	29646
813.845	29520
813.986	29197
814.127	29083
814.268	28877
814.41	29041
814.551	29044
814.692	29121
814.833	28965
814.974	28987
815.115	28949
815.256	28831
815.397	28877
815.539	28991
815.68	28869
815.821	28820
815.962	28725
816.103	28733
816.244	28607
816.385	28656
816.526	28485
816.666	28432
816.807	28363
816.948	28322
817.089	28508
817.23	28447
817.371	28375
817.512	28135
817.653	28337
817.793	28234
817.934	28242
818.075	28306
818.216	28329
818.356	28379
818.497	28223
818.638	28048
818.778	28048
818.919	28010
819.06	28162
819.2	28322
819.341	28223
819.481	28314
819.622	28428
819.762	28565
819.903	28478
820.043	28493
820.184	28462
820.324	28500
820.465	28440
820.605	28508
820.746	28322
820.886	28401
821.026	28379
821.167	28306
821.307	28512
821.447	28348
821.588	28322
821.728	28147
821.868	28048
822.008	27759
822.149	27660
822.289	27842
822.429	27523
822.569	27420
822.709	27431
822.849	27393
822.99	27313
823.13	27427
823.27	27230
823.41	27055
823.55	27131
823.69	27009
823.83	27104
823.97	26971
824.11	27074
824.25	26982
824.389	26952
824.529	27013
824.669	27058
824.809	27074
824.949	27001
825.089	27028
825.228	26986
825.368	26895
825.508	26857
825.648	26678
825.787	26762
825.927	26975
826.067	26670
826.206	26796
826.346	26754
826.485	26830
826.625	26815
826.765	26853
826.904	26815
827.044	26518
827.183	26613
827.323	26549
827.462	26689
827.601	26587
827.741	26621
827.88	26556
828.02	26282
828.159	26415
828.298	26514
828.437	26469
828.577	26393
828.716	26674
828.855	26446
828.994	26183
829.134	26218
829.273	26111
829.412	26233
829.551	26218
829.69	26305
829.829	26259
829.968	26111
830.107	26309
830.246	26054
830.385	26081
830.524	26077
830.663	26157
830.802	25909
830.941	25708
831.08	25898
831.219	25913
831.357	25860
831.496	25925
831.635	25940
831.774	25753
831.913	25685
832.051	25738
832.19	25620
832.329	25677
832.467	25521
832.606	25468
832.744	25430
832.883	25403
833.022	25495
833.16	25495
833.299	25521
833.437	25476
833.576	25559
833.714	25590
833.852	25597
833.991	25563
834.129	25624
834.267	25620
834.406	25666
834.544	25624
834.682	25384
834.821	25578
834.959	25894
835.097	25479
835.235	25746
835.373	25464
835.511	25582
835.65	25449
835.788	25384
835.926	25247
836.064	25179
836.202	25266
836.34	25472
836.478	25548
836.615	25495
836.753	25491
836.891	25335
837.029	25426
837.167	25441
837.305	25369
837.443	25278
837.58	25221
837.718	25312
837.856	25244
837.993	25099
838.131	25164
838.269	25202
838.406	25217
838.544	24985
838.681	24943
838.819	24787
838.956	24711
839.094	24616
839.231	24722
839.369	24802
839.506	25080
839.643	24886
839.781	24753
839.918	24475
840.055	24612
840.193	24578
840.33	24589
840.467	24570
840.604	24673
840.742	24916
840.879	24445
841.016	24589
841.153	24456
841.29	24707
841.427	24528
841.564	24494
841.701	24623
841.838	24475
841.975	24407
842.112	24441
842.249	24308
842.385	24262
842.522	24452
842.659	24376
842.796	24376
842.933	24277
843.069	24323
843.206	24239
843.343	24289
843.479	24384
843.616	24346
843.752	24102
843.889	24171
844.025	24251
844.162	24053
844.298	24194
844.435	24049
844.571	24003
844.708	24079
844.844	24216
844.98	24178
845.117	24171
845.253	24022
845.389	24011
845.525	23999
845.661	23863
845.798	23897
845.934	23897
846.07	23771
846.206	23973
846.342	23893
846.478	23889
846.614	23653
846.75	23463
846.886	23596
847.022	23566
847.158	23691
847.294	23627
847.429	23661
847.565	23528
847.701	23653
847.837	23376
847.972	23341
848.108	23383
848.244	23303
848.379	23216
848.515	23109
848.65	23102
848.786	23124
848.921	23151
849.057	23334
849.192	23334
849.328	23220
849.463	23048
849.598	23060
849.734	22987
849.869	22919
850.004	22927
850.14	23064
850.275	22885
850.41	22790
850.545	22774
850.68	22850
850.815	22862
850.95	22889
851.085	23079
851.22	22942
851.355	23006
851.49	22984
851.625	22847
851.76	22873
851.895	22904
852.03	22805
852.165	22733
852.299	22934
852.434	22942
852.569	22927
852.703	22858
852.838	22972
852.973	22984
853.107	22904
853.242	22805
853.376	22637
853.511	22668
853.645	22584
853.78	22885
853.914	22721
854.048	22656
854.183	22729
854.317	22725
854.451	22885
854.585	22771
854.72	22721
854.854	22645
854.988	22694
855.122	22656
855.256	22653
855.39	22706
855.524	22744
855.658	22717
855.792	22645
855.926	22622
856.06	22805
856.194	22790
856.327	22641
856.461	22634
856.595	22675
856.729	22675
856.862	22816
856.996	22710
857.13	22626
857.263	22771
857.397	22824
857.53	22763
857.664	22710
857.797	22786
857.931	22854
858.064	22755
858.197	22767
858.331	22660
858.464	22660
858.597	22535
858.731	22691
858.864	22675
858.997	22755
859.13	22771
859.263	22679
859.396	22675
859.529	22786
859.662	22565
859.795	22717
859.928	22656
860.061	22831
860.194	22938
860.327	22752
860.46	22702
860.592	22763
860.725	22934
860.858	22774
860.99	22790
861.123	22580
861.256	22523
861.388	22748
861.521	23528
861.653	22489
861.786	22398
861.918	22527
862.05	22508
862.183	22519
862.315	22630
862.447	22611
862.58	22645
862.712	22413
862.844	22405
862.976	22447
863.108	22367
863.24	22915
863.372	22409
863.504	22512
863.636	22519
863.768	22527
863.9	22268
864.032	22341
864.164	22451
864.296	22443
864.428	22523
864.559	22470
864.691	22516
864.823	22459
864.954	22371
865.086	22242
865.217	22280
865.349	22223
865.48	22280
865.612	22299
865.743	22382
865.875	22329
866.006	22135
866.137	22181
866.269	22291
866.4	22257
866.531	22219
866.662	22139
866.793	22284
866.924	22090
867.055	22226
867.186	22284
867.317	22230
867.448	22109
867.579	22116
867.71	22128
867.841	22135
867.972	22204
868.103	22280
868.233	22139
868.364	22276
868.495	22280
868.625	22500
868.756	22432
868.886	22344
869.017	22489
869.147	22569
869.278	22607
869.408	22523
869.539	22382
869.669	22462
869.799	22428
869.929	22512
870.06	22599
870.19	22908
870.32	22615
870.45	22797
870.58	22717
870.71	22835
870.84	22896
870.97	22759
871.1	22919
871.23	23060
871.36	23048
871.489	22961
871.619	22915
871.749	22995
871.879	23159
872.008	23174
872.138	22987
872.267	23044
872.397	22911
872.526	22873
872.656	22869
872.785	22908
872.915	23086
873.044	23128
873.173	23044
873.303	23025
873.432	23178
873.561	23204
873.69	23140
873.819	22961
873.948	23250
874.077	23052
874.206	22961
874.335	23124
874.464	23261
874.593	23284
874.722	23360
874.851	23322
874.979	23292
875.108	23402
875.237	23212
875.365	23102
875.494	23261
875.623	23459
875.751	23307
875.88	23326
876.008	23337
876.136	23436
876.265	23737
876.393	23828
876.521	23752
876.65	23767
876.778	23691
876.906	23505
877.034	23741
877.162	23680
877.29	23630
877.418	23558
877.546	23676
877.674	23630
877.802	23646
877.93	23429
878.058	23554
878.185	23440
878.313	23600
878.441	23509
878.568	23493
878.696	23482
878.824	23570
878.951	23684
879.079	23798
879.206	23882
879.333	23767
879.461	23577
879.588	23794
879.715	23786
879.842	23870
879.97	23672
880.097	23436
880.224	23303
880.351	23551
880.478	23372
880.605	23421
880.732	23531
880.859	23646
880.986	23417
881.112	23478
881.239	23178
881.366	23280
881.493	23048
881.619	22991
881.746	23060
881.872	23140
881.999	22930
882.125	22919
882.252	22961
882.378	23010
882.505	23067
882.631	22831
882.757	22759
882.883	22793
883.01	22656
883.136	22649
883.262	22497
883.388	22466
883.514	22706
883.64	22611
883.766	22523
883.892	22409
884.018	22561
884.143	22603
884.269	22637
884.395	22436
884.52	22215
884.646	22325
884.772	22230
884.897	22204
885.023	22386
885.148	22337
885.274	22508
885.399	22287
885.524	22348
885.65	22314
885.775	22344
885.9	22188
886.025	22371
886.15	22341
886.275	22215
886.4	22044
886.525	22188
886.65	22158
886.775	22238
886.9	22550
887.025	22440
887.149	22223
887.274	21956
887.399	22101
887.523	22040
887.648	21960
887.773	22006
887.897	22124
888.021	22078
888.146	22021
888.27	22029
888.395	22177
888.519	21994
888.643	21979
888.767	22128
888.891	21922
889.015	21911
889.139	21960
889.263	21835
889.387	21949
889.511	21991
889.635	21934
889.759	21713
889.883	21831
890.006	21816
890.13	21831
890.254	21724
890.377	21625
890.501	21606
890.624	21580
890.748	21610
890.871	21538
890.995	21252
891.118	21374
891.241	21408
891.364	21435
891.488	21545
891.611	21291
891.734	21382
891.857	21386
891.98	21416
892.103	21363
892.226	21374
892.349	21397
892.471	21051
892.594	21104
892.717	21298
892.839	21252
892.962	21135
893.085	21218
893.207	21203
893.33	21161
893.452	21165
893.575	21283
893.697	21252
893.819	21367
893.941	21469
894.064	21272
894.186	21230
894.308	21081
894.43	21222
894.552	21439
894.674	21344
894.796	21192
894.918	21241
895.04	21169
895.161	21325
895.283	21317
895.405	21138
895.526	21302
895.648	21180
895.769	21249
895.891	21340
896.012	21214
896.134	21313
896.255	21146
896.376	21184
896.498	21283
896.619	21306
896.74	21203
896.861	21252
896.982	21485
897.103	21671
897.224	21477
897.345	21378
897.466	21336
897.587	21340
897.708	21648
897.828	21447
897.949	21355
898.07	21294
898.19	21344
898.311	21447
898.431	21351
898.552	21367
898.672	21500
898.792	21530
898.913	21469
899.033	21310
899.153	21321
899.273	20979
899.393	21169
899.513	21199
899.633	21066
899.753	21192
899.873	21188
899.993	21302
900.113	21028
900.232	21207
900.352	21024
900.472	21024
900.591	20941
900.711	20956
900.83	20785
900.95	20975
901.069	20937
901.189	20781
901.308	20594
901.427	20484
901.546	20495
901.665	20404
901.784	20423
901.904	20381
902.023	20259
902.141	19989
902.26	20077
902.379	20062
902.498	19944
902.617	19986
902.735	20073
902.854	19940
902.973	19890
903.091	19746
903.21	19624
903.328	19651
903.446	19613
903.565	19457
903.683	19422
903.801	19266
903.919	19327
904.038	19343
904.156	19187
904.274	19209
904.392	19164
904.51	19122
904.627	19099
904.745	19232
904.863	19213
904.981	19023
905.098	18962
905.216	18821
905.334	18932
905.451	18810
905.569	18882
905.686	18958
905.803	18867
905.921	18745
906.038	18764
906.155	18776
906.272	18513
906.389	18521
906.506	18350
906.623	18566
906.74	18486
906.857	18300
906.974	18266
907.091	18403
907.208	18502
907.324	18445
907.441	18266
907.557	18209
907.674	18041
907.79	18003
907.907	17973
908.023	18213
908.139	18133
908.256	18015
908.372	17984
908.488	17866
908.604	17939
908.72	17733
908.836	17729
908.952	17790
909.068	17908
909.184	17961
909.3	17836
909.415	17821
909.531	17779
909.647	17520
909.762	17425
909.878	17478
909.993	17490
910.108	17459
910.224	17509
910.339	17520
910.454	17288
910.57	17223
910.685	17254
910.8	17520
910.915	17379
911.03	17269
911.145	17075
911.259	17022
911.374	17075
911.489	16995
911.604	16927
911.718	16812
911.833	16858
911.947	16790
912.062	16596
912.176	16771
912.291	16748
912.405	16759
912.519	16976
912.633	17018
912.748	16919
912.862	16729
912.976	16645
913.09	16512
913.204	16584
913.318	16634
913.431	16771
913.545	16748
913.659	16771
913.772	16615
913.886	16405
914	16466
914.113	16512
914.226	16466
914.34	16459
914.453	16386
914.566	16474
914.68	16341
914.793	16207
914.906	16086
915.019	16010
915.132	15918
915.245	15926
915.358	15926
915.47	16021
915.583	16078
915.696	15964
915.809	16109
915.921	16086
916.034	15915
916.146	15926
916.259	15778
916.371	15892
916.483	15903
916.595	15717
916.708	15789
916.82	15770
916.932	15751
917.044	15789
917.156	15793
917.268	15599
917.38	15599
917.491	15584
917.603	15648
917.715	15652
917.826	15591
917.938	15530
918.049	15496
918.161	15591
918.272	15686
918.384	15641
918.495	15572
918.606	15416
918.717	15325
918.828	15431
918.939	15294
919.05	15272
919.161	15260
919.272	15154
919.383	15135
919.494	15237
919.604	15538
919.715	15279
919.826	15317
919.936	15313
920.047	15386
920.157	15294
920.267	15443
920.378	15245
920.488	15249
920.598	15439
920.708	15644
920.818	15382
920.928	15367
921.038	15496
921.148	15507
921.258	15245
921.368	15081
921.477	14914
921.587	14956
921.697	14918
921.806	15032
921.916	14773
922.025	14739
922.134	14670
922.244	14621
922.353	14697
922.462	14522
922.571	14457
922.68	14328
922.789	14290
922.898	14267
923.007	14138
923.116	14336
923.224	14252
923.333	14214
923.442	14157
923.55	14043
923.659	14168
923.767	14199
923.876	14069
923.984	14126
924.092	13925
924.201	13963
924.309	14008
924.417	14020
924.525	13879
924.633	13909
924.741	14826
924.849	13681
924.956	13769
925.064	13719
925.172	13632
925.279	13681
925.387	13791
925.494	13734
925.602	13799
925.709	13643
925.816	13518
925.924	13693
926.031	13639
926.138	13681
926.245	13594
926.352	13521
926.459	13632
926.566	13670
926.673	13590
926.779	13377
926.886	13259
926.993	13228
927.099	13160
927.206	13110
927.312	13194
927.419	13198
927.525	13179
927.631	13206
927.737	13061
927.843	13034
927.95	13034
928.056	13034
928.162	13050
928.267	13069
928.373	13704
928.479	13171
928.585	12791
928.69	12970
928.796	12981
928.901	12867
929.007	12741
929.112	12882
929.218	12764
929.323	12795
929.428	12684
929.533	12871
929.638	12665
929.743	12715
929.848	12681
929.953	12662
930.058	12528
930.163	12456
930.267	12391
930.372	12467
930.477	12300
930.581	12635
930.685	12445
930.79	12205
930.894	12292
930.998	12239
931.103	12372
931.207	12114
931.311	11893
931.415	11843
931.519	11600
931.623	11642
