Data from test_V78500241_1995.txt Node
Date: Fri Mar 25 15:55:37 CST 2022
User: usil
Spectrometer: V785-0024
Trigger mode: 0
Integration Time (sec): 4.000000E-1
Scans to average: 1
Nonlinearity correction enabled: false
Boxcar width: 0
Storing dark spectrum: false
XAxis mode: Wavelengths
Number of Pixels in Spectrum: 1024
>>>>>Begin Spectral Data<<<<<
801.071	28493
801.214	28440
801.356	28242
801.499	28120
801.641	28044
801.783	28025
801.926	28036
802.068	27895
802.211	27793
802.353	27865
802.496	27675
802.638	27819
802.78	27739
802.923	27591
803.065	27591
803.208	27652
803.35	27838
803.492	27842
803.635	27907
803.777	27770
803.919	27934
804.061	28287
804.204	28097
804.346	27865
804.488	27762
804.63	27789
804.773	27903
804.915	27987
805.057	28139
805.199	28013
805.341	27941
805.483	28177
805.626	28139
805.768	28074
805.91	28169
806.052	28097
806.194	27903
806.336	28276
806.478	28093
806.62	28082
806.762	28272
806.904	28382
807.046	28569
807.188	28542
807.33	28451
807.472	28615
807.614	28508
807.756	28360
807.898	28348
808.04	28413
808.182	28462
808.324	28382
808.465	28443
808.607	28637
808.749	28771
808.891	28942
809.033	28938
809.174	28809
809.316	28744
809.458	28710
809.6	28668
809.741	28919
809.883	28782
810.025	29132
810.166	29003
810.308	29083
810.45	28957
810.591	28934
810.733	28801
810.875	28835
811.016	28725
811.158	28649
811.299	28888
811.441	28976
811.582	28927
811.724	28706
811.865	28778
812.007	28694
812.148	28767
812.29	28797
812.431	28869
812.573	29037
812.714	29048
812.855	29356
812.997	29261
813.138	29577
813.279	29379
813.421	29440
813.562	29220
813.703	29159
813.845	29181
813.986	28908
814.127	28573
814.268	28489
814.41	28500
814.551	28554
814.692	28443
814.833	28379
814.974	28405
815.115	28470
815.256	28287
815.397	28382
815.539	28379
815.68	28261
815.821	28173
815.962	28303
816.103	28204
816.244	28162
816.385	28105
816.526	28006
816.666	27854
816.807	27694
816.948	27717
817.089	27895
817.23	27888
817.371	27728
817.512	27823
817.653	27770
817.793	27698
817.934	27892
818.075	27671
818.216	27728
818.356	27629
818.497	27660
818.638	27622
818.778	27431
818.919	27515
819.06	27515
819.2	27583
819.341	27728
819.481	27770
819.622	27827
819.762	28154
819.903	27884
820.043	28082
820.184	27876
820.324	27960
820.465	27907
820.605	27926
820.746	27869
820.886	27652
821.026	27918
821.167	27808
821.307	27895
821.447	27770
821.588	27652
821.728	27770
821.868	27367
822.008	27203
822.149	27241
822.289	27150
822.429	26906
822.569	26853
822.709	26986
822.849	26746
822.99	26849
823.13	26697
823.27	26629
823.41	26667
823.55	26431
823.69	26602
823.83	26568
823.97	26545
824.11	26415
824.25	26355
824.389	26370
824.529	26442
824.669	26347
824.809	26530
824.949	26522
825.089	26473
825.228	26488
825.368	26119
825.508	26229
825.648	26301
825.787	26328
825.927	26381
826.067	26233
826.206	26282
826.346	26389
826.485	26427
826.625	26290
826.765	26347
826.904	26358
827.044	26161
827.183	26046
827.323	25997
827.462	26187
827.601	26062
827.741	25986
827.88	26142
828.02	25993
828.159	25955
828.298	26073
828.437	26050
828.577	25864
828.716	26020
828.855	25879
828.994	25696
829.134	25769
829.273	25772
829.412	25597
829.551	25563
829.69	25681
829.829	25639
829.968	25879
830.107	25830
830.246	25769
830.385	25772
830.524	25571
830.663	25544
830.802	25403
830.941	25331
831.08	25369
831.219	25392
831.357	25270
831.496	25468
831.635	25350
831.774	25236
831.913	25217
832.051	25148
832.19	24973
832.329	25023
832.467	24897
832.606	24935
832.744	24947
832.883	24875
833.022	25012
833.16	24992
833.299	25012
833.437	24932
833.576	25107
833.714	25023
833.852	25034
833.991	25076
834.129	25122
834.267	25099
834.406	25038
834.544	25072
834.682	24928
834.821	24954
834.959	25206
835.097	24852
835.235	25000
835.373	25019
835.511	24916
835.65	24776
835.788	24985
835.926	24601
836.064	24783
836.202	24620
836.34	24802
836.478	24935
836.615	24825
836.753	24894
836.891	24928
837.029	24916
837.167	24798
837.305	24806
837.443	24719
837.58	24525
837.718	24776
837.856	24753
837.993	24559
838.131	24589
838.269	24429
838.406	24612
838.544	24559
838.681	24403
838.819	24114
838.956	24148
839.094	24159
839.231	24174
839.369	24311
839.506	24612
839.643	24391
839.781	24102
839.918	23999
840.055	24049
840.193	24049
840.33	23977
840.467	24034
840.604	24015
840.742	24289
840.879	24083
841.016	23939
841.153	23855
841.29	24163
841.427	24152
841.564	24015
841.701	24026
841.838	23992
841.975	23954
842.112	24079
842.249	23817
842.385	23832
842.522	23950
842.659	23843
842.796	23821
842.933	23912
843.069	23794
843.206	23653
843.343	23878
843.479	23794
843.616	23843
843.752	23668
843.889	23661
844.025	23840
844.162	23531
844.298	23741
844.435	23653
844.571	23566
844.708	23646
844.844	23703
844.98	23699
845.117	23729
845.253	23421
845.389	23581
845.525	23528
845.661	23410
845.798	23436
845.934	23398
846.07	23398
846.206	23345
846.342	23372
846.478	23231
846.614	23185
846.75	23094
846.886	23003
847.022	23071
847.158	23029
847.294	23048
847.429	23128
847.565	23018
847.701	23185
847.837	22889
847.972	22702
848.108	22908
848.244	22896
848.379	22649
848.515	22637
848.65	22607
848.786	22687
848.921	22641
849.057	22767
849.192	22797
849.328	22660
849.463	22634
849.598	22607
849.734	22599
849.869	22554
850.004	22360
850.14	22398
850.275	22421
850.41	22325
850.545	22405
850.68	22413
850.815	22440
850.95	22436
851.085	22607
851.22	22519
851.355	22409
851.49	22409
851.625	22367
851.76	22398
851.895	22405
852.03	22310
852.165	22299
852.299	22459
852.434	22592
852.569	22485
852.703	22398
852.838	22394
852.973	22516
853.107	22489
853.242	22371
853.376	22253
853.511	22204
853.645	22249
853.78	22390
853.914	22341
854.048	22154
854.183	22200
854.317	22139
854.451	22356
854.585	22310
854.72	22242
854.854	22257
854.988	22215
855.122	22173
855.256	22131
855.39	22242
855.524	22303
855.658	22261
855.792	22177
855.926	22207
856.06	22162
856.194	22242
856.327	22230
856.461	22272
856.595	22139
856.729	22150
856.862	22276
856.996	22276
857.13	22356
857.263	22337
857.397	22261
857.53	22135
857.664	22421
857.797	22226
857.931	22432
858.064	22253
858.197	22356
858.331	22196
858.464	22211
858.597	22230
858.731	22112
858.864	22219
858.997	22234
859.13	22318
859.263	22173
859.396	22421
859.529	22344
859.662	22223
859.795	22169
859.928	22226
860.061	22360
860.194	22424
860.327	22325
860.46	22295
860.592	22371
860.725	22405
860.858	22268
860.99	22158
861.123	22196
861.256	22185
861.388	22169
861.521	23029
861.653	22154
861.786	22002
861.918	22086
862.05	22048
862.183	22158
862.315	22295
862.447	22265
862.58	22223
862.712	21975
862.844	21835
862.976	22105
863.108	22017
863.24	22421
863.372	21876
863.504	21930
863.636	21956
863.768	22105
863.9	21998
864.032	21968
864.164	21838
864.296	21857
864.428	22074
864.559	22097
864.691	22013
864.823	21930
864.954	21899
865.086	21835
865.217	21846
865.349	21747
865.48	21812
865.612	21968
865.743	21930
865.875	21907
866.006	21709
866.137	21892
866.269	21785
866.4	21827
866.531	21766
866.662	21732
866.793	21728
866.924	21823
867.055	21759
867.186	21789
867.317	21644
867.448	21686
867.579	21663
867.71	21747
867.841	21709
867.972	21732
868.103	21701
868.233	21759
868.364	21793
868.495	21850
868.625	21972
868.756	22090
868.886	21812
869.017	21915
869.147	22101
869.278	22101
869.408	21911
869.539	21937
869.669	21991
869.799	21979
869.929	22021
870.06	22128
870.19	22246
870.32	22306
870.45	22348
870.58	22306
870.71	22512
870.84	22421
870.97	22428
871.1	22356
871.23	22584
871.36	22519
871.489	22599
871.619	22592
871.749	22683
871.879	22546
872.008	22736
872.138	22687
872.267	22607
872.397	22561
872.526	22455
872.656	22291
872.785	22451
872.915	22645
873.044	22702
873.173	22637
873.303	22729
873.432	22634
873.561	22820
873.69	22653
873.819	22599
873.948	22717
874.077	22569
874.206	22580
874.335	22694
874.464	22717
874.593	22828
874.722	22733
874.851	22759
874.979	22809
875.108	22816
875.237	22824
875.365	22535
875.494	22793
875.623	22740
875.751	22637
875.88	22866
876.008	22904
876.136	23010
876.265	23200
876.393	23330
876.521	23296
876.65	23326
876.778	23265
876.906	23086
877.034	23010
877.162	23162
877.29	23140
877.418	23060
877.546	23178
877.674	23197
877.802	23098
877.93	23166
878.058	23162
878.185	23033
878.313	23094
878.441	23132
878.568	23079
878.696	23075
878.824	23109
878.951	23269
879.079	23220
879.206	23474
879.333	23235
879.461	23269
879.588	23261
879.715	23269
879.842	23429
879.97	23261
880.097	22980
880.224	22965
880.351	22946
880.478	23006
880.605	23018
880.732	23033
880.859	23212
880.986	22972
881.112	23064
881.239	22915
881.366	22744
881.493	22691
881.619	22516
881.746	22637
881.872	22596
881.999	22577
882.125	22569
882.252	22584
882.378	22390
882.505	22535
882.631	22402
882.757	22306
882.883	22272
883.01	22219
883.136	22291
883.262	22021
883.388	22006
883.514	22226
883.64	22367
883.766	22173
883.892	21960
884.018	21941
884.143	22131
884.269	22128
884.395	21926
884.52	21865
884.646	21945
884.772	21819
884.897	21854
885.023	21911
885.148	21945
885.274	21998
885.399	21972
885.524	21926
885.65	21945
885.775	22044
885.9	21911
886.025	21892
886.15	21930
886.275	21827
886.4	21819
886.525	21831
886.65	21759
886.775	21751
886.9	21899
887.025	22082
887.149	21827
887.274	21599
887.399	21618
887.523	21633
887.648	21698
887.773	21504
887.897	21663
888.021	21682
888.146	21538
888.27	21682
888.395	21679
888.519	21663
888.643	21709
888.767	21663
888.891	21462
889.015	21507
889.139	21416
889.263	21386
889.387	21450
889.511	21481
889.635	21610
889.759	21431
889.883	21439
890.006	21511
890.13	21439
890.254	21310
890.377	21378
890.501	21207
890.624	21116
890.748	21222
890.871	21180
890.995	20849
891.118	20914
891.241	21017
891.364	21043
891.488	21081
891.611	20952
891.734	20944
891.857	21081
891.98	20941
892.103	21119
892.226	21017
892.349	20979
892.471	20807
892.594	20990
892.717	20804
892.839	20910
892.962	20811
893.085	21001
893.207	20906
893.33	20758
893.452	20686
893.575	20883
893.697	20800
893.819	21043
893.941	21157
894.064	20891
894.186	20849
894.308	20826
894.43	20880
894.552	21028
894.674	21028
894.796	20705
894.918	20735
895.04	20746
895.161	20906
895.283	20906
895.405	20739
895.526	20731
895.648	20834
895.769	20792
895.891	20891
896.012	20902
896.134	20887
896.255	20933
896.376	20906
896.498	20902
896.619	20823
896.74	20937
896.861	20712
896.982	21355
897.103	21169
897.224	21096
897.345	20941
897.466	21062
897.587	21085
897.708	21214
897.828	21047
897.949	20948
898.07	20842
898.19	21055
898.311	21096
898.431	21028
898.552	21123
898.672	21146
898.792	21077
898.913	20963
899.033	20956
899.153	20872
899.273	20769
899.393	20811
899.513	20765
899.633	20849
899.753	20887
899.873	20678
899.993	20712
900.113	20701
900.232	20727
900.352	20674
900.472	20537
900.591	20575
900.711	20606
900.83	20549
900.95	20689
901.069	20773
901.189	20465
901.308	20259
901.427	20176
901.546	20142
901.665	20145
901.784	20168
901.904	20065
902.023	19883
902.141	19727
902.26	19651
902.379	19712
902.498	19616
902.617	19559
902.735	19658
902.854	19571
902.973	19586
903.091	19221
903.21	19297
903.328	19270
903.446	19282
903.565	19122
903.683	19091
903.801	18977
903.919	19057
904.038	19019
904.156	18905
904.274	18947
904.392	18867
904.51	18791
904.627	18966
904.745	18772
904.863	18928
904.981	18684
905.098	18555
905.216	18475
905.334	18532
905.451	18471
905.569	18494
905.686	18467
905.803	18464
905.921	18456
906.038	18445
906.155	18384
906.272	18277
906.389	18258
906.506	18110
906.623	18091
906.74	18011
906.857	17836
906.974	17939
907.091	18026
907.208	18060
907.324	18011
907.441	17946
907.557	17904
907.674	17767
907.79	17687
907.907	17737
908.023	17798
908.139	17748
908.256	17600
908.372	17596
908.488	17676
908.604	17623
908.72	17425
908.836	17440
908.952	17353
909.068	17581
909.184	17646
909.3	17421
909.415	17421
909.531	17436
909.647	17235
909.762	17239
909.878	17124
909.993	17258
910.108	17079
910.224	17162
910.339	17083
910.454	17086
910.57	16968
910.685	16968
910.8	17181
910.915	17090
911.03	16991
911.145	16828
911.259	16706
911.374	16702
911.489	16771
911.604	16599
911.718	16531
911.833	16531
911.947	16417
912.062	16333
912.176	16504
912.291	16466
912.405	16474
912.519	16664
912.633	16645
912.748	16500
912.862	16504
912.976	16413
913.09	16325
913.204	16261
913.318	16204
913.431	16462
913.545	16459
913.659	16497
913.772	16234
913.886	16093
914	16048
914.113	16109
914.226	16234
914.34	16166
914.453	15964
914.566	16120
914.68	15972
914.793	15930
914.906	15762
915.019	15766
915.132	15728
915.245	15614
915.358	15705
915.47	15705
915.583	15770
915.696	15679
915.809	15781
915.921	15861
916.034	15568
916.146	15595
916.259	15557
916.371	15667
916.483	15622
916.595	15477
916.708	15481
916.82	15523
916.932	15450
917.044	15416
917.156	15511
917.268	15359
917.38	15382
917.491	15237
917.603	15329
917.715	15340
917.826	15367
917.938	15287
918.049	15119
918.161	15211
918.272	15340
918.384	15302
918.495	15195
918.606	15180
918.717	14941
918.828	15085
918.939	15081
919.05	14998
919.161	14921
919.272	14807
919.383	14944
919.494	15161
919.604	15256
919.715	14982
919.826	14891
919.936	14967
920.047	15077
920.157	15062
920.267	15203
920.378	15001
920.488	14975
920.598	15108
920.708	15359
920.818	15131
920.928	15074
921.038	15272
921.148	15294
921.258	14998
921.368	14902
921.477	14861
921.587	14762
921.697	14480
921.806	14838
921.916	14621
922.025	14434
922.134	14343
922.244	14229
922.353	14389
922.462	14298
922.571	14244
922.68	14012
922.789	13959
922.898	14046
923.007	13932
923.116	14149
923.224	13856
923.333	14027
923.442	13936
923.55	13860
923.659	13879
923.767	13887
923.876	13818
923.984	13837
924.092	13757
924.201	13761
924.309	13693
924.417	13791
924.525	13677
924.633	13655
924.741	14446
924.849	13388
924.956	13639
925.064	13468
925.172	13354
925.279	13407
925.387	13365
925.494	13381
925.602	13514
925.709	13499
925.816	13358
925.924	13350
926.031	13518
926.138	13403
926.245	13426
926.352	13270
926.459	13327
926.566	13331
926.673	13285
926.779	13171
926.886	13129
926.993	12913
927.099	12962
927.206	12924
927.312	12795
927.419	13023
927.525	12947
927.631	12897
927.737	12825
927.843	12741
927.95	12623
928.056	12802
928.162	12833
928.267	12791
928.373	13419
928.479	12806
928.585	12616
928.69	12738
928.796	12719
928.901	12589
929.007	12433
929.112	12662
929.218	12483
929.323	12559
929.428	12460
929.533	12684
929.638	12471
929.743	12414
929.848	12361
929.953	12460
930.058	12380
930.163	12171
930.267	12144
930.372	12395
930.477	12148
930.581	12384
930.685	12251
930.79	12041
930.894	12057
930.998	12125
931.103	12110
931.207	11775
931.311	11676
931.415	11611
931.519	11417
931.623	11417
