Data from test_V78500241_2799.txt Node
Date: Fri Mar 25 16:01:11 CST 2022
User: usil
Spectrometer: V785-0024
Trigger mode: 0
Integration Time (sec): 4.000000E-1
Scans to average: 1
Nonlinearity correction enabled: false
Boxcar width: 0
Storing dark spectrum: false
XAxis mode: Wavelengths
Number of Pixels in Spectrum: 1024
>>>>>Begin Spectral Data<<<<<
801.071	28793
801.214	28744
801.356	28535
801.499	28485
801.641	28280
801.783	28341
801.926	28424
802.068	28401
802.211	28291
802.353	28447
802.496	28124
802.638	28086
802.78	27987
802.923	28063
803.065	28036
803.208	28013
803.35	28154
803.492	28211
803.635	28394
803.777	28078
803.919	28405
804.061	28725
804.204	28352
804.346	28268
804.488	28086
804.63	28390
804.773	28329
804.915	28371
805.057	28725
805.199	28314
805.341	28428
805.483	28527
805.626	28626
805.768	28459
805.91	28611
806.052	28668
806.194	28474
806.336	28584
806.478	28569
806.62	28599
806.762	28660
806.904	28675
807.046	28892
807.188	28900
807.33	28843
807.472	29018
807.614	29018
807.756	29010
807.898	28786
808.04	28843
808.182	28858
808.324	28892
808.465	28786
808.607	29071
808.749	29246
808.891	29375
809.033	29417
809.174	29143
809.316	29235
809.458	29086
809.6	29143
809.741	29250
809.883	29353
810.025	29558
810.166	29425
810.308	29710
810.45	29486
810.591	29410
810.733	29353
810.875	29204
811.016	29185
811.158	29071
811.299	29474
811.441	29433
811.582	29349
811.724	29121
811.865	29197
812.007	29250
812.148	29265
812.29	29326
812.431	29414
812.573	29585
812.714	29695
812.855	29729
812.997	29790
813.138	29999
813.279	29965
813.421	29653
813.562	29710
813.703	29524
813.845	29433
813.986	29166
814.127	29109
814.268	28946
814.41	29098
814.551	28881
814.692	29025
814.833	28801
814.974	28968
815.115	28896
815.256	28820
815.397	28744
815.539	28843
815.68	28664
815.821	28637
815.962	28755
816.103	28702
816.244	28573
816.385	28599
816.526	28474
816.666	28382
816.807	28211
816.948	28295
817.089	28432
817.23	28325
817.371	28295
817.512	28261
817.653	28196
817.793	28276
817.934	28314
818.075	28341
818.216	28314
818.356	28143
818.497	28185
818.638	28036
818.778	28036
818.919	28063
819.06	28055
819.2	28207
819.341	28356
819.481	28204
819.622	28386
819.762	28649
819.903	28569
820.043	28561
820.184	28409
820.324	28382
820.465	28535
820.605	28390
820.746	28333
820.886	28204
821.026	28322
821.167	28299
821.307	28428
821.447	28379
821.588	28192
821.728	28090
821.868	27972
822.008	27743
822.149	27667
822.289	27709
822.429	27351
822.569	27393
822.709	27519
822.849	27123
822.99	27211
823.13	27294
823.27	27336
823.41	27157
823.55	27013
823.69	27169
823.83	27077
823.97	27077
824.11	26800
824.25	26910
824.389	26990
824.529	27013
824.669	26902
824.809	27055
824.949	26940
825.089	27085
825.228	26944
825.368	26815
825.508	26667
825.648	26800
825.787	26823
825.927	26819
826.067	26651
826.206	26686
826.346	26819
826.485	26891
826.625	26796
826.765	26929
826.904	27005
827.044	26716
827.183	26579
827.323	26488
827.462	26579
827.601	26480
827.741	26419
827.88	26587
828.02	26457
828.159	26613
828.298	26533
828.437	26575
828.577	26465
828.716	26541
828.855	26457
828.994	26161
829.134	26191
829.273	26237
829.412	26062
829.551	26153
829.69	26024
829.829	26199
829.968	26271
830.107	26267
830.246	26221
830.385	26107
830.524	26050
830.663	26092
830.802	25818
830.941	25833
831.08	25799
831.219	25742
831.357	25868
831.496	26046
831.635	25864
831.774	25734
831.913	25780
832.051	25597
832.19	25696
832.329	25521
832.467	25487
832.606	25377
832.744	25499
832.883	25415
833.022	25392
833.16	25609
833.299	25464
833.437	25594
833.576	25712
833.714	25620
833.852	25537
833.991	25647
834.129	25658
834.267	25559
834.406	25537
834.544	25514
834.682	25567
834.821	25586
834.959	25738
835.097	25548
835.235	25605
835.373	25586
835.511	25544
835.65	25400
835.788	25464
835.926	25255
836.064	25160
836.202	25206
836.34	25354
836.478	25365
836.615	25285
836.753	25263
836.891	25529
837.029	25324
837.167	25194
837.305	25164
837.443	25327
837.58	25225
837.718	25187
837.856	25388
837.993	25259
838.131	25080
838.269	25107
838.406	25148
838.544	24897
838.681	24897
838.819	24928
838.956	24692
839.094	24745
839.231	24665
839.369	24844
839.506	24947
839.643	24852
839.781	24601
839.918	24631
840.055	24738
840.193	24589
840.33	24661
840.467	24574
840.604	24650
840.742	24875
840.879	24559
841.016	24467
841.153	24338
841.29	24597
841.427	24570
841.564	24597
841.701	24418
841.838	24589
841.975	24566
842.112	24570
842.249	24403
842.385	24289
842.522	24464
842.659	24285
842.796	24262
842.933	24209
843.069	24296
843.206	24243
843.343	24361
843.479	24289
843.616	24216
843.752	24144
843.889	24087
844.025	24239
844.162	24129
844.298	24171
844.435	24053
844.571	23958
844.708	24136
844.844	24171
844.98	24121
845.117	24022
845.253	23996
845.389	24015
845.525	23908
845.661	23988
845.798	23836
845.934	23855
846.07	23840
846.206	23786
846.342	23897
846.478	23802
846.614	23634
846.75	23440
846.886	23615
847.022	23589
847.158	23577
847.294	23551
847.429	23547
847.565	23577
847.701	23767
847.837	23193
847.972	23284
848.108	23372
848.244	23326
848.379	23223
848.515	23212
848.65	23189
848.786	22999
848.921	23094
849.057	23216
849.192	23208
849.328	23235
849.463	23162
849.598	23083
849.734	23079
849.869	22968
850.004	22968
850.14	22908
850.275	22957
850.41	22915
850.545	22858
850.68	22896
850.815	22991
850.95	22869
851.085	23048
851.22	23117
851.355	22900
851.49	22824
851.625	22831
851.76	22873
851.895	22790
852.03	22797
852.165	22858
852.299	22911
852.434	22946
852.569	22991
852.703	22949
852.838	22938
852.973	23033
853.107	22949
853.242	22843
853.376	22748
853.511	22687
853.645	22664
853.78	22691
853.914	22672
854.048	22607
854.183	22698
854.317	22805
854.451	22889
854.585	22801
854.72	22702
854.854	22862
854.988	22691
855.122	22725
855.256	22702
855.39	22683
855.524	22748
855.658	22771
855.792	22717
855.926	22862
856.06	22831
856.194	22828
856.327	22793
856.461	22656
856.595	22717
856.729	22774
856.862	22744
856.996	22694
857.13	22763
857.263	22850
857.397	22828
857.53	22660
857.664	22809
857.797	22881
857.931	22771
858.064	22782
858.197	22790
858.331	22706
858.464	22554
858.597	22485
858.731	22740
858.864	22630
858.997	22729
859.13	22611
859.263	22805
859.396	22729
859.529	22755
859.662	22653
859.795	22637
859.928	22835
860.061	22889
860.194	22896
860.327	22752
860.46	22812
860.592	22881
860.725	22801
860.858	22946
860.99	22774
861.123	22694
861.256	22710
861.388	22683
861.521	23372
861.653	22508
861.786	22489
861.918	22516
862.05	22580
862.183	22588
862.315	22622
862.447	22683
862.58	22668
862.712	22318
862.844	22402
862.976	22478
863.108	22535
863.24	22797
863.372	22382
863.504	22398
863.636	22409
863.768	22519
863.9	22478
864.032	22188
864.164	22322
864.296	22497
864.428	22462
864.559	22341
864.691	22481
864.823	22363
864.954	22485
865.086	22497
865.217	22325
865.349	22242
865.48	22234
865.612	22363
865.743	22447
865.875	22276
866.006	22223
866.137	22329
866.269	22246
866.4	22234
866.531	22253
866.662	22215
866.793	22154
866.924	22272
867.055	22306
867.186	22272
867.317	22173
867.448	22147
867.579	22219
867.71	22147
867.841	22196
867.972	22226
868.103	22261
868.233	22181
868.364	22188
868.495	22268
868.625	22466
868.756	22607
868.886	22379
869.017	22481
869.147	22653
869.278	22664
869.408	22516
869.539	22466
869.669	22535
869.799	22421
869.929	22508
870.06	22535
870.19	22740
870.32	22694
870.45	22805
870.58	22790
870.71	23003
870.84	22923
870.97	22892
871.1	22850
871.23	22911
871.36	23033
871.489	23018
871.619	23064
871.749	22976
871.879	23151
872.008	23273
872.138	22980
872.267	23075
872.397	23037
872.526	22896
872.656	22908
872.785	22797
872.915	23121
873.044	23166
873.173	23132
873.303	23151
873.432	23166
873.561	23220
873.69	23121
873.819	23159
873.948	23178
874.077	23246
874.206	23025
874.335	23113
874.464	23166
874.593	23322
874.722	23284
874.851	23383
874.979	23303
875.108	23330
875.237	23254
875.365	23174
875.494	23360
875.623	23372
875.751	23341
875.88	23315
876.008	23315
876.136	23509
876.265	23729
876.393	23889
876.521	23802
876.65	23745
876.778	23657
876.906	23687
877.034	23707
877.162	23676
877.29	23619
877.418	23657
877.546	23585
877.674	23741
877.802	23665
877.93	23623
878.058	23608
878.185	23414
878.313	23551
878.441	23592
878.568	23410
878.696	23547
878.824	23547
878.951	23668
879.079	23748
879.206	23939
879.333	23805
879.461	23672
879.588	23828
879.715	23821
879.842	23939
879.97	23691
880.097	23459
880.224	23482
880.351	23528
880.478	23505
880.605	23421
880.732	23322
880.859	23745
880.986	23467
881.112	23364
881.239	23258
881.366	23170
881.493	23189
881.619	22930
881.746	22987
881.872	23090
881.999	22995
882.125	22991
882.252	22984
882.378	22953
882.505	23022
882.631	22740
882.757	22702
882.883	22759
883.01	22755
883.136	22557
883.262	22641
883.388	22493
883.514	22599
883.64	22675
883.766	22672
883.892	22516
884.018	22527
884.143	22778
884.269	22656
884.395	22443
884.52	22276
884.646	22352
884.772	22162
884.897	22185
885.023	22226
885.148	22390
885.274	22421
885.399	22485
885.524	22226
885.65	22394
885.775	22417
885.9	22211
886.025	22481
886.15	22322
886.275	22261
886.4	22223
886.525	22147
886.65	22246
886.775	22188
886.9	22371
887.025	22508
887.149	22257
887.274	22158
887.399	22169
887.523	21934
887.648	22025
887.773	22006
887.897	22097
888.021	22139
888.146	22086
888.27	22029
888.395	22067
888.519	22029
888.643	22086
888.767	22090
888.891	22002
889.015	21846
889.139	22040
889.263	21865
889.387	21979
889.511	22166
889.635	21953
889.759	21861
889.883	21846
890.006	21869
890.13	21972
890.254	21842
890.377	21778
890.501	21515
890.624	21644
890.748	21557
890.871	21523
890.995	21370
891.118	21336
891.241	21507
891.364	21462
891.488	21435
891.611	21351
891.734	21389
891.857	21507
891.98	21412
892.103	21393
892.226	21340
892.349	21348
892.471	21154
892.594	21256
892.717	21363
892.839	21245
892.962	21184
893.085	21435
893.207	21287
893.33	21112
893.452	21146
893.575	21283
893.697	21252
893.819	21382
893.941	21610
894.064	21473
894.186	21123
894.308	21279
894.43	21405
894.552	21450
894.674	21272
894.796	21173
894.918	21211
895.04	21302
895.161	21294
895.283	21279
895.405	21306
895.526	21169
895.648	21222
895.769	21348
895.891	21260
896.012	21207
896.134	21332
896.255	21294
896.376	21294
896.498	21192
896.619	21264
896.74	21230
896.861	21405
896.982	21481
897.103	21679
897.224	21454
897.345	21519
897.466	21386
897.587	21492
897.708	21496
897.828	21473
897.949	21340
898.07	21291
898.19	21363
898.311	21553
898.431	21386
898.552	21393
898.672	21393
898.792	21462
898.913	21534
899.033	21359
899.153	21279
899.273	21135
899.393	21245
899.513	21332
899.633	21211
899.753	21127
899.873	21055
899.993	21203
900.113	21165
900.232	21275
900.352	21055
900.472	20967
900.591	20906
900.711	20979
900.83	20895
900.95	21135
901.069	21017
901.189	20861
901.308	20701
901.427	20526
901.546	20484
901.665	20526
901.784	20514
901.904	20427
902.023	20237
902.141	20065
902.26	20016
902.379	20142
902.498	19978
902.617	20062
902.735	20035
902.854	19928
902.973	19921
903.091	19666
903.21	19818
903.328	19704
903.446	19670
903.565	19518
903.683	19480
903.801	19312
903.919	19430
904.038	19419
904.156	19244
904.274	19301
904.392	19175
904.51	19213
904.627	19179
904.745	19278
904.863	19255
904.981	18993
905.098	18867
905.216	18821
905.334	18966
905.451	18909
905.569	18833
905.686	18894
905.803	18779
905.921	18665
906.038	18745
906.155	18661
906.272	18642
906.389	18536
906.506	18448
906.623	18445
906.74	18448
906.857	18315
906.974	18353
907.091	18467
907.208	18536
907.324	18357
907.441	18243
907.557	18049
907.674	18083
907.79	17980
907.907	18152
908.023	18091
908.139	18190
908.256	18026
908.372	17969
908.488	18117
908.604	17984
908.72	17836
908.836	17859
908.952	17748
909.068	17882
909.184	17813
909.3	17878
909.415	17870
909.531	17764
909.647	17558
909.762	17486
909.878	17547
909.993	17604
910.108	17509
910.224	17524
910.339	17444
910.454	17448
910.57	17307
910.685	17197
910.8	17547
910.915	17376
911.03	17299
911.145	17303
911.259	17102
911.374	17090
911.489	16946
911.604	16968
911.718	16847
911.833	16782
911.947	16755
912.062	16656
912.176	16797
912.291	16930
912.405	16786
912.519	16927
912.633	17083
912.748	16809
912.862	16847
912.976	16645
913.09	16542
913.204	16504
913.318	16645
913.431	16733
913.545	16702
913.659	16729
913.772	16512
913.886	16538
914	16413
914.113	16592
914.226	16535
914.34	16569
914.453	16363
914.566	16424
914.68	16375
914.793	16265
914.906	16147
915.019	15941
915.132	16032
915.245	16051
915.358	16036
915.47	16021
915.583	15991
915.696	16029
915.809	16074
915.921	16101
916.034	15926
916.146	15922
916.259	16010
916.371	16013
916.483	15991
916.595	15861
916.708	15804
916.82	15846
916.932	15941
917.044	15785
917.156	15785
917.268	15648
917.38	15686
917.491	15622
917.603	15698
917.715	15724
917.826	15755
917.938	15629
918.049	15576
918.161	15534
918.272	15797
918.384	15679
918.495	15709
918.606	15412
918.717	15359
918.828	15424
918.939	15363
919.05	15313
919.161	15382
919.272	15119
919.383	15180
919.494	15443
919.604	15591
919.715	15302
919.826	15218
919.936	15298
920.047	15435
920.157	15367
920.267	15393
920.378	15298
920.488	15313
920.598	15545
920.708	15625
920.818	15393
920.928	15378
921.038	15561
921.148	15504
921.258	15298
921.368	15150
921.477	15146
921.587	15020
921.697	14883
921.806	14986
921.916	14914
922.025	14754
922.134	14701
922.244	14697
922.353	14636
922.462	14503
922.571	14507
922.68	14355
922.789	14332
922.898	14313
923.007	14290
923.116	14385
923.224	14309
923.333	14278
923.442	14126
923.55	14107
923.659	14176
923.767	14256
923.876	14199
923.984	14214
924.092	14012
924.201	14039
924.309	14119
924.417	14058
924.525	13959
924.633	14005
924.741	14876
924.849	13704
924.956	13940
925.064	13738
925.172	13681
925.279	13628
925.387	13822
925.494	13670
925.602	13849
925.709	13704
925.816	13620
925.924	13533
926.031	13757
926.138	13559
926.245	13636
926.352	13468
926.459	13632
926.566	13655
926.673	13518
926.779	13396
926.886	13331
926.993	13198
927.099	13312
927.206	13194
927.312	13304
927.419	13236
927.525	13129
927.631	13198
927.737	13076
927.843	13034
927.95	12856
928.056	13008
928.162	13046
928.267	13149
928.373	13529
928.479	13099
928.585	12837
928.69	12954
928.796	12989
928.901	12776
929.007	12787
929.112	12848
929.218	12871
929.323	12719
929.428	12707
929.533	12916
929.638	12730
929.743	12726
929.848	12719
929.953	12753
930.058	12551
930.163	12407
930.267	12407
930.372	12642
930.477	12338
930.581	12631
930.685	12494
930.79	12254
930.894	12338
930.998	12285
931.103	12445
931.207	12106
931.311	11950
931.415	11794
931.519	11627
931.623	11604
