Data from test_V78500241_2497.txt Node
Date: Fri Mar 25 15:59:05 CST 2022
User: usil
Spectrometer: V785-0024
Trigger mode: 0
Integration Time (sec): 4.000000E-1
Scans to average: 1
Nonlinearity correction enabled: false
Boxcar width: 0
Storing dark spectrum: false
XAxis mode: Wavelengths
Number of Pixels in Spectrum: 1024
>>>>>Begin Spectral Data<<<<<
801.071	28622
801.214	28527
801.356	28424
801.499	28443
801.641	28284
801.783	28257
801.926	28299
802.068	28253
802.211	28230
802.353	28124
802.496	27994
802.638	27922
802.78	27880
802.923	27793
803.065	27816
803.208	27816
803.35	27842
803.492	28059
803.635	28078
803.777	27956
803.919	28226
804.061	28401
804.204	28265
804.346	28116
804.488	28105
804.63	28063
804.773	28105
804.915	28234
805.057	28181
805.199	28109
805.341	28272
805.483	28344
805.626	28310
805.768	28044
805.91	28280
806.052	28219
806.194	28287
806.336	28303
806.478	28158
806.62	28314
806.762	28360
806.904	28466
807.046	28896
807.188	28702
807.33	28847
807.472	28812
807.614	28630
807.756	28740
807.898	28527
808.04	28512
808.182	28603
808.324	28542
808.465	28668
808.607	28763
808.749	28976
808.891	28908
809.033	29223
809.174	29090
809.316	28957
809.458	28923
809.6	28911
809.741	29086
809.883	29083
810.025	29121
810.166	29242
810.308	29178
810.45	29239
810.591	29014
810.733	29010
810.875	28995
811.016	28858
811.158	28816
811.299	28873
811.441	29155
811.582	29102
811.724	28976
811.865	28961
812.007	28866
812.148	29018
812.29	29006
812.431	29113
812.573	29387
812.714	29482
812.855	29345
812.997	29524
813.138	29634
813.279	29672
813.421	29471
813.562	29539
813.703	29391
813.845	29174
813.986	28991
814.127	28850
814.268	28687
814.41	28717
814.551	28725
814.692	28778
814.833	28550
814.974	28599
815.115	28618
815.256	28523
815.397	28519
815.539	28508
815.68	28573
815.821	28546
815.962	28561
816.103	28424
816.244	28401
816.385	28379
816.526	28265
816.666	28112
816.807	28101
816.948	28036
817.089	28101
817.23	28044
817.371	27869
817.512	28067
817.653	28055
817.793	27960
817.934	28078
818.075	27922
818.216	28010
818.356	27968
818.497	27831
818.638	27709
818.778	27694
818.919	27743
819.06	27819
819.2	27880
819.341	28010
819.481	27914
819.622	28044
819.762	28417
819.903	28341
820.043	28230
820.184	28242
820.324	28188
820.465	28253
820.605	27991
820.746	28063
820.886	27960
821.026	28032
821.167	28013
821.307	28246
821.447	28059
821.588	27949
821.728	27835
821.868	27614
822.008	27618
822.149	27568
822.289	27519
822.429	27066
822.569	27241
822.709	27207
822.849	26979
822.99	27032
823.13	26845
823.27	26998
823.41	26868
823.55	26648
823.69	26800
823.83	26861
823.97	26670
824.11	26659
824.25	26571
824.389	26495
824.529	26697
824.669	26800
824.809	26773
824.949	26697
825.089	26640
825.228	26727
825.368	26594
825.508	26518
825.648	26560
825.787	26636
825.927	26473
826.067	26488
826.206	26469
826.346	26571
826.485	26564
826.625	26549
826.765	26568
826.904	26545
827.044	26347
827.183	26214
827.323	26244
827.462	26336
827.601	26267
827.741	26214
827.88	26221
828.02	26084
828.159	26191
828.298	26267
828.437	26313
828.577	26103
828.716	26286
828.855	26031
828.994	25788
829.134	25879
829.273	25974
829.412	25887
829.551	25883
829.69	25913
829.829	25986
829.968	26039
830.107	25921
830.246	25818
830.385	25963
830.524	25833
830.663	25814
830.802	25628
830.941	25529
831.08	25518
831.219	25670
831.357	25548
831.496	25761
831.635	25464
831.774	25426
831.913	25518
832.051	25263
832.19	25407
832.329	25301
832.467	25274
832.606	25126
832.744	25247
832.883	25183
833.022	25072
833.16	25209
833.299	25247
833.437	25369
833.576	25202
833.714	25308
833.852	25190
833.991	25266
834.129	25304
834.267	25304
834.406	25308
834.544	25202
834.682	25209
834.821	25190
834.959	25244
835.097	25183
835.235	25316
835.373	25263
835.511	25266
835.65	25107
835.788	25168
835.926	25088
836.064	24810
836.202	25072
836.34	25080
836.478	25141
836.615	25015
836.753	24992
836.891	25206
837.029	25080
837.167	25076
837.305	24989
837.443	24867
837.58	24989
837.718	25038
837.856	25012
837.993	24837
838.131	24890
838.269	24749
838.406	24635
838.544	24821
838.681	24498
838.819	24528
838.956	24399
839.094	24365
839.231	24502
839.369	24570
839.506	24730
839.643	24544
839.781	24342
839.918	24270
840.055	24258
840.193	24273
840.33	24144
840.467	24365
840.604	24407
840.742	24582
840.879	24144
841.016	24102
841.153	24133
841.29	24391
841.427	24258
841.564	24167
841.701	24308
841.838	24277
841.975	24323
842.112	24152
842.249	24110
842.385	24034
842.522	24239
842.659	24152
842.796	24015
842.933	24072
843.069	23980
843.206	23946
843.343	23961
843.479	23870
843.616	24041
843.752	23821
843.889	23809
844.025	23954
844.162	23779
844.298	23939
844.435	23809
844.571	23733
844.708	23855
844.844	23946
844.98	23965
845.117	23866
845.253	23745
845.389	23646
845.525	23600
845.661	23649
845.798	23452
845.934	23623
846.07	23547
846.206	23512
846.342	23657
846.478	23482
846.614	23349
846.75	23159
846.886	23330
847.022	23303
847.158	23269
847.294	23349
847.429	23200
847.565	23197
847.701	23406
847.837	22987
847.972	22892
848.108	23052
848.244	23003
848.379	22999
848.515	22915
848.65	22774
848.786	22835
848.921	22877
849.057	22961
849.192	22942
849.328	22797
849.463	22885
849.598	22752
849.734	22702
849.869	22706
850.004	22656
850.14	22653
850.275	22573
850.41	22603
850.545	22603
850.68	22588
850.815	22538
850.95	22641
851.085	22748
851.22	22816
851.355	22561
851.49	22405
851.625	22462
851.76	22599
851.895	22443
852.03	22550
852.165	22443
852.299	22717
852.434	22687
852.569	22580
852.703	22580
852.838	22523
852.973	22630
853.107	22664
853.242	22592
853.376	22512
853.511	22234
853.645	22424
853.78	22500
853.914	22550
854.048	22382
854.183	22299
854.317	22322
854.451	22584
854.585	22485
854.72	22428
854.854	22417
854.988	22382
855.122	22348
855.256	22341
855.39	22485
855.524	22550
855.658	22531
855.792	22500
855.926	22489
856.06	22493
856.194	22561
856.327	22310
856.461	22413
856.595	22314
856.729	22409
856.862	22443
856.996	22360
857.13	22455
857.263	22478
857.397	22561
857.53	22344
857.664	22459
857.797	22432
857.931	22557
858.064	22394
858.197	22485
858.331	22413
858.464	22318
858.597	22398
858.731	22382
858.864	22436
858.997	22356
859.13	22356
859.263	22512
859.396	22561
859.529	22344
859.662	22405
859.795	22413
859.928	22341
860.061	22645
860.194	22577
860.327	22542
860.46	22451
860.592	22500
860.725	22630
860.858	22561
860.99	22531
861.123	22329
861.256	22341
861.388	22375
861.521	23223
861.653	22272
861.786	22253
861.918	22150
862.05	22375
862.183	22325
862.315	22371
862.447	22291
862.58	22204
862.712	22207
862.844	22177
862.976	22200
863.108	22109
863.24	22538
863.372	22082
863.504	22166
863.636	22204
863.768	22246
863.9	22139
864.032	22013
864.164	22010
864.296	22154
864.428	22394
864.559	21968
864.691	22268
864.823	22139
864.954	22086
865.086	22040
865.217	22021
865.349	21922
865.48	21941
865.612	22048
865.743	22226
865.875	22051
866.006	21979
866.137	21876
866.269	21991
866.4	21895
866.531	21915
866.662	21854
866.793	21945
866.924	21926
867.055	21892
867.186	21903
867.317	21903
867.448	21903
867.579	21934
867.71	21903
867.841	21960
867.972	21922
868.103	21918
868.233	22006
868.364	21956
868.495	22074
868.625	22169
868.756	22219
868.886	22025
869.017	22162
869.147	22215
869.278	22238
869.408	22299
869.539	22154
869.669	22272
869.799	22356
869.929	22390
870.06	22306
870.19	22512
870.32	22577
870.45	22424
870.58	22565
870.71	22641
870.84	22664
870.97	22603
871.1	22538
871.23	22729
871.36	22672
871.489	22725
871.619	22698
871.749	22653
871.879	22733
872.008	23029
872.138	22755
872.267	22835
872.397	22687
872.526	22622
872.656	22512
872.785	22637
872.915	22797
873.044	22816
873.173	22748
873.303	22873
873.432	22934
873.561	22869
873.69	22816
873.819	22782
873.948	22919
874.077	22809
874.206	22774
874.335	22843
874.464	22869
874.593	23086
874.722	23029
874.851	22938
874.979	22984
875.108	23025
875.237	22919
875.365	22900
875.494	22946
875.623	23124
875.751	22873
875.88	23128
876.008	23090
876.136	23296
876.265	23421
876.393	23528
876.521	23524
876.65	23566
876.778	23402
876.906	23467
877.034	23220
877.162	23440
877.29	23360
877.418	23349
877.546	23223
877.674	23402
877.802	23239
877.93	23326
878.058	23216
878.185	23166
878.313	23334
878.441	23280
878.568	23159
878.696	23307
878.824	23364
878.951	23436
879.079	23410
879.206	23520
879.333	23474
879.461	23391
879.588	23516
879.715	23353
879.842	23684
879.97	23459
880.097	23105
880.224	23189
880.351	23277
880.478	23143
880.605	23113
880.732	23159
880.859	23311
880.986	23227
881.112	23235
881.239	23064
881.366	22752
881.493	22839
881.619	22805
881.746	22797
881.872	22759
881.999	22542
882.125	22725
882.252	22717
882.378	22790
882.505	22759
882.631	22721
882.757	22428
882.883	22527
883.01	22440
883.136	22405
883.262	22276
883.388	22215
883.514	22417
883.64	22398
883.766	22242
883.892	22356
884.018	22268
884.143	22405
884.269	22371
884.395	22181
884.52	22070
884.646	21994
884.772	22040
884.897	21930
885.023	22051
885.148	22223
885.274	22204
885.399	22105
885.524	22055
885.65	22150
885.775	22070
885.9	21979
886.025	22257
886.15	22105
886.275	21987
886.4	21888
886.525	21956
886.65	21934
886.775	21850
886.9	22173
887.025	22234
887.149	21994
887.274	21903
887.399	21880
887.523	21838
887.648	21854
887.773	21717
887.897	21964
888.021	21827
888.146	21713
888.27	21876
888.395	21915
888.519	21945
888.643	21823
888.767	21804
888.891	21694
889.015	21694
889.139	21675
889.263	21500
889.387	21675
889.511	21732
889.635	21675
889.759	21545
889.883	21519
890.006	21603
890.13	21568
890.254	21557
890.377	21553
890.501	21416
890.624	21275
890.748	21500
890.871	21329
890.995	21127
891.118	21032
891.241	21150
891.364	21154
891.488	21184
891.611	21245
891.734	21108
891.857	21272
891.98	21169
892.103	21173
892.226	21066
892.349	21074
892.471	20979
892.594	21070
892.717	21039
892.839	21051
892.962	21047
893.085	20979
893.207	20948
893.33	20899
893.452	20899
893.575	21157
893.697	21009
893.819	21203
893.941	21252
894.064	21203
894.186	20956
894.308	21085
894.43	21089
894.552	21260
894.674	21100
894.796	20872
894.918	21047
895.04	21009
895.161	21066
895.283	21005
895.405	21024
895.526	21020
895.648	20861
895.769	20994
895.891	20986
896.012	21074
896.134	21093
896.255	21024
896.376	21096
896.498	21043
896.619	21032
896.74	21081
896.861	20967
896.982	21405
897.103	21344
897.224	21226
897.345	21112
897.466	21104
897.587	21256
897.708	21412
897.828	21252
897.949	21043
898.07	21055
898.19	21241
898.311	21344
898.431	21218
898.552	21180
898.672	21359
898.792	21363
898.913	21233
899.033	21032
899.153	21009
899.273	20956
899.393	20899
899.513	20910
899.633	21032
899.753	20933
899.873	20895
899.993	20941
900.113	20834
900.232	20910
900.352	20834
900.472	20708
900.591	20785
900.711	20807
900.83	20648
900.95	20861
901.069	20750
901.189	20579
901.308	20385
901.427	20252
901.546	20298
901.665	20191
901.784	20225
901.904	20130
902.023	20096
902.141	19868
902.26	19871
902.379	19883
902.498	19746
902.617	19890
902.735	19921
902.854	19719
902.973	19681
903.091	19460
903.21	19434
903.328	19472
903.446	19483
903.565	19148
903.683	19198
903.801	19190
903.919	19213
904.038	19232
904.156	18981
904.274	19080
904.392	18977
904.51	18970
904.627	19103
904.745	18985
904.863	19133
904.981	18844
905.098	18631
905.216	18597
905.334	18753
905.451	18749
905.569	18734
905.686	18684
905.803	18593
905.921	18471
906.038	18547
906.155	18544
906.272	18486
906.389	18323
906.506	18209
906.623	18209
906.74	18159
906.857	18060
906.974	18079
907.091	18220
907.208	18319
907.324	18292
907.441	18068
907.557	18011
907.674	17999
907.79	17714
907.907	17851
908.023	18019
908.139	17889
908.256	17783
908.372	17851
908.488	17756
908.604	17707
908.72	17501
908.836	17687
908.952	17551
909.068	17630
909.184	17752
909.3	17680
909.415	17589
909.531	17672
909.647	17417
909.762	17223
909.878	17288
909.993	17303
910.108	17204
910.224	17216
910.339	17170
910.454	17166
910.57	17258
910.685	17079
910.8	17288
910.915	17311
911.03	17105
911.145	17037
911.259	16949
911.374	16828
911.489	16767
911.604	16805
911.718	16622
911.833	16683
911.947	16577
912.062	16421
912.176	16615
912.291	16603
912.405	16622
912.519	16881
912.633	16862
912.748	16641
912.862	16554
912.976	16443
913.09	16363
913.204	16367
913.318	16436
913.431	16554
913.545	16542
913.659	16577
913.772	16363
913.886	16287
914	16257
914.113	16382
914.226	16322
914.34	16230
914.453	16044
914.566	16341
914.68	16158
914.793	16067
914.906	16025
915.019	15762
915.132	15709
915.245	15816
915.358	15819
915.47	15778
915.583	15869
915.696	15857
915.809	15922
915.921	15975
916.034	15835
916.146	15701
916.259	15770
916.371	15774
916.483	15736
916.595	15614
916.708	15701
916.82	15603
916.932	15584
917.044	15572
917.156	15557
917.268	15435
917.38	15466
917.491	15447
917.603	15454
917.715	15492
917.826	15485
917.938	15382
918.049	15222
918.161	15397
918.272	15515
918.384	15507
918.495	15310
918.606	15294
918.717	15207
918.828	15161
918.939	15256
919.05	15123
919.161	15233
919.272	14948
919.383	15066
919.494	15230
919.604	15275
919.715	15157
919.826	15066
919.936	15081
920.047	15211
920.157	15085
920.267	15245
920.378	15066
920.488	15074
920.598	15233
920.708	15443
920.818	15325
920.928	15279
921.038	15401
921.148	15462
921.258	15043
921.368	14994
921.477	14880
921.587	14838
921.697	14777
921.806	14845
921.916	14754
922.025	14457
922.134	14518
922.244	14473
922.353	14469
922.462	14454
922.571	14343
922.68	14267
922.789	14115
922.898	14195
923.007	14031
923.116	14149
923.224	14119
923.333	14103
923.442	14016
923.55	14035
923.659	13947
923.767	13963
923.876	13947
923.984	13978
924.092	13875
924.201	13947
924.309	13936
924.417	13826
924.525	13757
924.633	13788
924.741	14526
924.849	13559
924.956	13712
925.064	13552
925.172	13468
925.279	13506
925.387	13594
925.494	13472
925.602	13616
925.709	13525
925.816	13362
925.924	13460
926.031	13578
926.138	13495
926.245	13578
926.352	13396
926.459	13521
926.566	13548
926.673	13392
926.779	13308
926.886	13141
926.993	13168
927.099	13149
927.206	13050
927.312	12962
927.419	13095
927.525	13065
927.631	13164
927.737	12977
927.843	12962
927.95	12806
928.056	12768
928.162	12840
928.267	12932
928.373	13525
928.479	12935
928.585	12738
928.69	12825
928.796	12821
928.901	12730
929.007	12597
929.112	12669
929.218	12665
929.323	12604
929.428	12566
929.533	12642
929.638	12540
929.743	12498
929.848	12551
929.953	12498
930.058	12422
930.163	12239
930.267	12319
930.372	12365
930.477	12152
930.581	12475
930.685	12247
930.79	12155
930.894	12163
930.998	12091
931.103	12247
931.207	11794
931.311	11870
931.415	11684
931.519	11493
931.623	11486
