Data from test_V78500241_1945.txt Node
Date: Fri Mar 25 15:55:16 CST 2022
User: usil
Spectrometer: V785-0024
Trigger mode: 0
Integration Time (sec): 4.000000E-1
Scans to average: 1
Nonlinearity correction enabled: false
Boxcar width: 0
Storing dark spectrum: false
XAxis mode: Wavelengths
Number of Pixels in Spectrum: 1024
>>>>>Begin Spectral Data<<<<<
801.071	28710
801.214	28603
801.356	28603
801.499	28554
801.641	28478
801.783	28363
801.926	28527
802.068	28428
802.211	28306
802.353	28295
802.496	28055
802.638	28135
802.78	27949
802.923	28006
803.065	27960
803.208	28010
803.35	28158
803.492	28230
803.635	28306
803.777	28154
803.919	28401
804.061	28641
804.204	28284
804.346	28242
804.488	28348
804.63	28432
804.773	28379
804.915	28409
805.057	28554
805.199	28287
805.341	28504
805.483	28516
805.626	28497
805.768	28352
805.91	28481
806.052	28588
806.194	28367
806.336	28675
806.478	28542
806.62	28485
806.762	28797
806.904	28869
807.046	29121
807.188	28980
807.33	28896
807.472	28984
807.614	28896
807.756	28923
807.898	28850
808.04	28755
808.182	28790
808.324	28824
808.465	28755
808.607	29113
808.749	29128
808.891	29117
809.033	29364
809.174	29261
809.316	29200
809.458	29113
809.6	29143
809.741	29341
809.883	29280
810.025	29452
810.166	29360
810.308	29391
810.45	29493
810.591	29254
810.733	29155
810.875	29102
811.016	29083
811.158	29090
811.299	29189
811.441	29159
811.582	29345
811.724	29269
811.865	29208
812.007	29178
812.148	29098
812.29	29265
812.431	29501
812.573	29554
812.714	29680
812.855	29714
812.997	29714
813.138	30049
813.279	29958
813.421	29710
813.562	29680
813.703	29448
813.845	29398
813.986	29159
814.127	29162
814.268	28790
814.41	28915
814.551	28824
814.692	28968
814.833	28816
814.974	28854
815.115	28858
815.256	28748
815.397	28828
815.539	28869
815.68	28797
815.821	28577
815.962	28740
816.103	28698
816.244	28531
816.385	28550
816.526	28569
816.666	28344
816.807	28169
816.948	28276
817.089	28394
817.23	28223
817.371	28124
817.512	28185
817.653	28249
817.793	28070
817.934	28177
818.075	28158
818.216	28192
818.356	28090
818.497	28112
818.638	27941
818.778	28040
818.919	28040
819.06	28051
819.2	28048
819.341	28162
819.481	28291
819.622	28314
819.762	28512
819.903	28596
820.043	28485
820.184	28401
820.324	28356
820.465	28398
820.605	28371
820.746	28401
820.886	28219
821.026	28265
821.167	28306
821.307	28371
821.447	28143
821.588	28181
821.728	27994
821.868	27755
822.008	27724
822.149	27641
822.289	27648
822.429	27378
822.569	27355
822.709	27488
822.849	27237
822.99	27203
823.13	27188
823.27	27142
823.41	27024
823.55	26990
823.69	26967
823.83	26990
823.97	27020
824.11	26758
824.25	26872
824.389	26982
824.529	26952
824.669	26815
824.809	27058
824.949	26944
825.089	26979
825.228	26815
825.368	26746
825.508	26632
825.648	26678
825.787	26762
825.927	26800
826.067	26670
826.206	26720
826.346	26762
826.485	26857
826.625	26743
826.765	26830
826.904	26914
827.044	26655
827.183	26336
827.323	26453
827.462	26636
827.601	26442
827.741	26412
827.88	26488
828.02	26347
828.159	26457
828.298	26450
828.437	26450
828.577	26343
828.716	26568
828.855	26396
828.994	26187
829.134	26199
829.273	26233
829.412	26115
829.551	26161
829.69	26096
829.829	26218
829.968	26161
830.107	26168
830.246	26161
830.385	26054
830.524	25966
830.663	25925
830.802	25955
830.941	25700
831.08	25613
831.219	25925
831.357	25830
831.496	26031
831.635	25807
831.774	25632
831.913	25609
832.051	25620
832.19	25613
832.329	25578
832.467	25468
832.606	25358
832.744	25362
832.883	25396
833.022	25430
833.16	25419
833.299	25544
833.437	25415
833.576	25506
833.714	25396
833.852	25578
833.991	25525
834.129	25590
834.267	25495
834.406	25639
834.544	25518
834.682	25468
834.821	25308
834.959	25601
835.097	25521
835.235	25464
835.373	25422
835.511	25510
835.65	25392
835.788	25251
835.926	25289
836.064	25171
836.202	25084
836.34	25301
836.478	25472
836.615	25156
836.753	25225
836.891	25346
837.029	25202
837.167	25194
837.305	25008
837.443	25107
837.58	25141
837.718	25027
837.856	25091
837.993	25038
838.131	25057
838.269	25183
838.406	25160
838.544	25034
838.681	24757
838.819	24768
838.956	24559
839.094	24601
839.231	24703
839.369	24715
839.506	24996
839.643	24837
839.781	24574
839.918	24505
840.055	24456
840.193	24601
840.33	24608
840.467	24528
840.604	24490
840.742	24760
840.879	24391
841.016	24467
841.153	24395
841.29	24612
841.427	24517
841.564	24486
841.701	24391
841.838	24441
841.975	24388
842.112	24448
842.249	24361
842.385	24338
842.522	24448
842.659	24357
842.796	24327
842.933	24209
843.069	24087
843.206	24076
843.343	24167
843.479	24232
843.616	24186
843.752	23958
843.889	24102
844.025	24182
844.162	23946
844.298	24087
844.435	24049
844.571	23939
844.708	24060
844.844	24209
844.98	24144
845.117	24076
845.253	23916
845.389	23866
845.525	23893
845.661	23878
845.798	23775
845.934	23779
846.07	23726
846.206	23741
846.342	23916
846.478	23634
846.614	23478
846.75	23524
846.886	23455
847.022	23543
847.158	23501
847.294	23467
847.429	23455
847.565	23379
847.701	23760
847.837	23246
847.972	23132
848.108	23299
848.244	23250
848.379	23155
848.515	22877
848.65	22881
848.786	23014
848.921	23037
849.057	23124
849.192	23140
849.328	23250
849.463	23041
849.598	22965
849.734	22942
849.869	22854
850.004	22946
850.14	22812
850.275	22869
850.41	22691
850.545	22729
850.68	22584
850.815	22839
850.95	22755
851.085	23018
851.22	23014
851.355	22850
851.49	22713
851.625	22744
851.76	22778
851.895	22694
852.03	22675
852.165	22778
852.299	22866
852.434	22911
852.569	22831
852.703	22828
852.838	22805
852.973	22965
853.107	22885
853.242	22748
853.376	22592
853.511	22580
853.645	22500
853.78	22687
853.914	22668
854.048	22546
854.183	22504
854.317	22672
854.451	22805
854.585	22531
854.72	22603
854.854	22839
854.988	22577
855.122	22653
855.256	22607
855.39	22504
855.524	22637
855.658	22615
855.792	22733
855.926	22694
856.06	22672
856.194	22679
856.327	22615
856.461	22569
856.595	22599
856.729	22630
856.862	22706
856.996	22664
857.13	22835
857.263	22706
857.397	22637
857.53	22664
857.664	22660
857.797	22637
857.931	22702
858.064	22698
858.197	22603
858.331	22637
858.464	22641
858.597	22538
858.731	22592
858.864	22557
858.997	22478
859.13	22641
859.263	22527
859.396	22763
859.529	22542
859.662	22687
859.795	22557
859.928	22653
860.061	22752
860.194	22778
860.327	22733
860.46	22626
860.592	22694
860.725	22881
860.858	22793
860.99	22752
861.123	22531
861.256	22672
861.388	22622
861.521	23433
861.653	22531
861.786	22363
861.918	22508
862.05	22432
862.183	22417
862.315	22516
862.447	22668
862.58	22478
862.712	22379
862.844	22371
862.976	22485
863.108	22333
863.24	22782
863.372	22242
863.504	22432
863.636	22280
863.768	22386
863.9	22413
864.032	22314
864.164	22162
864.296	22360
864.428	22459
864.559	22386
864.691	22447
864.823	22226
864.954	22352
865.086	22188
865.217	22265
865.349	22150
865.48	22192
865.612	22238
865.743	22314
865.875	22177
866.006	22158
866.137	22192
866.269	22207
866.4	22105
866.531	22177
866.662	22055
866.793	22051
866.924	22143
867.055	22223
867.186	22169
867.317	22067
867.448	21972
867.579	22055
867.71	22048
867.841	22036
867.972	22147
868.103	22196
868.233	22158
868.364	22105
868.495	22276
868.625	22348
868.756	22451
868.886	22356
869.017	22310
869.147	22497
869.278	22409
869.408	22360
869.539	22409
869.669	22344
869.799	22577
869.929	22500
870.06	22493
870.19	22683
870.32	22706
870.45	22702
870.58	22748
870.71	22938
870.84	22812
870.97	22702
871.1	22866
871.23	23067
871.36	23064
871.489	22816
871.619	22881
871.749	22949
871.879	23006
872.008	23052
872.138	22869
872.267	22999
872.397	22938
872.526	22812
872.656	22805
872.785	22778
872.915	23056
873.044	23124
873.173	22991
873.303	23071
873.432	23086
873.561	23090
873.69	23128
873.819	22980
873.948	23018
874.077	22957
874.206	23018
874.335	22934
874.464	23162
874.593	23204
874.722	23159
874.851	23242
874.979	23162
875.108	23223
875.237	23014
875.365	23113
875.494	23121
875.623	23337
875.751	23151
875.88	23322
876.008	23383
876.136	23383
876.265	23490
876.393	23649
876.521	23661
876.65	23672
876.778	23646
876.906	23600
877.034	23589
877.162	23592
877.29	23391
877.418	23634
877.546	23634
877.674	23649
877.802	23493
877.93	23528
878.058	23512
878.185	23425
878.313	23512
878.441	23524
878.568	23433
878.696	23551
878.824	23490
878.951	23573
879.079	23684
879.206	23813
879.333	23718
879.461	23516
879.588	23809
879.715	23501
879.842	23882
879.97	23649
880.097	23356
880.224	23372
880.351	23326
880.478	23345
880.605	23349
880.732	23383
880.859	23638
880.986	23296
881.112	23364
881.239	23288
881.366	23140
881.493	22965
881.619	22976
881.746	22923
881.872	22984
881.999	22927
882.125	22919
882.252	22881
882.378	22847
882.505	23098
882.631	22858
882.757	22630
882.883	22774
883.01	22565
883.136	22546
883.262	22500
883.388	22489
883.514	22653
883.64	22713
883.766	22405
883.892	22424
884.018	22447
884.143	22588
884.269	22500
884.395	22261
884.52	22188
884.646	22242
884.772	22131
884.897	22128
885.023	22185
885.148	22280
885.274	22382
885.399	22257
885.524	22207
885.65	22154
885.775	22306
885.9	22177
886.025	22226
886.15	22329
886.275	22200
886.4	22150
886.525	22200
886.65	22101
886.775	22177
886.9	22215
887.025	22360
887.149	22253
887.274	22090
887.399	21934
887.523	21991
887.648	21892
887.773	21884
887.897	22120
888.021	21869
888.146	21869
888.27	22029
888.395	21964
888.519	22021
888.643	21998
888.767	21953
888.891	21934
889.015	21720
889.139	21838
889.263	21671
889.387	21903
889.511	21956
889.635	21899
889.759	21614
889.883	21778
890.006	21728
890.13	21793
890.254	21762
890.377	21797
890.501	21545
890.624	21389
890.748	21549
890.871	21279
890.995	21416
891.118	21245
891.241	21192
891.364	21313
891.488	21412
891.611	21340
891.734	21412
891.857	21450
891.98	21218
892.103	21294
892.226	21218
892.349	21355
892.471	21138
892.594	21157
892.717	21211
892.839	21264
892.962	21192
893.085	21131
893.207	21039
893.33	21001
893.452	21157
893.575	21127
893.697	21173
893.819	21310
893.941	21386
894.064	21447
894.186	21207
894.308	21131
894.43	21279
894.552	21348
894.674	21268
894.796	21104
894.918	21096
895.04	21055
895.161	21329
895.283	21256
895.405	21176
895.526	21142
895.648	21184
895.769	21116
895.891	21173
896.012	21310
896.134	21184
896.255	21081
896.376	21131
896.498	21207
896.619	21211
896.74	21138
896.861	21226
896.982	21553
897.103	21694
897.224	21454
897.345	21348
897.466	21222
897.587	21405
897.708	21500
897.828	21382
897.949	21401
898.07	21264
898.19	21298
898.311	21469
898.431	21302
898.552	21428
898.672	21367
898.792	21378
898.913	21313
899.033	21264
899.153	21169
899.273	21020
899.393	21127
899.513	21218
899.633	21173
899.753	21131
899.873	21047
899.993	21127
900.113	20979
900.232	21062
900.352	20929
900.472	20914
900.591	20838
900.711	20963
900.83	20815
900.95	20948
901.069	20918
901.189	20655
901.308	20609
901.427	20457
901.546	20415
901.665	20480
901.784	20461
901.904	20214
902.023	20282
902.141	20062
902.26	19932
902.379	20084
902.498	19986
902.617	19913
902.735	19940
902.854	19814
902.973	19936
903.091	19567
903.21	19537
903.328	19677
903.446	19381
903.565	19400
903.683	19445
903.801	19190
903.919	19403
904.038	19293
904.156	19122
904.274	19221
904.392	19175
904.51	19110
904.627	19110
904.745	19164
904.863	19202
904.981	18909
905.098	18779
905.216	18757
905.334	18909
905.451	18810
905.569	18764
905.686	18886
905.803	18939
905.921	18513
906.038	18642
906.155	18703
906.272	18650
906.389	18509
906.506	18414
906.623	18353
906.74	18429
906.857	18296
906.974	18311
907.091	18357
907.208	18452
907.324	18319
907.441	18201
907.557	17973
907.674	18049
907.79	17999
907.907	17939
908.023	18015
908.139	18129
908.256	17992
908.372	17950
908.488	17893
908.604	17863
908.72	17798
908.836	17771
908.952	17794
909.068	17824
909.184	17904
909.3	17748
909.415	17828
909.531	17756
909.647	17512
909.762	17592
909.878	17444
909.993	17471
910.108	17482
910.224	17490
910.339	17463
910.454	17353
910.57	17292
910.685	17273
910.8	17543
910.915	17467
911.03	17212
911.145	17086
911.259	17010
911.374	17067
911.489	16908
911.604	16908
911.718	16824
911.833	16782
911.947	16603
912.062	16713
912.176	16839
912.291	16797
912.405	16797
912.519	16991
912.633	17056
912.748	16831
912.862	16675
912.976	16668
913.09	16390
913.204	16546
913.318	16561
913.431	16736
913.545	16687
913.659	16660
913.772	16527
913.886	16284
914	16363
914.113	16481
914.226	16550
914.34	16497
914.453	16196
914.566	16356
914.68	16299
914.793	16204
914.906	16017
915.019	15998
915.132	15880
915.245	16051
915.358	15953
915.47	16017
915.583	15907
915.696	16059
915.809	16002
915.921	16090
916.034	15728
916.146	15774
916.259	15850
916.371	15937
916.483	15816
916.595	15774
916.708	15728
916.82	15789
916.932	15717
917.044	15766
917.156	15686
917.268	15538
917.38	15568
917.491	15644
917.603	15523
917.715	15618
917.826	15595
917.938	15397
918.049	15496
918.161	15534
918.272	15686
918.384	15690
918.495	15439
918.606	15397
918.717	15329
918.828	15241
918.939	15351
919.05	15249
919.161	15367
919.272	15233
919.383	15062
919.494	15291
919.604	15526
919.715	15370
919.826	15161
919.936	15279
920.047	15454
920.157	15218
920.267	15450
920.378	15252
920.488	15123
920.598	15412
920.708	15485
920.818	15424
920.928	15382
921.038	15511
921.148	15488
921.258	15161
921.368	15138
921.477	14925
921.587	15047
921.697	14834
921.806	15020
921.916	14792
922.025	14689
922.134	14530
922.244	14610
922.353	14575
922.462	14476
922.571	14339
922.68	14309
922.789	14259
922.898	14305
923.007	14195
923.116	14259
923.224	14191
923.333	14199
923.442	14115
923.55	14043
923.659	14081
923.767	14100
923.876	14001
923.984	14107
924.092	13906
924.201	13940
924.309	13959
924.417	14069
924.525	13879
924.633	13917
924.741	14804
924.849	13651
924.956	13791
925.064	13662
925.172	13567
925.279	13525
925.387	13643
925.494	13590
925.602	13685
925.709	13719
925.816	13514
925.924	13548
926.031	13700
926.138	13613
926.245	13548
926.352	13457
926.459	13518
926.566	13636
926.673	13464
926.779	13335
926.886	13426
926.993	13187
927.099	13232
927.206	13129
927.312	13133
927.419	13129
927.525	13103
927.631	13149
927.737	13091
927.843	12996
927.95	12871
928.056	13008
928.162	12894
928.267	13050
928.373	13575
928.479	12993
928.585	12798
928.69	12928
928.796	12901
928.901	12890
929.007	12707
929.112	12844
929.218	12798
929.323	12734
929.428	12669
929.533	12779
929.638	12566
929.743	12688
929.848	12730
929.953	12616
930.058	12589
930.163	12289
930.267	12372
930.372	12471
930.477	12346
930.581	12551
930.685	12407
930.79	12216
930.894	12296
930.998	12121
931.103	12376
931.207	11969
931.311	11870
931.415	11840
931.519	11589
931.623	11558
