Data from test_V78500241_3097.txt Node
Date: Fri Mar 25 16:03:15 CST 2022
User: usil
Spectrometer: V785-0024
Trigger mode: 0
Integration Time (sec): 4.000000E-1
Scans to average: 1
Nonlinearity correction enabled: false
Boxcar width: 0
Storing dark spectrum: false
XAxis mode: Wavelengths
Number of Pixels in Spectrum: 1024
>>>>>Begin Spectral Data<<<<<
801.071	28538
801.214	28584
801.356	28265
801.499	28230
801.641	28032
801.783	28139
801.926	28177
802.068	28013
802.211	28116
802.353	28048
802.496	27960
802.638	27785
802.78	27766
802.923	27728
803.065	27709
803.208	27724
803.35	27873
803.492	27968
803.635	28017
803.777	28021
803.919	28090
804.061	28284
804.204	27994
804.346	28029
804.488	27945
804.63	28093
804.773	28013
804.915	28280
805.057	28261
805.199	28013
805.341	28177
805.483	28188
805.626	28230
805.768	27960
805.91	28078
806.052	28234
806.194	28131
806.336	28291
806.478	28109
806.62	28040
806.762	28291
806.904	28474
807.046	28691
807.188	28729
807.33	28645
807.472	28626
807.614	28573
807.756	28580
807.898	28573
808.04	28474
808.182	28401
808.324	28470
808.465	28504
808.607	28771
808.749	28930
808.891	28904
809.033	28942
809.174	28942
809.316	28858
809.458	28797
809.6	28885
809.741	28995
809.883	28881
810.025	29155
810.166	29254
810.308	29197
810.45	29102
810.591	29037
810.733	28957
810.875	28858
811.016	28904
811.158	28755
811.299	29060
811.441	29064
811.582	28976
811.724	28774
811.865	28915
812.007	28820
812.148	28786
812.29	28976
812.431	29075
812.573	29212
812.714	29349
812.855	29379
812.997	29421
813.138	29535
813.279	29524
813.421	29402
813.562	29360
813.703	29341
813.845	29136
813.986	28854
814.127	28500
814.268	28637
814.41	28535
814.551	28542
814.692	28691
814.833	28531
814.974	28588
815.115	28698
815.256	28462
815.397	28360
815.539	28287
815.68	28379
815.821	28375
815.962	28306
816.103	28356
816.244	28185
816.385	28211
816.526	28265
816.666	28166
816.807	27857
816.948	27994
817.089	28002
817.23	27846
817.371	27850
817.512	27949
817.653	27850
817.793	27953
817.934	27812
818.075	27808
818.216	28013
818.356	27880
818.497	27728
818.638	27557
818.778	27717
818.919	27595
819.06	27717
819.2	27846
819.341	27949
819.481	27819
819.622	28166
819.762	28303
819.903	28158
820.043	28074
820.184	27949
820.324	27994
820.465	28078
820.605	28135
820.746	28010
820.886	27918
821.026	28021
821.167	27911
821.307	27979
821.447	27899
821.588	27732
821.728	27709
821.868	27504
822.008	27211
822.149	27359
822.289	27439
822.429	27089
822.569	27077
822.709	27184
822.849	26963
822.99	26929
823.13	26838
823.27	26933
823.41	26689
823.55	26587
823.69	26743
823.83	26731
823.97	26674
824.11	26465
824.25	26389
824.389	26549
824.529	26686
824.669	26442
824.809	26708
824.949	26613
825.089	26659
825.228	26560
825.368	26313
825.508	26476
825.648	26431
825.787	26305
825.927	26530
826.067	26351
826.206	26450
826.346	26503
826.485	26533
826.625	26385
826.765	26453
826.904	26431
827.044	26012
827.183	26191
827.323	26138
827.462	26149
827.601	26168
827.741	26096
827.88	26168
828.02	26005
828.159	26252
828.298	26130
828.437	26168
828.577	26100
828.716	26119
828.855	26058
828.994	25807
829.134	25860
829.273	25791
829.412	25651
829.551	25788
829.69	25811
829.829	25849
829.968	25993
830.107	25906
830.246	25875
830.385	25731
830.524	25613
830.663	25620
830.802	25495
830.941	25483
831.08	25327
831.219	25605
831.357	25472
831.496	25609
831.635	25316
831.774	25225
831.913	25350
832.051	25259
832.19	25148
832.329	25270
832.467	25069
832.606	25050
832.744	25088
832.883	25137
833.022	25019
833.16	24958
833.299	25213
833.437	25141
833.576	25076
833.714	25133
833.852	25114
833.991	25206
834.129	25266
834.267	25232
834.406	25152
834.544	25320
834.682	25289
834.821	25187
834.959	25255
835.097	25110
835.235	25221
835.373	25053
835.511	25015
835.65	25050
835.788	25053
835.926	24878
836.064	24821
836.202	24852
836.34	25053
836.478	24996
836.615	24947
836.753	24802
836.891	25099
837.029	24992
837.167	24928
837.305	24787
837.443	24897
837.58	24772
837.718	24863
837.856	24920
837.993	24734
838.131	24719
838.269	24779
838.406	24738
838.544	24692
838.681	24399
838.819	24525
838.956	24285
839.094	24163
839.231	24197
839.369	24494
839.506	24616
839.643	24513
839.781	24273
839.918	24258
840.055	24224
840.193	24106
840.33	24178
840.467	24224
840.604	24258
840.742	24528
840.879	24076
841.016	24034
841.153	23999
841.29	24220
841.427	24079
841.564	24311
841.701	24072
841.838	24106
841.975	24022
842.112	24087
842.249	23973
842.385	23927
842.522	24228
842.659	23996
842.796	24060
842.933	23935
843.069	23920
843.206	23760
843.343	23973
843.479	23958
843.616	23828
843.752	23741
843.889	23779
844.025	23878
844.162	23805
844.298	23851
844.435	23668
844.571	23657
844.708	23668
844.844	23874
844.98	23771
845.117	23916
845.253	23653
845.389	23524
845.525	23642
845.661	23520
845.798	23551
845.934	23551
846.07	23421
846.206	23326
846.342	23573
846.478	23372
846.614	23204
846.75	23117
846.886	23216
847.022	23284
847.158	23200
847.294	23181
847.429	23166
847.565	23178
847.701	23364
847.837	22919
847.972	22793
848.108	22984
848.244	23010
848.379	22854
848.515	22771
848.65	22645
848.786	22752
848.921	22748
849.057	22885
849.192	22839
849.328	22816
849.463	22660
849.598	22725
849.734	22584
849.869	22504
850.004	22531
850.14	22512
850.275	22542
850.41	22398
850.545	22519
850.68	22523
850.815	22569
850.95	22580
851.085	22660
851.22	22641
851.355	22447
851.49	22500
851.625	22573
851.76	22371
851.895	22561
852.03	22462
852.165	22443
852.299	22535
852.434	22637
852.569	22584
852.703	22447
852.838	22554
852.973	22691
853.107	22664
853.242	22405
853.376	22405
853.511	22181
853.645	22181
853.78	22512
853.914	22417
854.048	22242
854.183	22356
854.317	22432
854.451	22462
854.585	22325
854.72	22348
854.854	22451
854.988	22154
855.122	22398
855.256	22188
855.39	22421
855.524	22485
855.658	22462
855.792	22238
855.926	22333
856.06	22375
856.194	22409
856.327	22352
856.461	22226
856.595	22253
856.729	22276
856.862	22341
856.996	22344
857.13	22402
857.263	22390
857.397	22390
857.53	22265
857.664	22421
857.797	22428
857.931	22466
858.064	22436
858.197	22409
858.331	22268
858.464	22185
858.597	22207
858.731	22417
858.864	22272
858.997	22322
859.13	22367
859.263	22226
859.396	22413
859.529	22287
859.662	22299
859.795	22287
859.928	22341
860.061	22451
860.194	22443
860.327	22360
860.46	22462
860.592	22497
860.725	22436
860.858	22451
860.99	22242
861.123	22166
861.256	22242
861.388	22314
861.521	22953
861.653	22329
861.786	22116
861.918	22124
862.05	22242
862.183	22398
862.315	22265
862.447	22310
862.58	22265
862.712	22051
862.844	21945
862.976	22116
863.108	22131
863.24	22451
863.372	21915
863.504	22055
863.636	21998
863.768	22162
863.9	22059
864.032	21991
864.164	21994
864.296	22032
864.428	22169
864.559	22086
864.691	22211
864.823	21937
864.954	22124
865.086	22090
865.217	21823
865.349	21873
865.48	21945
865.612	21793
865.743	21983
865.875	21922
866.006	21869
866.137	22036
866.269	21922
866.4	21953
866.531	21854
866.662	21876
866.793	21876
866.924	21884
867.055	21778
867.186	21846
867.317	21873
867.448	21762
867.579	21762
867.71	21751
867.841	21759
867.972	21835
868.103	21743
868.233	21835
868.364	21918
868.495	22017
868.625	22021
868.756	22287
868.886	21991
869.017	22021
869.147	22204
869.278	22207
869.408	22135
869.539	22116
869.669	22139
869.799	22150
869.929	22143
870.06	22124
870.19	22379
870.32	22421
870.45	22436
870.58	22485
870.71	22660
870.84	22573
870.97	22523
871.1	22565
871.23	22748
871.36	22702
871.489	22588
871.619	22664
871.749	22793
871.879	22725
872.008	22729
872.138	22721
872.267	22622
872.397	22634
872.526	22664
872.656	22538
872.785	22519
872.915	22664
873.044	22786
873.173	22694
873.303	22771
873.432	22778
873.561	22729
873.69	22778
873.819	22736
873.948	22915
874.077	22634
874.206	22698
874.335	22725
874.464	22824
874.593	22854
874.722	22908
874.851	22957
874.979	22904
875.108	22869
875.237	22908
875.365	22797
875.494	22889
875.623	23022
875.751	22957
875.88	22972
876.008	23079
876.136	23083
876.265	23261
876.393	23395
876.521	23360
876.65	23433
876.778	23341
876.906	23322
877.034	23368
877.162	23292
877.29	23265
877.418	23315
877.546	23235
877.674	23398
877.802	23337
877.93	23326
878.058	23254
878.185	23060
878.313	23140
878.441	23250
878.568	23136
878.696	23265
878.824	23151
878.951	23391
879.079	23486
879.206	23558
879.333	23501
879.461	23288
879.588	23334
879.715	23330
879.842	23570
879.97	23277
880.097	23159
880.224	23056
880.351	23121
880.478	23193
880.605	22938
880.732	23083
880.859	23360
880.986	23174
881.112	23041
881.239	22953
881.366	22805
881.493	22759
881.619	22557
881.746	22626
881.872	22774
881.999	22679
882.125	22634
882.252	22660
882.378	22584
882.505	22729
882.631	22462
882.757	22440
882.883	22352
883.01	22443
883.136	22215
883.262	22234
883.388	22101
883.514	22325
883.64	22257
883.766	22276
883.892	22226
884.018	22086
884.143	22337
884.269	22265
884.395	22029
884.52	22006
884.646	21979
884.772	21846
884.897	21964
885.023	21979
885.148	22070
885.274	22109
885.399	22063
885.524	22029
885.65	22090
885.775	22128
885.9	21918
886.025	22135
886.15	22070
886.275	22036
886.4	21781
886.525	22002
886.65	21781
886.775	21827
886.9	22021
887.025	22128
887.149	21975
887.274	21671
887.399	21789
887.523	21789
887.648	21648
887.773	21595
887.897	21808
888.021	21686
888.146	21591
888.27	21762
888.395	21819
888.519	21698
888.643	21724
888.767	21720
888.891	21663
889.015	21606
889.139	21523
889.263	21450
889.387	21709
889.511	21724
889.635	21671
889.759	21542
889.883	21492
890.006	21530
890.13	21618
890.254	21485
890.377	21420
890.501	21268
890.624	21233
890.748	21336
890.871	21142
890.995	21100
891.118	21043
891.241	21131
891.364	21093
891.488	21112
891.611	21127
891.734	20948
891.857	21074
891.98	21108
892.103	21104
892.226	21055
892.349	21036
892.471	20830
892.594	21020
892.717	20918
892.839	20956
892.962	21032
893.085	20971
893.207	20982
893.33	20864
893.452	20792
893.575	20937
893.697	20979
893.819	21119
893.941	21157
894.064	21108
894.186	20914
894.308	20929
894.43	21066
894.552	21211
894.674	21017
894.796	20765
894.918	20918
895.04	20944
895.161	20979
895.283	20956
895.405	20906
895.526	21009
895.648	20842
895.769	20918
895.891	20979
896.012	21039
896.134	21020
896.255	20921
896.376	20864
896.498	20963
896.619	20918
896.74	20975
896.861	20880
896.982	21226
897.103	21450
897.224	21055
897.345	21036
897.466	21051
897.587	21218
897.708	21241
897.828	21272
897.949	21096
898.07	20960
898.19	21142
898.311	21161
898.431	21173
898.552	21074
898.672	21211
898.792	21199
898.913	21131
899.033	20956
899.153	20929
899.273	20800
899.393	20838
899.513	20948
899.633	20857
899.753	20845
899.873	20815
899.993	20769
900.113	20800
900.232	20899
900.352	20758
900.472	20689
900.591	20724
900.711	20636
900.83	20556
900.95	20758
901.069	20735
901.189	20545
901.308	20240
901.427	20180
901.546	20153
901.665	20218
901.784	20244
901.904	20119
902.023	19898
902.141	19791
902.26	19742
902.379	19814
902.498	19772
902.617	19731
902.735	19696
902.854	19727
902.973	19655
903.091	19358
903.21	19312
903.328	19411
903.446	19331
903.565	19202
903.683	19164
903.801	19114
903.919	19107
904.038	19091
904.156	19031
904.274	18966
904.392	18970
904.51	18897
904.627	19019
904.745	18901
904.863	18947
904.981	18745
905.098	18570
905.216	18616
905.334	18642
905.451	18601
905.569	18578
905.686	18646
905.803	18509
905.921	18464
906.038	18574
906.155	18509
906.272	18323
906.389	18365
906.506	18117
906.623	18125
906.74	18117
906.857	18049
906.974	18007
907.091	18087
907.208	18235
907.324	18098
907.441	18011
907.557	17973
907.674	17874
907.79	17821
907.907	17805
908.023	17863
908.139	17783
908.256	17767
908.372	17714
908.488	17752
908.604	17585
908.72	17455
908.836	17623
908.952	17433
909.068	17566
909.184	17577
909.3	17585
909.415	17570
909.531	17581
909.647	17242
909.762	17242
909.878	17349
909.993	17216
910.108	17315
910.224	17174
910.339	17242
910.454	17025
910.57	17102
910.685	16995
910.8	17288
910.915	17235
911.03	17056
911.145	16850
911.259	16908
911.374	16801
911.489	16675
911.604	16713
911.718	16554
911.833	16622
911.947	16440
912.062	16417
912.176	16588
912.291	16599
912.405	16622
912.519	16679
912.633	16733
912.748	16641
912.862	16538
912.976	16470
913.09	16249
913.204	16394
913.318	16379
913.431	16470
913.545	16455
913.659	16493
913.772	16367
913.886	16211
914	16147
914.113	16253
914.226	16348
914.34	16211
914.453	16071
914.566	16188
914.68	16124
914.793	16086
914.906	15937
915.019	15751
915.132	15755
915.245	15667
915.358	15804
915.47	15732
915.583	15800
915.696	15846
915.809	15949
915.921	15793
916.034	15671
916.146	15671
916.259	15656
916.371	15724
916.483	15667
916.595	15568
916.708	15530
916.82	15633
916.932	15530
917.044	15542
917.156	15530
917.268	15313
917.38	15405
917.491	15363
917.603	15504
917.715	15492
917.826	15439
917.938	15237
918.049	15188
918.161	15317
918.272	15408
918.384	15405
918.495	15332
918.606	15093
918.717	15089
918.828	15180
918.939	15127
919.05	15039
919.161	15131
919.272	14887
919.383	15024
919.494	15138
919.604	15279
919.715	15157
919.826	15036
919.936	15093
920.047	15165
920.157	15188
920.267	15241
920.378	15058
920.488	15017
920.598	15218
920.708	15332
920.818	15214
920.928	15138
921.038	15348
921.148	15241
921.258	15062
921.368	14963
921.477	14857
921.587	14796
921.697	14678
921.806	14743
921.916	14651
922.025	14446
922.134	14511
922.244	14442
922.353	14461
922.462	14301
922.571	14286
922.68	14214
922.789	14119
922.898	14161
923.007	14065
923.116	14206
923.224	14077
923.333	14050
923.442	13944
923.55	13906
923.659	13947
923.767	13932
923.876	13845
923.984	13940
924.092	13795
924.201	13932
924.309	13818
924.417	13925
924.525	13719
924.633	13757
924.741	14533
924.849	13556
924.956	13624
925.064	13590
925.172	13495
925.279	13487
925.387	13419
925.494	13457
925.602	13510
925.709	13510
925.816	13388
925.924	13430
926.031	13506
926.138	13362
926.245	13384
926.352	13339
926.459	13445
926.566	13464
926.673	13324
926.779	13240
926.886	13194
926.993	13042
927.099	13053
927.206	13031
927.312	12981
927.419	13061
927.525	12947
927.631	13023
927.737	12760
927.843	12924
927.95	12654
928.056	12821
928.162	12821
928.267	12837
928.373	13480
928.479	12913
928.585	12654
928.69	12749
928.796	12829
928.901	12692
929.007	12528
929.112	12711
929.218	12582
929.323	12547
929.428	12506
929.533	12681
929.638	12471
929.743	12460
929.848	12547
929.953	12464
930.058	12437
930.163	12296
930.267	12330
930.372	12357
930.477	12155
930.581	12365
930.685	12281
930.79	12049
930.894	12163
930.998	12049
931.103	12133
931.207	11828
931.311	11798
931.415	11665
931.519	11478
931.623	11524
