Data from test_V78500241_1486.txt Node
Date: Fri Mar 25 15:52:05 CST 2022
User: usil
Spectrometer: V785-0024
Trigger mode: 0
Integration Time (sec): 4.000000E-1
Scans to average: 1
Nonlinearity correction enabled: false
Boxcar width: 0
Storing dark spectrum: false
XAxis mode: Wavelengths
Number of Pixels in Spectrum: 1024
>>>>>Begin Spectral Data<<<<<
801.071	28097
801.214	27876
801.356	27572
801.499	27564
801.641	27523
801.783	27526
801.926	27542
802.068	27469
802.211	27378
802.353	27401
802.496	27195
802.638	27058
802.78	27093
802.923	27024
803.065	26990
803.208	27112
803.35	27127
803.492	27207
803.635	27249
803.777	27237
803.919	27370
804.061	27713
804.204	27473
804.346	27294
804.488	27180
804.63	27378
804.773	27306
804.915	27405
805.057	27332
805.199	27329
805.341	27321
805.483	27481
805.626	27473
805.768	27386
805.91	27496
806.052	27553
806.194	27351
806.336	27622
806.478	27564
806.62	27447
806.762	27583
806.904	27656
807.046	28017
807.188	27880
807.33	27838
807.472	27960
807.614	27949
807.756	27892
807.898	27789
808.04	27652
808.182	27660
808.324	27816
808.465	27755
808.607	27964
808.749	28109
808.891	28177
809.033	28207
809.174	28188
809.316	28147
809.458	27991
809.6	28154
809.741	28154
809.883	28200
810.025	28379
810.166	28390
810.308	28310
810.45	28333
810.591	28325
810.733	28131
810.875	28109
811.016	28063
811.158	28040
811.299	28128
811.441	28356
811.582	28295
811.724	27972
811.865	28036
812.007	28097
812.148	28090
812.29	28074
812.431	28344
812.573	28451
812.714	28455
812.855	28569
812.997	28710
813.138	28862
813.279	28744
813.421	28508
813.562	28557
813.703	28485
813.845	28329
813.986	27914
814.127	27831
814.268	27831
814.41	27785
814.551	27762
814.692	27865
814.833	27720
814.974	27759
815.115	27705
815.256	27770
815.397	27728
815.539	27705
815.68	27568
815.821	27511
815.962	27542
816.103	27686
816.244	27454
816.385	27245
816.526	27431
816.666	27192
816.807	27188
816.948	27066
817.089	27165
817.23	27093
817.371	27211
817.512	27009
817.653	27058
817.793	27028
817.934	27036
818.075	26986
818.216	27089
818.356	27176
818.497	26944
818.638	26811
818.778	26994
818.919	26838
819.06	26975
819.2	27009
819.341	26975
819.481	27116
819.622	27420
819.762	27416
819.903	27355
820.043	27264
820.184	27222
820.324	27055
820.465	27283
820.605	27184
820.746	27127
820.886	27146
821.026	27157
821.167	27096
821.307	27123
821.447	27123
821.588	26899
821.728	26823
821.868	26659
822.008	26609
822.149	26488
822.289	26488
822.429	26263
822.569	26202
822.709	26233
822.849	25963
822.99	25997
823.13	26069
823.27	25959
823.41	25951
823.55	25772
823.69	25997
823.83	25814
823.97	25784
824.11	25704
824.25	25483
824.389	25753
824.529	25696
824.669	25719
824.809	25795
824.949	25860
825.089	25822
825.228	25795
825.368	25571
825.508	25559
825.648	25582
825.787	25613
825.927	25662
826.067	25563
826.206	25601
826.346	25594
826.485	25704
826.625	25677
826.765	25567
826.904	25628
827.044	25350
827.183	25293
827.323	25282
827.462	25354
827.601	25384
827.741	25266
827.88	25396
828.02	25384
828.159	25285
828.298	25320
828.437	25247
828.577	25278
828.716	25320
828.855	25183
828.994	25000
829.134	25137
829.273	25114
829.412	24859
829.551	24981
829.69	25034
829.829	24856
829.968	25046
830.107	25084
830.246	24939
830.385	24886
830.524	24734
830.663	24882
830.802	24650
830.941	24536
831.08	24475
831.219	24593
831.357	24589
831.496	24764
831.635	24582
831.774	24498
831.913	24555
832.051	24384
832.19	24327
832.329	24380
832.467	24334
832.606	24304
832.744	24194
832.883	24380
833.022	24270
833.16	24330
833.299	24323
833.437	24315
833.576	24426
833.714	24380
833.852	24369
833.991	24369
834.129	24296
834.267	24292
834.406	24281
834.544	24369
834.682	24304
834.821	24270
834.959	24467
835.097	24266
835.235	24296
835.373	24315
835.511	24243
835.65	24026
835.788	24327
835.926	23992
836.064	23851
836.202	24007
836.34	24190
836.478	24197
836.615	24083
836.753	24049
836.891	24197
837.029	24205
837.167	24129
837.305	24072
837.443	23920
837.58	23954
837.718	23980
837.856	23999
837.993	23908
838.131	23999
838.269	23824
838.406	23866
838.544	23882
838.681	23684
838.819	23661
838.956	23414
839.094	23368
839.231	23402
839.369	23646
839.506	23927
839.643	23668
839.781	23486
839.918	23345
840.055	23497
840.193	23410
840.33	23429
840.467	23395
840.604	23524
840.742	23676
840.879	23273
841.016	23360
841.153	23231
841.29	23421
841.427	23493
841.564	23493
841.701	23349
841.838	23444
841.975	23284
842.112	23235
842.249	23128
842.385	23109
842.522	23273
842.659	23185
842.796	23181
842.933	23208
843.069	23037
843.206	23048
843.343	23220
843.479	23204
843.616	23079
843.752	22946
843.889	22957
844.025	22991
844.162	23071
844.298	23037
844.435	22942
844.571	22850
844.708	22965
844.844	23071
844.98	23014
845.117	23037
845.253	22797
845.389	22755
845.525	22824
845.661	22824
845.798	22607
845.934	22759
846.07	22577
846.206	22664
846.342	22698
846.478	22626
846.614	22329
846.75	22451
846.886	22299
847.022	22379
847.158	22363
847.294	22436
847.429	22527
847.565	22386
847.701	22691
847.837	22147
847.972	22032
848.108	22188
848.244	22101
848.379	22097
848.515	21964
848.65	22086
848.786	21888
848.921	22135
849.057	22017
849.192	22086
849.328	22067
849.463	21945
849.598	21960
849.734	21823
849.869	21831
850.004	21770
850.14	21690
850.275	21709
850.41	21553
850.545	21625
850.68	21671
850.815	21766
850.95	21789
851.085	21994
851.22	21774
851.355	21747
851.49	21736
851.625	21724
851.76	21709
851.895	21629
852.03	21599
852.165	21797
852.299	21774
852.434	21728
852.569	21785
852.703	21823
852.838	21846
852.973	21941
853.107	21857
853.242	21774
853.376	21599
853.511	21408
853.645	21405
853.78	21648
853.914	21576
854.048	21458
854.183	21561
854.317	21679
854.451	21633
854.585	21507
854.72	21504
854.854	21667
854.988	21488
855.122	21504
855.256	21435
855.39	21466
855.524	21656
855.658	21625
855.792	21420
855.926	21485
856.06	21610
856.194	21545
856.327	21564
856.461	21557
856.595	21519
856.729	21568
856.862	21652
856.996	21701
857.13	21720
857.263	21747
857.397	21641
857.53	21606
857.664	21534
857.797	21530
857.931	21717
858.064	21504
858.197	21732
858.331	21538
858.464	21526
858.597	21405
858.731	21523
858.864	21523
858.997	21599
859.13	21526
859.263	21599
859.396	21652
859.529	21576
859.662	21393
859.795	21622
859.928	21447
860.061	21797
860.194	21682
860.327	21568
860.46	21523
860.592	21671
860.725	21781
860.858	21679
860.99	21443
861.123	21481
861.256	21519
861.388	21713
861.521	22162
861.653	21424
861.786	21302
861.918	21420
862.05	21496
862.183	21488
862.315	21450
862.447	21583
862.58	21428
862.712	21332
862.844	21230
862.976	21222
863.108	21268
863.24	21842
863.372	21142
863.504	21287
863.636	21344
863.768	21348
863.9	21203
864.032	21138
864.164	21287
864.296	21260
864.428	21466
864.559	21313
864.691	21378
864.823	21195
864.954	21233
865.086	21264
865.217	21089
865.349	21085
865.48	21199
865.612	21077
865.743	21226
865.875	21173
866.006	21116
866.137	21020
866.269	21070
866.4	21116
866.531	21116
866.662	21100
866.793	21123
866.924	21074
867.055	21135
867.186	21112
867.317	21024
867.448	21051
867.579	21036
867.71	21009
867.841	21062
867.972	21112
868.103	21005
868.233	20986
868.364	21085
868.495	21142
868.625	21344
868.756	21485
868.886	21249
869.017	21363
869.147	21477
869.278	21393
869.408	21329
869.539	21367
869.669	21420
869.799	21443
869.929	21439
870.06	21401
870.19	21542
870.32	21599
870.45	21800
870.58	21675
870.71	21717
870.84	21831
870.97	21701
871.1	21759
871.23	21873
871.36	21838
871.489	21873
871.619	21751
871.749	21789
871.879	22017
872.008	22074
872.138	21979
872.267	21915
872.397	21789
872.526	21736
872.656	21861
872.785	21755
872.915	21926
873.044	22006
873.173	22048
873.303	21949
873.432	22040
873.561	22086
873.69	21937
873.819	22048
873.948	21857
874.077	21945
874.206	21915
874.335	21857
874.464	22093
874.593	22112
874.722	22169
874.851	22295
874.979	22185
875.108	22204
875.237	22101
875.365	22036
875.494	22112
875.623	22280
875.751	22150
875.88	22177
876.008	22280
876.136	22333
876.265	22615
876.393	22744
876.521	22771
876.65	22653
876.778	22588
876.906	22504
877.034	22523
877.162	22455
877.29	22535
877.418	22535
877.546	22500
877.674	22508
877.802	22535
877.93	22478
878.058	22561
878.185	22363
878.313	22398
878.441	22538
878.568	22367
878.696	22466
878.824	22660
878.951	22611
879.079	22675
879.206	22778
879.333	22679
879.461	22447
879.588	22664
879.715	22531
879.842	22793
879.97	22702
880.097	22398
880.224	22447
880.351	22363
880.478	22291
880.605	22329
880.732	22379
880.859	22504
880.986	22367
881.112	22455
881.239	22173
881.366	21987
881.493	22048
881.619	21895
881.746	21937
881.872	21964
881.999	21930
882.125	21842
882.252	21873
882.378	21926
882.505	22029
882.631	21778
882.757	21743
882.883	21724
883.01	21583
883.136	21511
883.262	21466
883.388	21485
883.514	21568
883.64	21667
883.766	21561
883.892	21412
884.018	21431
884.143	21431
884.269	21466
884.395	21298
884.52	21252
884.646	21211
884.772	21135
884.897	21161
885.023	21230
885.148	21230
885.274	21351
885.399	21294
885.524	21294
885.65	21344
885.775	21222
885.9	21313
886.025	21264
886.15	21351
886.275	21192
886.4	21036
886.525	21214
886.65	21188
886.775	21249
886.9	21412
887.025	21420
887.149	21207
887.274	21070
887.399	21055
887.523	21005
887.648	21062
887.773	20857
887.897	21039
888.021	20979
888.146	20914
888.27	21104
888.395	21131
888.519	21081
888.643	21043
888.767	20986
888.891	20944
889.015	20708
889.139	20811
889.263	20807
889.387	20918
889.511	20933
889.635	20906
889.759	20872
889.883	20792
890.006	20857
890.13	20845
890.254	20853
890.377	20800
890.501	20598
890.624	20530
890.748	20583
890.871	20484
890.995	20358
891.118	20469
891.241	20442
891.364	20355
891.488	20461
891.611	20396
891.734	20408
891.857	20351
891.98	20492
892.103	20522
892.226	20393
892.349	20320
892.471	20210
892.594	20332
892.717	20457
892.839	20214
892.962	20488
893.085	20442
893.207	20237
893.33	20267
893.452	20119
893.575	20412
893.697	20157
893.819	20374
893.941	20404
894.064	20438
894.186	20229
894.308	20176
894.43	20332
894.552	20400
894.674	20332
894.796	20111
894.918	20370
895.04	20271
895.161	20256
895.283	20339
895.405	20187
895.526	20309
895.648	20176
895.769	20298
895.891	20332
896.012	20286
896.134	20374
896.255	20248
896.376	20259
896.498	20252
896.619	20336
896.74	20305
896.861	20305
896.982	20621
897.103	20857
897.224	20579
897.345	20583
897.466	20343
897.587	20427
897.708	20579
897.828	20556
897.949	20480
898.07	20438
898.19	20480
898.311	20552
898.431	20488
898.552	20590
898.672	20625
898.792	20549
898.913	20499
899.033	20343
899.153	20374
899.273	20172
899.393	20286
899.513	20240
899.633	20248
899.753	20267
899.873	20244
899.993	20290
900.113	20164
900.232	20183
900.352	20275
900.472	20081
900.591	19970
900.711	20103
900.83	20008
900.95	20191
901.069	20050
901.189	19833
901.308	19662
901.427	19601
901.546	19609
901.665	19559
901.784	19643
901.904	19483
902.023	19441
902.141	19179
902.26	19088
902.379	19179
902.498	19076
902.617	19107
902.735	19107
902.854	19015
902.973	19057
903.091	18821
903.21	18749
903.328	18783
903.446	18646
903.565	18627
903.683	18665
903.801	18555
903.919	18426
904.038	18509
904.156	18342
904.274	18353
904.392	18414
904.51	18350
904.627	18380
904.745	18376
904.863	18498
904.981	18072
905.098	18125
905.216	17988
905.334	18110
905.451	18030
905.569	18019
905.686	18041
905.803	18026
905.921	17866
906.038	17961
906.155	17775
906.272	17718
906.389	17764
906.506	17703
906.623	17627
906.74	17604
906.857	17493
906.974	17402
907.091	17581
907.208	17535
907.324	17649
907.441	17440
907.557	17250
907.674	17337
907.79	17246
907.907	17330
908.023	17284
908.139	17280
908.256	17292
908.372	17045
908.488	17117
908.604	17041
908.72	16957
908.836	17041
908.952	16999
909.068	17029
909.184	17033
909.3	17025
909.415	17010
909.531	16873
909.647	16828
909.762	16702
909.878	16660
909.993	16645
910.108	16733
910.224	16577
910.339	16641
910.454	16485
910.57	16485
910.685	16413
910.8	16755
910.915	16672
911.03	16531
911.145	16329
911.259	16276
911.374	16265
911.489	16188
911.604	16200
911.718	16040
911.833	16063
911.947	15934
912.062	15907
912.176	16067
912.291	16063
912.405	16025
912.519	16215
912.633	16188
912.748	16101
912.862	15945
912.976	15857
913.09	15694
913.204	15720
913.318	15732
913.431	15972
913.545	15918
913.659	15934
913.772	15785
913.886	15690
914	15610
914.113	15698
914.226	15728
914.34	15644
914.453	15530
914.566	15572
914.68	15584
914.793	15488
914.906	15260
915.019	15199
915.132	15180
915.245	15283
915.358	15291
915.47	15237
915.583	15180
915.696	15214
915.809	15332
915.921	15340
916.034	15176
916.146	15077
916.259	15043
916.371	15119
916.483	15127
916.595	15062
916.708	15142
916.82	14990
916.932	15047
917.044	15058
917.156	15009
917.268	14910
917.38	15036
917.491	14815
917.603	14868
917.715	15028
917.826	14952
917.938	14830
918.049	14689
918.161	14857
918.272	14918
918.384	14994
918.495	14746
918.606	14678
918.717	14499
918.828	14682
918.939	14670
919.05	14514
919.161	14625
919.272	14484
919.383	14530
919.494	14651
919.604	14925
919.715	14613
919.826	14522
919.936	14587
920.047	14636
920.157	14571
920.267	14769
920.378	14663
920.488	14537
920.598	14785
920.708	14941
920.818	14693
920.928	14773
921.038	14845
921.148	14899
921.258	14526
921.368	14457
921.477	14362
921.587	14275
921.697	14123
921.806	14347
921.916	14248
922.025	14039
922.134	13841
922.244	13974
922.353	13997
922.462	13921
922.571	13811
922.68	13753
922.789	13662
922.898	13605
923.007	13491
923.116	13647
923.224	13544
923.333	13521
923.442	13578
923.55	13457
923.659	13487
923.767	13483
923.876	13453
923.984	13460
924.092	13350
924.201	13369
924.309	13403
924.417	13365
924.525	13266
924.633	13362
924.741	14259
924.849	13053
924.956	13228
925.064	13084
925.172	13065
925.279	13042
925.387	13069
925.494	12973
925.602	13152
925.709	13099
925.816	12909
925.924	12981
926.031	13091
926.138	13004
926.245	12962
926.352	12844
926.459	13023
926.566	13057
926.673	12878
926.779	12859
926.886	12814
926.993	12673
927.099	12696
927.206	12498
927.312	12597
927.419	12715
927.525	12589
927.631	12627
927.737	12551
927.843	12429
927.95	12254
928.056	12388
928.162	12494
928.267	12502
928.373	13103
928.479	12536
928.585	12262
928.69	12403
928.796	12365
928.901	12342
929.007	12140
929.112	12327
929.218	12220
929.323	12213
929.428	12148
929.533	12175
929.638	12114
929.743	12049
929.848	12144
929.953	12144
930.058	12064
930.163	11813
930.267	11878
930.372	11942
930.477	11798
930.581	12072
930.685	11889
930.79	11710
930.894	11840
930.998	11665
931.103	11828
931.207	11452
931.311	11444
931.415	11326
931.519	11185
931.623	11048
