Data from test_V78500241_479.txt Node
Date: Fri Mar 25 15:45:07 CST 2022
User: usil
Spectrometer: V785-0024
Trigger mode: 0
Integration Time (sec): 4.000000E-1
Scans to average: 1
Nonlinearity correction enabled: false
Boxcar width: 0
Storing dark spectrum: false
XAxis mode: Wavelengths
Number of Pixels in Spectrum: 1024
>>>>>Begin Spectral Data<<<<<
801.071	27644
801.214	27481
801.356	27279
801.499	27214
801.641	27108
801.783	27199
801.926	27230
802.068	27192
802.211	27127
802.353	26979
802.496	26883
802.638	26765
802.78	26876
802.923	26773
803.065	26697
803.208	26811
803.35	26925
803.492	26933
803.635	26910
803.777	26773
803.919	26853
804.061	27135
804.204	26876
804.346	26910
804.488	26940
804.63	26944
804.773	26796
804.915	26921
805.057	27108
805.199	27055
805.341	27013
805.483	27032
805.626	27020
805.768	26899
805.91	26971
806.052	26948
806.194	27020
806.336	27233
806.478	26990
806.62	27043
806.762	27161
806.904	27393
807.046	27519
807.188	27534
807.33	27450
807.472	27530
807.614	27443
807.756	27462
807.898	27325
808.04	27302
808.182	27230
808.324	27237
808.465	27226
808.607	27519
808.749	27534
808.891	27880
809.033	27778
809.174	27797
809.316	27686
809.458	27717
809.6	27747
809.741	27800
809.883	27941
810.025	27994
810.166	27880
810.308	28013
810.45	27930
810.591	27838
810.733	27774
810.875	27568
811.016	27610
811.158	27519
811.299	27842
811.441	27945
811.582	27876
811.724	27663
811.865	27637
812.007	27629
812.148	27705
812.29	27622
812.431	27892
812.573	28017
812.714	28249
812.855	28249
812.997	28246
813.138	28481
813.279	28215
813.421	28322
813.562	28242
813.703	28097
813.845	27968
813.986	27545
814.127	27511
814.268	27332
814.41	27378
814.551	27367
814.692	27397
814.833	27226
814.974	27222
815.115	27466
815.256	27173
815.397	27150
815.539	27096
815.68	27074
815.821	27157
815.962	27032
816.103	27138
816.244	27020
816.385	26910
816.526	27001
816.666	26636
816.807	26739
816.948	26602
817.089	26765
817.23	26693
817.371	26727
817.512	26636
817.653	26594
817.793	26716
817.934	26632
818.075	26404
818.216	26674
818.356	26568
818.497	26564
818.638	26237
818.778	26503
818.919	26305
819.06	26328
819.2	26469
819.341	26590
819.481	26522
819.622	26739
819.762	26864
819.903	26861
820.043	26800
820.184	26826
820.324	26819
820.465	26705
820.605	26705
820.746	26804
820.886	26583
821.026	26640
821.167	26781
821.307	26788
821.447	26697
821.588	26556
821.728	26427
821.868	26271
822.008	26046
822.149	26035
822.289	25887
822.429	25875
822.569	25727
822.709	25803
822.849	25495
822.99	25594
823.13	25556
823.27	25632
823.41	25373
823.55	25278
823.69	25373
823.83	25346
823.97	25369
824.11	25274
824.25	25206
824.389	25221
824.529	25263
824.669	25027
824.809	25392
824.949	25339
825.089	25194
825.228	25285
825.368	24981
825.508	25141
825.648	25069
825.787	25084
825.927	25129
826.067	25057
826.206	25027
826.346	25282
826.485	25088
826.625	24954
826.765	25141
826.904	25050
827.044	24848
827.183	24745
827.323	24688
827.462	24661
827.601	24764
827.741	24806
827.88	24776
828.02	24738
828.159	24707
828.298	24852
828.437	24848
828.577	24772
828.716	24673
828.855	24696
828.994	24475
829.134	24464
829.273	24540
829.412	24414
829.551	24372
829.69	24414
829.829	24505
829.968	24551
830.107	24456
830.246	24376
830.385	24407
830.524	24174
830.663	24209
830.802	24159
830.941	23965
831.08	24060
831.219	24228
831.357	24102
831.496	24380
831.635	24129
831.774	23866
831.913	23840
832.051	23866
832.19	23882
832.329	23843
832.467	23741
832.606	23623
832.744	23676
832.883	23710
833.022	23581
833.16	23649
833.299	23756
833.437	23646
833.576	23828
833.714	23608
833.852	23729
833.991	23760
834.129	23855
834.267	23828
834.406	23813
834.544	23840
834.682	23798
834.821	23737
834.959	23980
835.097	23703
835.235	23923
835.373	23855
835.511	23775
835.65	23687
835.788	23699
835.926	23528
836.064	23425
836.202	23516
836.34	23661
836.478	23714
836.615	23581
836.753	23604
836.891	23661
837.029	23672
837.167	23600
837.305	23589
837.443	23429
837.58	23376
837.718	23615
837.856	23611
837.993	23322
838.131	23440
838.269	23353
838.406	23299
838.544	23261
838.681	23151
838.819	23094
838.956	22915
839.094	22881
839.231	22938
839.369	23041
839.506	23395
839.643	23124
839.781	22999
839.918	22892
840.055	23025
840.193	22949
840.33	22919
840.467	22957
840.604	22915
840.742	23003
840.879	22588
841.016	22706
841.153	22702
841.29	22911
841.427	22763
841.564	22713
841.701	22850
841.838	22702
841.975	22896
842.112	22801
842.249	22675
842.385	22630
842.522	22835
842.659	22603
842.796	22531
842.933	22660
843.069	22577
843.206	22481
843.343	22596
843.479	22641
843.616	22459
843.752	22375
843.889	22428
844.025	22535
844.162	22310
844.298	22489
844.435	22409
844.571	22291
844.708	22329
844.844	22512
844.98	22451
845.117	22523
845.253	22261
845.389	22207
845.525	22284
845.661	22200
845.798	22093
845.934	22306
846.07	22070
846.206	22063
846.342	22341
846.478	22067
846.614	21941
846.75	21880
846.886	21759
847.022	21869
847.158	21819
847.294	21762
847.429	21956
847.565	21804
847.701	22025
847.837	21534
847.972	21496
848.108	21599
848.244	21812
848.379	21534
848.515	21466
848.65	21412
848.786	21519
848.921	21378
849.057	21652
849.192	21466
849.328	21538
849.463	21279
849.598	21344
849.734	21351
849.869	21298
850.004	21195
850.14	21291
850.275	21226
850.41	21001
850.545	21127
850.68	21096
850.815	21245
850.95	21104
851.085	21355
851.22	21272
851.355	21165
851.49	21154
851.625	21119
851.76	21176
851.895	21135
852.03	21123
852.165	21089
852.299	21245
852.434	21275
852.569	21317
852.703	21108
852.838	21359
852.973	21329
853.107	21222
853.242	21066
853.376	21051
853.511	20857
853.645	21096
853.78	21222
853.914	21116
854.048	21017
854.183	20967
854.317	21062
854.451	21180
854.585	20937
854.72	20952
854.854	21112
854.988	21028
855.122	21024
855.256	20804
855.39	20941
855.524	21150
855.658	21036
855.792	21142
855.926	20944
856.06	21085
856.194	21024
856.327	20914
856.461	20963
856.595	20880
856.729	20960
856.862	21142
856.996	20960
857.13	21150
857.263	21119
857.397	21070
857.53	20944
857.664	21237
857.797	21039
857.931	21199
858.064	21043
858.197	21104
858.331	21112
858.464	20960
858.597	20960
858.731	20956
858.864	21032
858.997	20910
859.13	20941
859.263	21127
859.396	21131
859.529	20880
859.662	20994
859.795	21032
859.928	20941
860.061	21142
860.194	21180
860.327	21032
860.46	21051
860.592	21047
860.725	21184
860.858	21119
860.99	21043
861.123	21051
861.256	21032
861.388	21039
861.521	21644
861.653	20929
861.786	20758
861.918	20815
862.05	20777
862.183	20902
862.315	20975
862.447	21039
862.58	20895
862.712	20697
862.844	20625
862.976	20849
863.108	20735
863.24	21081
863.372	20659
863.504	20735
863.636	20632
863.768	20777
863.9	20777
864.032	20625
864.164	20587
864.296	20769
864.428	20891
864.559	20826
864.691	20800
864.823	20754
864.954	20777
865.086	20670
865.217	20583
865.349	20514
865.48	20602
865.612	20739
865.743	20899
865.875	20689
866.006	20594
866.137	20598
866.269	20514
866.4	20526
866.531	20594
866.662	20545
866.793	20545
866.924	20571
867.055	20549
867.186	20469
867.317	20511
867.448	20370
867.579	20522
867.71	20511
867.841	20351
867.972	20537
868.103	20514
868.233	20537
868.364	20590
868.495	20655
868.625	20788
868.756	20830
868.886	20724
869.017	20701
869.147	20861
869.278	20861
869.408	20781
869.539	20845
869.669	20796
869.799	20796
869.929	20925
870.06	20910
870.19	21214
870.32	21199
870.45	21211
870.58	21146
870.71	21157
870.84	21382
870.97	21146
871.1	21135
871.23	21416
871.36	21416
871.489	21386
871.619	21397
871.749	21466
871.879	21355
872.008	21481
872.138	21469
872.267	21481
872.397	21260
872.526	21180
872.656	21169
872.785	21272
872.915	21420
873.044	21443
873.173	21428
873.303	21424
873.432	21416
873.561	21526
873.69	21397
873.819	21401
873.948	21523
874.077	21336
874.206	21348
874.335	21477
874.464	21458
874.593	21713
874.722	21583
874.851	21793
874.979	21747
875.108	21751
875.237	21625
875.365	21637
875.494	21572
875.623	21808
875.751	21587
875.88	21583
876.008	21804
876.136	21808
876.265	22116
876.393	22147
876.521	22090
876.65	22048
876.778	22013
876.906	22017
877.034	21930
877.162	21907
877.29	21911
877.418	21975
877.546	22040
877.674	22010
877.802	21991
877.93	22093
878.058	21953
878.185	21785
878.313	21979
878.441	22006
878.568	21941
878.696	21998
878.824	21956
878.951	22109
879.079	22219
879.206	22322
879.333	22162
879.461	21911
879.588	22124
879.715	22090
879.842	22276
879.97	22013
880.097	21903
880.224	21823
880.351	21888
880.478	21762
880.605	21682
880.732	21755
880.859	22040
880.986	21732
881.112	21876
881.239	21679
881.366	21534
881.493	21580
881.619	21481
881.746	21481
881.872	21439
881.999	21355
882.125	21355
882.252	21447
882.378	21416
882.505	21397
882.631	21291
882.757	21173
882.883	21211
883.01	21081
883.136	21127
883.262	21020
883.388	20902
883.514	21108
883.64	21047
883.766	20887
883.892	20864
884.018	20910
884.143	21180
884.269	21165
884.395	20819
884.52	20739
884.646	20781
884.772	20807
884.897	20849
885.023	20743
885.148	20902
885.274	20876
885.399	20743
885.524	20750
885.65	20754
885.775	20746
885.9	20670
886.025	20800
886.15	20838
886.275	20720
886.4	20606
886.525	20705
886.65	20651
886.775	20533
886.9	20868
887.025	20914
887.149	20731
887.274	20526
887.399	20503
887.523	20556
887.648	20366
887.773	20473
887.897	20590
888.021	20564
888.146	20476
888.27	20651
888.395	20560
888.519	20495
888.643	20564
888.767	20606
888.891	20362
889.015	20377
889.139	20446
889.263	20263
889.387	20404
889.511	20594
889.635	20488
889.759	20248
889.883	20301
890.006	20221
890.13	20377
890.254	20256
890.377	20252
890.501	20107
890.624	20008
890.748	20168
890.871	19970
890.995	19913
891.118	19750
891.241	19967
891.364	19814
891.488	19947
891.611	19868
891.734	19852
891.857	19986
891.98	19967
892.103	19986
892.226	19887
892.349	19769
892.471	19776
892.594	19788
892.717	19997
892.839	19799
892.962	19868
893.085	19811
893.207	19742
893.33	19715
893.452	19685
893.575	19715
893.697	19852
893.819	19951
893.941	19986
894.064	19883
894.186	19715
894.308	19769
894.43	19879
894.552	19898
894.674	19837
894.796	19753
894.918	19860
895.04	19856
895.161	19837
895.283	19849
895.405	19822
895.526	19765
895.648	19807
895.769	19917
895.891	19826
896.012	19883
896.134	19932
896.255	19814
896.376	19807
896.498	19727
896.619	19936
896.74	19875
896.861	19913
896.982	20065
897.103	20286
897.224	20092
897.345	19963
897.466	20126
897.587	20031
897.708	20111
897.828	20130
897.949	20088
898.07	19875
898.19	19967
898.311	20092
898.431	19978
898.552	20005
898.672	20008
898.792	20157
898.913	20119
899.033	19986
899.153	19944
899.273	19849
899.393	19727
899.513	19803
899.633	19818
899.753	19826
899.873	19803
899.993	19864
900.113	19590
900.232	19860
900.352	19723
900.472	19677
900.591	19537
900.711	19674
900.83	19567
900.95	19719
901.069	19628
901.189	19575
901.308	19343
901.427	19240
901.546	19137
901.665	19160
901.784	19198
901.904	19137
902.023	18966
902.141	18768
902.26	18768
902.379	18715
902.498	18669
902.617	18722
902.735	18783
902.854	18677
902.973	18589
903.091	18422
903.21	18380
903.328	18323
903.446	18365
903.565	18163
903.683	18194
903.801	18148
903.919	18144
904.038	18087
904.156	17859
904.274	18144
904.392	17843
904.51	17859
904.627	17786
904.745	17912
904.863	18049
904.981	17672
905.098	17726
905.216	17573
905.334	17661
905.451	17680
905.569	17589
905.686	17741
905.803	17627
905.921	17345
906.038	17573
906.155	17486
906.272	17322
906.389	17265
906.506	17105
906.623	17204
906.74	17147
906.857	17014
906.974	17094
907.091	17170
907.208	17239
907.324	17102
907.441	17109
907.557	16889
907.674	16915
907.79	16771
907.907	16847
908.023	16847
908.139	16892
908.256	16774
908.372	16752
908.488	16805
908.604	16584
908.72	16634
908.836	16649
908.952	16523
909.068	16596
909.184	16694
909.3	16550
909.415	16592
909.531	16679
909.647	16379
909.762	16257
909.878	16268
909.993	16291
910.108	16181
910.224	16246
910.339	16280
910.454	16131
910.57	16082
910.685	16048
910.8	16344
910.915	16135
911.03	16131
911.145	15857
911.259	15865
911.374	15876
911.489	15842
911.604	15781
911.718	15644
911.833	15751
911.947	15610
912.062	15504
912.176	15671
912.291	15694
912.405	15789
912.519	15857
912.633	15797
912.748	15591
912.862	15564
912.976	15504
913.09	15389
913.204	15458
913.318	15523
913.431	15530
913.545	15454
913.659	15576
913.772	15340
913.886	15348
914	15317
914.113	15348
914.226	15340
914.34	15241
914.453	15230
914.566	15268
914.68	15226
914.793	15188
914.906	14979
915.019	14910
915.132	14781
915.245	14788
915.358	14902
915.47	14872
915.583	14868
915.696	14876
915.809	15009
915.921	14982
916.034	14796
916.146	14906
916.259	14788
916.371	14880
916.483	14777
916.595	14697
916.708	14663
916.82	14716
916.932	14697
917.044	14648
917.156	14686
917.268	14507
917.38	14537
917.491	14522
917.603	14610
917.715	14560
917.826	14541
917.938	14499
918.049	14324
918.161	14457
918.272	14663
918.384	14575
918.495	14533
918.606	14366
918.717	14237
918.828	14415
918.939	14381
919.05	14240
919.161	14317
919.272	14100
919.383	14199
919.494	14305
919.604	14549
919.715	14351
919.826	14176
919.936	14267
920.047	14385
920.157	14298
920.267	14533
920.378	14381
920.488	14252
920.598	14434
920.708	14598
920.818	14518
920.928	14503
921.038	14629
921.148	14484
921.258	14218
921.368	14054
921.477	14077
921.587	13993
921.697	13864
921.806	14142
921.916	13875
922.025	13772
922.134	13723
922.244	13616
922.353	13769
922.462	13590
922.571	13601
922.68	13289
922.789	13365
922.898	13373
923.007	13304
923.116	13354
923.224	13293
923.333	13187
923.442	13187
923.55	13228
923.659	13270
923.767	13259
923.876	13103
923.984	13137
924.092	13000
924.201	13164
924.309	13088
924.417	13107
924.525	13027
924.633	12947
924.741	13833
924.849	12890
924.956	12947
925.064	12768
925.172	12665
925.279	12719
925.387	12776
925.494	12783
925.602	12977
925.709	12798
925.816	12692
925.924	12795
926.031	12772
926.138	12730
926.245	12681
926.352	12604
926.459	12829
926.566	12829
926.673	12646
926.779	12593
926.886	12456
926.993	12418
927.099	12338
927.206	12342
927.312	12292
927.419	12410
927.525	12292
927.631	12327
927.737	12224
927.843	12175
927.95	12129
928.056	12197
928.162	12178
928.267	12270
928.373	12871
928.479	12220
928.585	12064
928.69	12114
928.796	12209
928.901	12041
929.007	11908
929.112	12049
929.218	11939
929.323	11980
929.428	11908
929.533	12034
929.638	11783
929.743	11840
929.848	11965
929.953	11794
930.058	11699
930.163	11642
930.267	11539
930.372	11752
930.477	11532
930.581	11813
930.685	11646
930.79	11467
930.894	11436
930.998	11452
931.103	11611
931.207	11220
931.311	11109
931.415	11060
931.519	10927
931.623	10927
