Data from test_V78500241_677.txt Node
Date: Fri Mar 25 15:46:29 CST 2022
User: usil
Spectrometer: V785-0024
Trigger mode: 0
Integration Time (sec): 4.000000E-1
Scans to average: 1
Nonlinearity correction enabled: false
Boxcar width: 0
Storing dark spectrum: false
XAxis mode: Wavelengths
Number of Pixels in Spectrum: 1024
>>>>>Begin Spectral Data<<<<<
801.071	27983
801.214	27994
801.356	27835
801.499	27614
801.641	27507
801.783	27603
801.926	27804
802.068	27660
802.211	27473
802.353	27473
802.496	27264
802.638	27298
802.78	27222
802.923	27013
803.065	27245
803.208	27359
803.35	27272
803.492	27325
803.635	27462
803.777	27275
803.919	27504
804.061	27732
804.204	27458
804.346	27450
804.488	27332
804.63	27466
804.773	27306
804.915	27466
805.057	27576
805.199	27439
805.341	27492
805.483	27564
805.626	27530
805.768	27557
805.91	27599
806.052	27793
806.194	27572
806.336	27743
806.478	27580
806.62	27629
806.762	27667
806.904	27918
807.046	28154
807.188	28010
807.33	28192
807.472	28162
807.614	27979
807.756	27956
807.898	27785
808.04	27785
808.182	28029
808.324	27987
808.465	27880
808.607	28177
808.749	28268
808.891	28325
809.033	28436
809.174	28390
809.316	28261
809.458	28360
809.6	28154
809.741	28398
809.883	28371
810.025	28702
810.166	28516
810.308	28440
810.45	28470
810.591	28459
810.733	28303
810.875	28200
811.016	28223
811.158	28169
811.299	28443
811.441	28474
811.582	28382
811.724	28337
811.865	28215
812.007	28337
812.148	28188
812.29	28188
812.431	28474
812.573	28573
812.714	28717
812.855	28831
812.997	28774
813.138	29083
813.279	29041
813.421	28839
813.562	28858
813.703	28664
813.845	28565
813.986	28242
814.127	28128
814.268	28010
814.41	27991
814.551	27953
814.692	28139
814.833	27964
814.974	28036
815.115	27960
815.256	27774
815.397	27914
815.539	27895
815.68	27690
815.821	27724
815.962	27698
816.103	27660
816.244	27568
816.385	27724
816.526	27439
816.666	27412
816.807	27348
816.948	27302
817.089	27344
817.23	27260
817.371	27252
817.512	27256
817.653	27268
817.793	27123
817.934	27188
818.075	27275
818.216	27291
818.356	27310
818.497	27241
818.638	26960
818.778	27036
818.919	26952
819.06	27119
819.2	27260
819.341	27412
819.481	27127
819.622	27431
819.762	27572
819.903	27504
820.043	27526
820.184	27431
820.324	27431
820.465	27507
820.605	27420
820.746	27408
820.886	27264
821.026	27378
821.167	27317
821.307	27488
821.447	27245
821.588	27477
821.728	27283
821.868	26899
822.008	26819
822.149	26781
822.289	26804
822.429	26594
822.569	26450
822.709	26412
822.849	26408
822.99	26221
823.13	26035
823.27	26183
823.41	26008
823.55	26103
823.69	26058
823.83	26161
823.97	25986
824.11	25917
824.25	25879
824.389	25993
824.529	26126
824.669	25841
824.809	26138
824.949	25906
825.089	25955
825.228	25852
825.368	25742
825.508	25753
825.648	25807
825.787	25883
825.927	25894
826.067	25742
826.206	25753
826.346	25921
826.485	25925
826.625	25791
826.765	25742
826.904	25856
827.044	25620
827.183	25590
827.323	25476
827.462	25689
827.601	25472
827.741	25533
827.88	25605
828.02	25346
828.159	25419
828.298	25616
828.437	25559
828.577	25426
828.716	25521
828.855	25365
828.994	25202
829.134	25213
829.273	25270
829.412	25179
829.551	25194
829.69	25160
829.829	25255
829.968	25240
830.107	25384
830.246	25244
830.385	25050
830.524	24951
830.663	25069
830.802	24821
830.941	24867
831.08	24852
831.219	24848
831.357	24783
831.496	24882
831.635	24772
831.774	24658
831.913	24620
832.051	24570
832.19	24639
832.329	24639
832.467	24513
832.606	24525
832.744	24376
832.883	24376
833.022	24479
833.16	24513
833.299	24490
833.437	24521
833.576	24582
833.714	24597
833.852	24547
833.991	24559
834.129	24646
834.267	24620
834.406	24445
834.544	24570
834.682	24589
834.821	24646
834.959	24639
835.097	24395
835.235	24509
835.373	24445
835.511	24505
835.65	24399
835.788	24399
835.926	24224
836.064	24247
836.202	24270
836.34	24338
836.478	24475
836.615	24376
836.753	24273
836.891	24445
837.029	24445
837.167	24414
837.305	24292
837.443	24308
837.58	24197
837.718	24182
837.856	24197
837.993	24205
838.131	24209
838.269	24030
838.406	24091
838.544	23992
838.681	23805
838.819	23889
838.956	23589
839.094	23562
839.231	23661
839.369	23767
839.506	24011
839.643	23977
839.781	23573
839.918	23585
840.055	23668
840.193	23573
840.33	23608
840.467	23638
840.604	23608
840.742	23912
840.879	23360
841.016	23474
841.153	23410
841.29	23748
841.427	23551
841.564	23474
841.701	23570
841.838	23467
841.975	23452
842.112	23463
842.249	23379
842.385	23284
842.522	23619
842.659	23509
842.796	23326
842.933	23292
843.069	23296
843.206	23277
843.343	23288
843.479	23349
843.616	23220
843.752	22980
843.889	23117
844.025	23311
844.162	23071
844.298	23269
844.435	23102
844.571	23098
844.708	23189
844.844	23204
844.98	23216
845.117	23193
845.253	22999
845.389	23006
845.525	23014
845.661	22961
845.798	22816
845.934	22911
846.07	22843
846.206	22801
846.342	22854
846.478	22843
846.614	22710
846.75	22413
846.886	22478
847.022	22653
847.158	22611
847.294	22634
847.429	22630
847.565	22615
847.701	22885
847.837	22363
847.972	22230
848.108	22322
848.244	22341
848.379	22322
848.515	22207
848.65	22196
848.786	22192
848.921	22070
849.057	22196
849.192	22249
849.328	22249
849.463	22200
849.598	22097
849.734	21949
849.869	22010
850.004	21956
850.14	21888
850.275	22013
850.41	21869
850.545	21838
850.68	21892
850.815	21956
850.95	21895
851.085	22017
851.22	21876
851.355	21926
851.49	21835
851.625	21857
851.76	21907
851.895	21831
852.03	21922
852.165	21987
852.299	21960
852.434	21953
852.569	21987
852.703	21793
852.838	21915
852.973	22074
853.107	21994
853.242	21934
853.376	21720
853.511	21720
853.645	21633
853.78	21793
853.914	21743
854.048	21679
854.183	21759
854.317	21762
854.451	21846
854.585	21591
854.72	21762
854.854	21675
854.988	21713
855.122	21690
855.256	21705
855.39	21667
855.524	21846
855.658	21797
855.792	21770
855.926	21770
856.06	21751
856.194	21816
856.327	21751
856.461	21618
856.595	21603
856.729	21637
856.862	21831
856.996	21717
857.13	21720
857.263	21732
857.397	21854
857.53	21675
857.664	21865
857.797	21800
857.931	21808
858.064	21736
858.197	21804
858.331	21667
858.464	21694
858.597	21572
858.731	21778
858.864	21816
858.997	21652
859.13	21778
859.263	21667
859.396	21930
859.529	21717
859.662	21762
859.795	21770
859.928	21705
860.061	21823
860.194	21934
860.327	21808
860.46	21861
860.592	21778
860.725	21778
860.858	21732
860.99	21781
861.123	21682
861.256	21713
861.388	21717
861.521	22325
861.653	21526
861.786	21534
861.918	21667
862.05	21614
862.183	21644
862.315	21599
862.447	21713
862.58	21637
862.712	21401
862.844	21458
862.976	21469
863.108	21515
863.24	21759
863.372	21500
863.504	21447
863.636	21374
863.768	21515
863.9	21538
864.032	21443
864.164	21435
864.296	21477
864.428	21496
864.559	21526
864.691	21633
864.823	21504
864.954	21473
865.086	21420
865.217	21150
865.349	21283
865.48	21424
865.612	21443
865.743	21545
865.875	21370
866.006	21344
866.137	21283
866.269	21268
866.4	21386
866.531	21226
866.662	21150
866.793	21150
866.924	21325
867.055	21306
867.186	21264
867.317	21287
867.448	21188
867.579	21260
867.71	21272
867.841	21184
867.972	21245
868.103	21252
868.233	21298
868.364	21218
868.495	21249
868.625	21561
868.756	21652
868.886	21431
869.017	21424
869.147	21671
869.278	21511
869.408	21648
869.539	21553
869.669	21583
869.799	21557
869.929	21656
870.06	21709
870.19	21854
870.32	21857
870.45	21819
870.58	21888
870.71	21945
870.84	21888
870.97	21968
871.1	21945
871.23	22090
871.36	22188
871.489	22078
871.619	22029
871.749	22166
871.879	22097
872.008	22230
872.138	22048
872.267	22051
872.397	21987
872.526	21956
872.656	22002
872.785	22013
872.915	22246
873.044	22192
873.173	22158
873.303	22181
873.432	22131
873.561	22234
873.69	22044
873.819	22166
873.948	22173
874.077	22166
874.206	22063
874.335	22044
874.464	22261
874.593	22322
874.722	22265
874.851	22337
874.979	22329
875.108	22413
875.237	22287
875.365	22139
875.494	22375
875.623	22497
875.751	22424
875.88	22413
876.008	22466
876.136	22500
876.265	22755
876.393	22816
876.521	22824
876.65	22831
876.778	22683
876.906	22577
877.034	22706
877.162	22626
877.29	22580
877.418	22740
877.546	22713
877.674	22675
877.802	22588
877.93	22698
878.058	22740
878.185	22592
878.313	22713
878.441	22641
878.568	22478
878.696	22736
878.824	22801
878.951	22858
879.079	22774
879.206	22972
879.333	22748
879.461	22771
879.588	22782
879.715	22900
879.842	22938
879.97	22744
880.097	22550
880.224	22462
880.351	22584
880.478	22630
880.605	22519
880.732	22504
880.859	22763
880.986	22592
881.112	22569
881.239	22386
881.366	22215
881.493	22215
881.619	22036
881.746	22143
881.872	22067
881.999	22109
882.125	22074
882.252	22059
882.378	22082
882.505	22124
882.631	21979
882.757	21762
882.883	21941
883.01	21751
883.136	21682
883.262	21701
883.388	21523
883.514	21774
883.64	21827
883.766	21652
883.892	21530
884.018	21557
884.143	21755
884.269	21804
884.395	21469
884.52	21397
884.646	21511
884.772	21310
884.897	21389
885.023	21401
885.148	21542
885.274	21606
885.399	21454
885.524	21355
885.65	21416
885.775	21370
885.9	21340
886.025	21428
886.15	21424
886.275	21340
886.4	21199
886.525	21359
886.65	21405
886.775	21302
886.9	21481
887.025	21553
887.149	21336
887.274	21199
887.399	21192
887.523	21195
887.648	21131
887.773	21062
887.897	21146
888.021	21226
888.146	21161
888.27	21355
888.395	21332
888.519	21104
888.643	21226
888.767	21241
888.891	21066
889.015	20956
889.139	21032
889.263	21081
889.387	21074
889.511	21142
889.635	21096
889.759	20979
889.883	20952
890.006	20952
890.13	21058
890.254	20826
890.377	20849
890.501	20663
890.624	20541
890.748	20762
890.871	20648
890.995	20473
891.118	20617
891.241	20613
891.364	20655
891.488	20697
891.611	20629
891.734	20564
891.857	20476
891.98	20427
892.103	20469
892.226	20541
892.349	20488
892.471	20332
892.594	20446
892.717	20549
892.839	20366
892.962	20480
893.085	20427
893.207	20377
893.33	20362
893.452	20347
893.575	20358
893.697	20492
893.819	20568
893.941	20556
894.064	20556
894.186	20408
894.308	20374
894.43	20533
894.552	20617
894.674	20552
894.796	20317
894.918	20412
895.04	20370
895.161	20488
895.283	20423
895.405	20381
895.526	20454
895.648	20393
895.769	20469
895.891	20427
896.012	20499
896.134	20404
896.255	20408
896.376	20328
896.498	20351
896.619	20461
896.74	20427
896.861	20533
896.982	20800
897.103	20906
897.224	20621
897.345	20636
897.466	20590
897.587	20587
897.708	20769
897.828	20663
897.949	20625
898.07	20507
898.19	20541
898.311	20697
898.431	20636
898.552	20655
898.672	20765
898.792	20746
898.913	20644
899.033	20450
899.153	20347
899.273	20324
899.393	20317
899.513	20438
899.633	20385
899.753	20381
899.873	20385
899.993	20396
900.113	20256
900.232	20252
900.352	20377
900.472	20267
900.591	20180
900.711	20195
900.83	20092
900.95	20286
901.069	20271
901.189	20191
901.308	19833
901.427	19761
901.546	19731
901.665	19715
901.784	19727
901.904	19510
902.023	19468
902.141	19346
902.26	19320
902.379	19324
902.498	19236
902.617	19114
902.735	19175
902.854	19160
902.973	19156
903.091	18867
903.21	18890
903.328	18829
903.446	18817
903.565	18734
903.683	18722
903.801	18635
903.919	18707
904.038	18677
904.156	18532
904.274	18559
904.392	18460
904.51	18376
904.627	18433
904.745	18486
904.863	18517
904.981	18285
905.098	18209
905.216	18068
905.334	18133
905.451	18152
905.569	18125
905.686	18178
905.803	18057
905.921	18034
906.038	18102
906.155	17977
906.272	17817
906.389	17805
906.506	17699
906.623	17676
906.74	17752
906.857	17646
906.974	17634
907.091	17627
907.208	17691
907.324	17680
907.441	17581
907.557	17490
907.674	17486
907.79	17318
907.907	17242
908.023	17497
908.139	17433
908.256	17292
908.372	17322
908.488	17303
908.604	17105
908.72	17018
908.836	17094
908.952	17075
909.068	17124
909.184	17159
909.3	17105
909.415	17170
909.531	17208
909.647	16809
909.762	16778
909.878	16801
909.993	16702
910.108	16706
910.224	16698
910.339	16790
910.454	16755
910.57	16710
910.685	16516
910.8	16793
910.915	16672
911.03	16660
911.145	16481
911.259	16382
911.374	16485
911.489	16455
911.604	16371
911.718	16055
911.833	16219
911.947	16067
912.062	16055
912.176	16131
912.291	16154
912.405	16158
912.519	16360
912.633	16413
912.748	16188
912.862	16071
912.976	15884
913.09	15793
913.204	15926
913.318	15972
913.431	16109
913.545	16071
913.659	16093
913.772	15869
913.886	15743
914	15618
914.113	15827
914.226	15918
914.34	15819
914.453	15755
914.566	15747
914.68	15614
914.793	15679
914.906	15488
915.019	15447
915.132	15256
915.245	15389
915.358	15428
915.47	15435
915.583	15393
915.696	15332
915.809	15561
915.921	15447
916.034	15329
916.146	15313
916.259	15241
916.371	15389
916.483	15287
916.595	15135
916.708	15272
916.82	15218
916.932	15218
917.044	15264
917.156	15146
917.268	15116
917.38	15089
917.491	15024
917.603	14998
917.715	15093
917.826	15112
917.938	14990
918.049	14872
918.161	14963
918.272	15051
918.384	15123
918.495	14895
918.606	14804
918.717	14697
918.828	14815
918.939	14861
919.05	14701
919.161	14819
919.272	14678
919.383	14686
919.494	14845
919.604	14998
919.715	14746
919.826	14651
919.936	14762
920.047	14842
920.157	14861
920.267	15005
920.378	14849
920.488	14686
920.598	14899
920.708	15047
920.818	14880
920.928	14815
921.038	15005
921.148	15085
921.258	14705
921.368	14533
921.477	14522
921.587	14412
921.697	14434
921.806	14564
921.916	14317
922.025	14145
922.134	14081
922.244	14073
922.353	14187
922.462	13967
922.571	13928
922.68	13784
922.789	13674
922.898	13791
923.007	13647
923.116	13791
923.224	13765
923.333	13719
923.442	13696
923.55	13674
923.659	13582
923.767	13772
923.876	13601
923.984	13605
924.092	13426
924.201	13567
924.309	13518
924.417	13506
924.525	13415
924.633	13369
924.741	14275
924.849	13221
924.956	13354
925.064	13270
925.172	13110
925.279	13206
925.387	13190
925.494	13095
925.602	13293
925.709	13240
925.816	13084
925.924	13194
926.031	13164
926.138	13168
926.245	13190
926.352	12981
926.459	13206
926.566	13194
926.673	13042
926.779	13019
926.886	12916
926.993	12662
927.099	12795
927.206	12681
927.312	12703
927.419	12814
927.525	12730
927.631	12772
927.737	12635
927.843	12566
927.95	12433
928.056	12623
928.162	12506
928.267	12585
928.373	13221
928.479	12547
928.585	12380
928.69	12471
928.796	12578
928.901	12437
929.007	12254
929.112	12407
929.218	12372
929.323	12380
929.428	12239
929.533	12483
929.638	12155
929.743	12247
929.848	12346
929.953	12175
930.058	12175
930.163	11996
930.267	11961
930.372	12125
930.477	11859
930.581	12144
930.685	12026
930.79	11786
930.894	11882
930.998	11851
931.103	11904
931.207	11649
931.311	11497
931.415	11501
931.519	11280
931.623	11178
