Data from test_V78500241_3171.txt Node
Date: Fri Mar 25 16:03:46 CST 2022
User: usil
Spectrometer: V785-0024
Trigger mode: 0
Integration Time (sec): 4.000000E-1
Scans to average: 1
Nonlinearity correction enabled: false
Boxcar width: 0
Storing dark spectrum: false
XAxis mode: Wavelengths
Number of Pixels in Spectrum: 1024
>>>>>Begin Spectral Data<<<<<
801.071	28748
801.214	28596
801.356	28322
801.499	28421
801.641	28226
801.783	28226
801.926	28310
802.068	28272
802.211	28017
802.353	28090
802.496	27998
802.638	28032
802.78	27964
802.923	27876
803.065	27724
803.208	27778
803.35	27998
803.492	28059
803.635	28169
803.777	28032
803.919	28287
804.061	28565
804.204	28280
804.346	28234
804.488	28063
804.63	28169
804.773	28333
804.915	28105
805.057	28257
805.199	28306
805.341	28242
805.483	28238
805.626	28348
805.768	28242
805.91	28325
806.052	28489
806.194	28287
806.336	28409
806.478	28382
806.62	28166
806.762	28500
806.904	28542
807.046	28858
807.188	28660
807.33	28938
807.472	28790
807.614	28725
807.756	28615
807.898	28592
808.04	28565
808.182	28634
808.324	28755
808.465	28771
808.607	28877
808.749	28980
808.891	29117
809.033	29136
809.174	29083
809.316	29132
809.458	28900
809.6	29044
809.741	29075
809.883	29162
810.025	29368
810.166	29296
810.308	29242
810.45	29356
810.591	29273
810.733	29147
810.875	28999
811.016	29094
811.158	28972
811.299	29109
811.441	29280
811.582	29174
811.724	29086
811.865	29010
812.007	28927
812.148	29132
812.29	29113
812.431	29303
812.573	29372
812.714	29547
812.855	29558
812.997	29756
813.138	29859
813.279	29790
813.421	29467
813.562	29592
813.703	29364
813.845	29337
813.986	29136
814.127	28892
814.268	28816
814.41	28869
814.551	28679
814.692	28771
814.833	28687
814.974	28763
815.115	28911
815.256	28683
815.397	28687
815.539	28599
815.68	28577
815.821	28413
815.962	28653
816.103	28592
816.244	28516
816.385	28356
816.526	28280
816.666	28070
816.807	28032
816.948	28173
817.089	28196
817.23	28029
817.371	28139
817.512	28093
817.653	28025
817.793	27987
817.934	28070
818.075	28128
818.216	28040
818.356	28078
818.497	27945
818.638	27717
818.778	27778
818.919	27842
819.06	27937
819.2	27865
819.341	28051
819.481	28036
819.622	28181
819.762	28310
819.903	28371
820.043	28177
820.184	28249
820.324	28181
820.465	28223
820.605	28280
820.746	28310
820.886	28147
821.026	28192
821.167	28192
821.307	28116
821.447	28177
821.588	28051
821.728	27922
821.868	27755
822.008	27633
822.149	27477
822.289	27576
822.429	27237
822.569	27241
822.709	27275
822.849	27116
822.99	26998
823.13	27077
823.27	27032
823.41	26899
823.55	26811
823.69	26887
823.83	26804
823.97	26826
824.11	26640
824.25	26773
824.389	26651
824.529	26716
824.669	26781
824.809	26883
824.949	26921
825.089	26895
825.228	26777
825.368	26587
825.508	26522
825.648	26552
825.787	26693
825.927	26720
826.067	26568
826.206	26522
826.346	26609
826.485	26560
826.625	26499
826.765	26724
826.904	26606
827.044	26461
827.183	26362
827.323	26480
827.462	26248
827.601	26370
827.741	26218
827.88	26366
828.02	26332
828.159	26366
828.298	26324
828.437	26431
828.577	26161
828.716	26343
828.855	26225
828.994	26122
829.134	25966
829.273	26069
829.412	25993
829.551	25947
829.69	25997
829.829	25974
829.968	26145
830.107	26122
830.246	26050
830.385	25993
830.524	25921
830.663	25875
830.802	25837
830.941	25670
831.08	25559
831.219	25662
831.357	25651
831.496	25788
831.635	25590
831.774	25609
831.913	25544
832.051	25464
832.19	25495
832.329	25495
832.467	25400
832.606	25274
832.744	25343
832.883	25198
833.022	25327
833.16	25274
833.299	25346
833.437	25289
833.576	25396
833.714	25491
833.852	25377
833.991	25384
834.129	25350
834.267	25430
834.406	25339
834.544	25483
834.682	25377
834.821	25335
834.959	25601
835.097	25297
835.235	25400
835.373	25297
835.511	25419
835.65	25156
835.788	25247
835.926	25168
836.064	25053
836.202	25023
836.34	25194
836.478	25316
836.615	25122
836.753	25107
836.891	25320
837.029	25274
837.167	25236
837.305	24989
837.443	24981
837.58	25000
837.718	25053
837.856	25015
837.993	24924
838.131	25099
838.269	24909
838.406	24916
838.544	24817
838.681	24673
838.819	24616
838.956	24517
839.094	24509
839.231	24498
839.369	24669
839.506	24837
839.643	24715
839.781	24486
839.918	24391
840.055	24448
840.193	24350
840.33	24429
840.467	24350
840.604	24448
840.742	24585
840.879	24152
841.016	24235
841.153	24254
841.29	24372
841.427	24300
841.564	24391
841.701	24338
841.838	24338
841.975	24251
842.112	24273
842.249	24136
842.385	24144
842.522	24308
842.659	24171
842.796	24079
842.933	24087
843.069	23996
843.206	24038
843.343	24140
843.479	24129
843.616	24136
843.752	23920
843.889	23874
844.025	24018
844.162	23992
844.298	24015
844.435	23954
844.571	24018
844.708	23893
844.844	24045
844.98	24057
845.117	24110
845.253	23718
845.389	23783
845.525	23779
845.661	23733
845.798	23707
845.934	23748
846.07	23611
846.206	23630
846.342	23805
846.478	23809
846.614	23436
846.75	23337
846.886	23395
847.022	23474
847.158	23379
847.294	23486
847.429	23353
847.565	23307
847.701	23680
847.837	23109
847.972	23094
848.108	23216
848.244	23193
848.379	23010
848.515	23018
848.65	22866
848.786	22976
848.921	22972
849.057	22980
849.192	23083
849.328	22972
849.463	23006
849.598	23018
849.734	22744
849.869	22763
850.004	22812
850.14	22740
850.275	22892
850.41	22664
850.545	22573
850.68	22752
850.815	22767
850.95	22763
851.085	22938
851.22	22911
851.355	22702
851.49	22660
851.625	22653
851.76	22683
851.895	22542
852.03	22599
852.165	22713
852.299	22778
852.434	22793
852.569	22763
852.703	22615
852.838	22835
852.973	22904
853.107	22820
853.242	22698
853.376	22531
853.511	22207
853.645	22584
853.78	22649
853.914	22599
854.048	22557
854.183	22519
854.317	22683
854.451	22744
854.585	22569
854.72	22394
854.854	22645
854.988	22440
855.122	22603
855.256	22413
855.39	22592
855.524	22637
855.658	22546
855.792	22478
855.926	22622
856.06	22653
856.194	22607
856.327	22538
856.461	22500
856.595	22428
856.729	22409
856.862	22664
856.996	22508
857.13	22691
857.263	22771
857.397	22615
857.53	22607
857.664	22493
857.797	22630
857.931	22675
858.064	22523
858.197	22611
858.331	22535
858.464	22440
858.597	22390
858.731	22630
858.864	22554
858.997	22596
859.13	22466
859.263	22493
859.396	22694
859.529	22611
859.662	22459
859.795	22523
859.928	22596
860.061	22725
860.194	22710
860.327	22542
860.46	22535
860.592	22630
860.725	22645
860.858	22828
860.99	22736
861.123	22550
861.256	22554
861.388	22588
861.521	23220
861.653	22421
861.786	22310
861.918	22303
862.05	22504
862.183	22519
862.315	22519
862.447	22592
862.58	22508
862.712	22314
862.844	22310
862.976	22333
863.108	22272
863.24	22622
863.372	22249
863.504	22318
863.636	22158
863.768	22246
863.9	22306
864.032	22253
864.164	22253
864.296	22204
864.428	22360
864.559	22265
864.691	22303
864.823	22238
864.954	22287
865.086	22158
865.217	22154
865.349	22010
865.48	22143
865.612	22185
865.743	22253
865.875	22082
866.006	22067
866.137	22021
866.269	22109
866.4	22230
866.531	22112
866.662	22086
866.793	22078
866.924	22070
867.055	22204
867.186	22040
867.317	21949
867.448	21998
867.579	22048
867.71	21998
867.841	21918
867.972	22181
868.103	22040
868.233	22116
868.364	22090
868.495	22139
868.625	22230
868.756	22341
868.886	22261
869.017	22257
869.147	22299
869.278	22447
869.408	22337
869.539	22318
869.669	22413
869.799	22398
869.929	22379
870.06	22470
870.19	22630
870.32	22523
870.45	22702
870.58	22641
870.71	22801
870.84	22816
870.97	22596
871.1	22721
871.23	22900
871.36	22805
871.489	22713
871.619	22946
871.749	22904
871.879	23060
872.008	23109
872.138	22889
872.267	22927
872.397	22752
872.526	22759
872.656	22706
872.785	22755
872.915	22809
873.044	22877
873.173	22896
873.303	22991
873.432	22987
873.561	23029
873.69	22987
873.819	22900
873.948	22949
874.077	22908
874.206	22980
874.335	22778
874.464	23083
874.593	23075
874.722	22938
874.851	23147
874.979	23258
875.108	23200
875.237	23075
875.365	22976
875.494	22991
875.623	23124
875.751	23060
875.88	23155
876.008	23318
876.136	23414
876.265	23501
876.393	23710
876.521	23501
876.65	23615
876.778	23471
876.906	23516
877.034	23551
877.162	23509
877.29	23383
877.418	23406
877.546	23528
877.674	23436
877.802	23551
877.93	23364
878.058	23467
878.185	23372
878.313	23471
878.441	23417
878.568	23254
878.696	23444
878.824	23547
878.951	23646
879.079	23748
879.206	23771
879.333	23634
879.461	23585
879.588	23482
879.715	23627
879.842	23684
879.97	23395
880.097	23258
880.224	23326
880.351	23174
880.478	23334
880.605	23395
880.732	23185
880.859	23570
880.986	23246
881.112	23368
881.239	23136
881.366	23117
881.493	22953
881.619	22755
881.746	22930
881.872	22949
881.999	22889
882.125	22736
882.252	22782
882.378	22797
882.505	22904
882.631	22721
882.757	22607
882.883	22744
883.01	22523
883.136	22577
883.262	22386
883.388	22234
883.514	22561
883.64	22561
883.766	22382
883.892	22287
884.018	22451
884.143	22447
884.269	22641
884.395	22287
884.52	22249
884.646	22131
884.772	22090
884.897	22116
885.023	22200
885.148	22261
885.274	22318
885.399	22215
885.524	22147
885.65	22086
885.775	22246
885.9	22082
886.025	22348
886.15	22158
886.275	22112
886.4	22078
886.525	22029
886.65	22082
886.775	22025
886.9	22295
887.025	22265
887.149	22097
887.274	21934
887.399	21964
887.523	21964
887.648	21911
887.773	21895
887.897	22006
888.021	21945
888.146	21842
888.27	21975
888.395	21987
888.519	21869
888.643	22029
888.767	21987
888.891	21838
889.015	21656
889.139	21816
889.263	21675
889.387	21705
889.511	21960
889.635	21755
889.759	21732
889.883	21663
890.006	21595
890.13	21739
890.254	21572
890.377	21675
890.501	21439
890.624	21488
890.748	21466
890.871	21367
890.995	21325
891.118	21184
891.241	21268
891.364	21416
891.488	21370
891.611	21283
891.734	21180
891.857	21340
891.98	21195
892.103	21127
892.226	21249
892.349	21218
892.471	21066
892.594	21184
892.717	21199
892.839	21176
892.962	21241
893.085	21199
893.207	21249
893.33	20998
893.452	21100
893.575	21154
893.697	21104
893.819	21222
893.941	21370
894.064	21249
894.186	21119
894.308	21058
894.43	21173
894.552	21325
894.674	21207
894.796	20990
894.918	21089
895.04	21169
895.161	21302
895.283	21112
895.405	21043
895.526	21291
895.648	21013
895.769	21127
895.891	21195
896.012	21157
896.134	21154
896.255	21077
896.376	20944
896.498	21081
896.619	21047
896.74	21119
896.861	21077
896.982	21389
897.103	21587
897.224	21454
897.345	21226
897.466	21306
897.587	21336
897.708	21496
897.828	21294
897.949	21340
898.07	21173
898.19	21195
898.311	21310
898.431	21226
898.552	21245
898.672	21355
898.792	21374
898.913	21389
899.033	21245
899.153	21233
899.273	20979
899.393	21077
899.513	21131
899.633	21047
899.753	21100
899.873	21047
899.993	20982
900.113	21036
900.232	21043
900.352	20849
900.472	20876
900.591	20655
900.711	20842
900.83	20826
900.95	20792
901.069	20914
901.189	20693
901.308	20476
901.427	20438
901.546	20286
901.665	20366
901.784	20374
901.904	20263
902.023	20126
902.141	19913
902.26	19970
902.379	20039
902.498	19875
902.617	19860
902.735	19898
902.854	19875
902.973	19791
903.091	19537
903.21	19647
903.328	19445
903.446	19441
903.565	19381
903.683	19335
903.801	19251
903.919	19282
904.038	19175
904.156	19053
904.274	19107
904.392	19027
904.51	18993
904.627	19076
904.745	19038
904.863	19129
904.981	18886
905.098	18821
905.216	18817
905.334	18787
905.451	18726
905.569	18787
905.686	18757
905.803	18875
905.921	18521
906.038	18627
906.155	18616
906.272	18464
906.389	18513
906.506	18289
906.623	18304
906.74	18220
906.857	18235
906.974	18285
907.091	18342
907.208	18426
907.324	18342
907.441	18201
907.557	18079
907.674	18007
907.79	17901
907.907	18015
908.023	18007
908.139	17954
908.256	17961
908.372	17882
908.488	17908
908.604	17745
908.72	17726
908.836	17840
908.952	17638
909.068	17691
909.184	17840
909.3	17649
909.415	17627
909.531	17752
909.647	17463
909.762	17471
909.878	17356
909.993	17433
910.108	17398
910.224	17364
910.339	17417
910.454	17231
910.57	17227
910.685	17242
910.8	17516
910.915	17292
911.03	17280
911.145	16972
911.259	16984
911.374	16999
911.489	16889
911.604	16805
911.718	16721
911.833	16767
911.947	16603
912.062	16516
912.176	16660
912.291	16725
912.405	16740
912.519	16881
912.633	16896
912.748	16805
912.862	16691
912.976	16500
913.09	16386
913.204	16569
913.318	16504
913.431	16637
913.545	16683
913.659	16634
913.772	16558
913.886	16417
914	16280
914.113	16424
914.226	16409
914.34	16405
914.453	16177
914.566	16299
914.68	16124
914.793	16166
914.906	15968
915.019	15930
915.132	15880
915.245	15861
915.358	15895
915.47	15892
915.583	15835
915.696	15949
915.809	16006
915.921	15983
916.034	15930
916.146	15808
916.259	15770
916.371	15876
916.483	15888
916.595	15709
916.708	15816
916.82	15720
916.932	15614
917.044	15576
917.156	15686
917.268	15507
917.38	15526
917.491	15530
917.603	15568
917.715	15564
917.826	15553
917.938	15561
918.049	15386
918.161	15416
918.272	15580
918.384	15553
918.495	15443
918.606	15351
918.717	15256
918.828	15279
918.939	15313
919.05	15184
919.161	15260
919.272	14975
919.383	15119
919.494	15207
919.604	15492
919.715	15336
919.826	15214
919.936	15256
920.047	15348
920.157	15291
920.267	15481
920.378	15313
920.488	15188
920.598	15443
920.708	15500
920.818	15256
920.928	15378
921.038	15447
921.148	15313
921.258	15169
921.368	15036
921.477	14937
921.587	14948
921.697	14769
921.806	14918
921.916	14887
922.025	14689
922.134	14682
922.244	14511
922.353	14667
922.462	14419
922.571	14381
922.68	14221
922.789	14218
922.898	14259
923.007	14195
923.116	14199
923.224	14221
923.333	14229
923.442	14031
923.55	14069
923.659	14111
923.767	14058
923.876	13982
923.984	14164
924.092	13955
924.201	14024
924.309	13974
924.417	13936
924.525	13871
924.633	13818
924.741	14678
924.849	13689
924.956	13830
925.064	13700
925.172	13601
925.279	13655
925.387	13723
925.494	13609
925.602	13700
925.709	13685
925.816	13556
925.924	13540
926.031	13616
926.138	13597
926.245	13597
926.352	13514
926.459	13643
926.566	13658
926.673	13476
926.779	13350
926.886	13381
926.993	13244
927.099	13118
927.206	13114
927.312	13095
927.419	13187
927.525	13091
927.631	13168
927.737	13065
927.843	12996
927.95	12954
928.056	13061
928.162	12989
928.267	13126
928.373	13529
928.479	13114
928.585	12776
928.69	12989
928.796	12947
928.901	12764
929.007	12700
929.112	12760
929.218	12833
929.323	12753
929.428	12627
929.533	12852
929.638	12509
929.743	12601
929.848	12684
929.953	12620
930.058	12471
930.163	12323
930.267	12311
930.372	12429
930.477	12224
930.581	12517
930.685	12342
930.79	12220
930.894	12216
930.998	12148
931.103	12330
931.207	11950
931.311	11874
931.415	11821
931.519	11532
931.623	11497
