Data from test_V78500241_891.txt Node
Date: Fri Mar 25 15:47:58 CST 2022
User: usil
Spectrometer: V785-0024
Trigger mode: 0
Integration Time (sec): 4.000000E-1
Scans to average: 1
Nonlinearity correction enabled: false
Boxcar width: 0
Storing dark spectrum: false
XAxis mode: Wavelengths
Number of Pixels in Spectrum: 1024
>>>>>Begin Spectral Data<<<<<
801.071	28443
801.214	28196
801.356	27972
801.499	27892
801.641	27778
801.783	27945
801.926	27911
802.068	27949
802.211	27812
802.353	27774
802.496	27545
802.638	27618
802.78	27580
802.923	27408
803.065	27504
803.208	27591
803.35	27549
803.492	27720
803.635	27629
803.777	27724
803.919	27743
804.061	28150
804.204	27876
804.346	27728
804.488	27561
804.63	27789
804.773	27682
804.915	27892
805.057	27975
805.199	27781
805.341	27835
805.483	28051
805.626	27854
805.768	27831
805.91	27964
806.052	27926
806.194	27968
806.336	28135
806.478	28051
806.62	27964
806.762	28097
806.904	28303
807.046	28367
807.188	28322
807.33	28436
807.472	28405
807.614	28284
807.756	28207
807.898	28341
808.04	28173
808.182	28238
808.324	28333
808.465	28226
808.607	28436
808.749	28626
808.891	28679
809.033	28713
809.174	28710
809.316	28698
809.458	28683
809.6	28500
809.741	28691
809.883	28904
810.025	28835
810.166	28968
810.308	28942
810.45	28858
810.591	28869
810.733	28557
810.875	28698
811.016	28554
811.158	28664
811.299	28805
811.441	28786
811.582	28949
811.724	28523
811.865	28672
812.007	28736
812.148	28679
812.29	28786
812.431	28831
812.573	28987
812.714	29117
812.855	29140
812.997	29155
813.138	29318
813.279	29273
813.421	29223
813.562	29098
813.703	29064
813.845	28934
813.986	28607
814.127	28356
814.268	28299
814.41	28470
814.551	28352
814.692	28459
814.833	28325
814.974	28440
815.115	28253
815.256	28242
815.397	28246
815.539	28356
815.68	28067
815.821	28147
815.962	28249
816.103	28040
816.244	28067
816.385	27960
816.526	27949
816.666	27831
816.807	27648
816.948	27781
817.089	27690
817.23	27732
817.371	27587
817.512	27625
817.653	27709
817.793	27663
817.934	27660
818.075	27800
818.216	27648
818.356	27603
818.497	27485
818.638	27291
818.778	27389
818.919	27519
819.06	27507
819.2	27568
819.341	27728
819.481	27709
819.622	27728
819.762	27960
819.903	27972
820.043	27846
820.184	27785
820.324	27793
820.465	27968
820.605	27800
820.746	27739
820.886	27576
821.026	27747
821.167	27698
821.307	27903
821.447	27827
821.588	27667
821.728	27545
821.868	27317
822.008	27211
822.149	27104
822.289	27108
822.429	26872
822.569	26785
822.709	26765
822.849	26712
822.99	26617
823.13	26537
823.27	26667
823.41	26503
823.55	26400
823.69	26537
823.83	26560
823.97	26503
824.11	26461
824.25	26301
824.389	26320
824.529	26415
824.669	26324
824.809	26446
824.949	26431
825.089	26393
825.228	26404
825.368	26103
825.508	26275
825.648	26195
825.787	26176
825.927	26248
826.067	26107
826.206	26256
826.346	26214
826.485	26336
826.625	26210
826.765	26259
826.904	26278
827.044	25822
827.183	25932
827.323	25883
827.462	26016
827.601	25947
827.741	25811
827.88	25966
828.02	25860
828.159	25898
828.298	25883
828.437	25913
828.577	25746
828.716	25951
828.855	25818
828.994	25651
829.134	25571
829.273	25670
829.412	25525
829.551	25582
829.69	25658
829.829	25575
829.968	25655
830.107	25624
830.246	25662
830.385	25495
830.524	25613
830.663	25487
830.802	25316
830.941	25247
831.08	25324
831.219	25392
831.357	25255
831.496	25491
831.635	25156
831.774	25164
831.913	25122
832.051	25118
832.19	24970
832.329	25148
832.467	24829
832.606	24886
832.744	25057
832.883	24905
833.022	24745
833.16	24981
833.299	24973
833.437	24913
833.576	25038
833.714	24992
833.852	24992
833.991	24863
834.129	25080
834.267	25095
834.406	25088
834.544	25046
834.682	24920
834.821	24996
834.959	25080
835.097	24992
835.235	25000
835.373	25038
835.511	24947
835.65	24821
835.788	24848
835.926	24722
836.064	24566
836.202	24741
836.34	24802
836.478	24920
836.615	24730
836.753	24837
836.891	24730
837.029	24806
837.167	24844
837.305	24673
837.443	24688
837.58	24620
837.718	24806
837.856	24601
837.993	24540
838.131	24631
838.269	24448
838.406	24566
838.544	24292
838.681	24350
838.819	24300
838.956	24194
839.094	24068
839.231	24060
839.369	24281
839.506	24483
839.643	24407
839.781	24155
839.918	24026
840.055	24064
840.193	24041
840.33	24007
840.467	24098
840.604	24117
840.742	24273
840.879	23786
841.016	23939
841.153	23965
841.29	24079
841.427	24018
841.564	23958
841.701	24079
841.838	23961
841.975	23916
842.112	23923
842.249	23821
842.385	23710
842.522	24003
842.659	23752
842.796	23668
842.933	23798
843.069	23581
843.206	23786
843.343	23729
843.479	23764
843.616	23714
843.752	23516
843.889	23573
844.025	23737
844.162	23459
844.298	23592
844.435	23463
844.571	23471
844.708	23474
844.844	23638
844.98	23551
845.117	23691
845.253	23391
845.389	23452
845.525	23497
845.661	23353
845.798	23315
845.934	23337
846.07	23231
846.206	23261
846.342	23414
846.478	23223
846.614	22949
846.75	23014
846.886	22889
847.022	23006
847.158	22984
847.294	22949
847.429	23022
847.565	22938
847.701	23303
847.837	22786
847.972	22729
848.108	22797
848.244	22763
848.379	22782
848.515	22584
848.65	22660
848.786	22550
848.921	22641
849.057	22634
849.192	22675
849.328	22679
849.463	22557
849.598	22550
849.734	22474
849.869	22348
850.004	22352
850.14	22462
850.275	22367
850.41	22375
850.545	22306
850.68	22162
850.815	22379
850.95	22371
851.085	22413
851.22	22352
851.355	22356
851.49	22226
851.625	22306
851.76	22238
851.895	22253
852.03	22287
852.165	22299
852.299	22459
852.434	22497
852.569	22367
852.703	22306
852.838	22485
852.973	22554
853.107	22352
853.242	22314
853.376	22162
853.511	22150
853.645	22147
853.78	22303
853.914	22230
854.048	22284
854.183	22200
854.317	22200
854.451	22382
854.585	22090
854.72	22097
854.854	22143
854.988	22128
855.122	22105
855.256	22147
855.39	22147
855.524	22284
855.658	22082
855.792	22097
855.926	22128
856.06	22105
856.194	22291
856.327	22078
856.461	22063
856.595	22097
856.729	22078
856.862	22272
856.996	22128
857.13	22109
857.263	22310
857.397	22093
857.53	22200
857.664	22215
857.797	22128
857.931	22207
858.064	22238
858.197	22257
858.331	22124
858.464	21991
858.597	22067
858.731	22143
858.864	22124
858.997	22120
859.13	22310
859.263	22150
859.396	22219
859.529	22120
859.662	22059
859.795	22116
859.928	22185
860.061	22291
860.194	22306
860.327	22234
860.46	22204
860.592	22181
860.725	22261
860.858	22249
860.99	22280
861.123	22036
861.256	22166
861.388	22181
861.521	22767
861.653	21888
861.786	21979
861.918	21930
862.05	22070
862.183	22097
862.315	21960
862.447	22204
862.58	22006
862.712	21797
862.844	21918
862.976	21968
863.108	21934
863.24	22276
863.372	21842
863.504	21778
863.636	21972
863.768	21907
863.9	21804
864.032	21835
864.164	21850
864.296	21793
864.428	22010
864.559	21895
864.691	22010
864.823	21835
864.954	21789
865.086	21865
865.217	21804
865.349	21717
865.48	21720
865.612	21743
865.743	21949
865.875	21842
866.006	21762
866.137	21739
866.269	21785
866.4	21717
866.531	21648
866.662	21671
866.793	21667
866.924	21663
867.055	21755
867.186	21755
867.317	21675
867.448	21603
867.579	21625
867.71	21606
867.841	21496
867.972	21759
868.103	21641
868.233	21675
868.364	21622
868.495	21823
868.625	21964
868.756	21983
868.886	21953
869.017	21819
869.147	21945
869.278	22078
869.408	21823
869.539	21937
869.669	21956
869.799	21850
869.929	22010
870.06	22112
870.19	22223
870.32	22112
870.45	22257
870.58	22276
870.71	22360
870.84	22386
870.97	22242
871.1	22268
871.23	22481
871.36	22489
871.489	22402
871.619	22470
871.749	22428
871.879	22535
872.008	22713
872.138	22489
872.267	22455
872.397	22390
872.526	22455
872.656	22405
872.785	22230
872.915	22550
873.044	22607
873.173	22394
873.303	22596
873.432	22561
873.561	22793
873.69	22599
873.819	22474
873.948	22531
874.077	22588
874.206	22478
874.335	22459
874.464	22630
874.593	22694
874.722	22740
874.851	22892
874.979	22763
875.108	22797
875.237	22721
875.365	22683
875.494	22748
875.623	22740
875.751	22694
875.88	22740
876.008	22831
876.136	22938
876.265	23151
876.393	23296
876.521	23239
876.65	23140
876.778	23235
876.906	23117
877.034	23037
877.162	23117
877.29	22999
877.418	23037
877.546	23071
877.674	23140
877.802	23071
877.93	23166
878.058	23014
878.185	22889
878.313	23044
878.441	23067
878.568	22911
878.696	23170
878.824	23102
878.951	23136
879.079	23353
879.206	23391
879.333	23193
879.461	23242
879.588	23193
879.715	23254
879.842	23391
879.97	23029
880.097	22900
880.224	22930
880.351	23018
880.478	22904
880.605	22713
880.732	22942
880.859	23075
880.986	22873
881.112	22927
881.239	22725
881.366	22675
881.493	22691
881.619	22523
881.746	22500
881.872	22417
881.999	22329
882.125	22356
882.252	22394
882.378	22424
882.505	22478
882.631	22417
882.757	22131
882.883	22371
883.01	22234
883.136	22013
883.262	21945
883.388	22036
883.514	22223
883.64	22116
883.766	21899
883.892	21922
884.018	21857
884.143	21949
884.269	22192
884.395	21842
884.52	21812
884.646	21964
884.772	21751
884.897	21766
885.023	21838
885.148	21926
885.274	21884
885.399	21827
885.524	21663
885.65	21846
885.775	21679
885.9	21717
886.025	21979
886.15	21842
886.275	21686
886.4	21770
886.525	21709
886.65	21808
886.775	21720
886.9	21918
887.025	21907
887.149	21766
887.274	21728
887.399	21561
887.523	21557
887.648	21382
887.773	21447
887.897	21610
888.021	21614
888.146	21485
888.27	21701
888.395	21652
888.519	21622
888.643	21603
888.767	21641
888.891	21412
889.015	21325
889.139	21359
889.263	21408
889.387	21458
889.511	21545
889.635	21420
889.759	21469
889.883	21298
890.006	21226
890.13	21595
890.254	21195
890.377	21272
890.501	20986
890.624	21051
890.748	21135
890.871	20921
890.995	20883
891.118	20857
891.241	20861
891.364	20864
891.488	20998
891.611	20826
891.734	20876
891.857	21001
891.98	20842
892.103	20880
892.226	20918
892.349	20758
892.471	20861
892.594	20838
892.717	20929
892.839	20819
892.962	20773
893.085	20845
893.207	20830
893.33	20758
893.452	20613
893.575	20777
893.697	20705
893.819	20906
893.941	20941
894.064	20864
894.186	20712
894.308	20682
894.43	20891
894.552	20952
894.674	20838
894.796	20629
894.918	20724
895.04	20845
895.161	20826
895.283	20785
895.405	20716
895.526	20674
895.648	20804
895.769	20838
895.891	20823
896.012	20864
896.134	20785
896.255	20769
896.376	20720
896.498	20781
896.619	20811
896.74	20716
896.861	20823
896.982	21123
897.103	21245
897.224	21116
897.345	20902
897.466	20849
897.587	20944
897.708	21074
897.828	21096
897.949	20880
898.07	20769
898.19	20914
898.311	21020
898.431	20876
898.552	20960
898.672	21085
898.792	21138
898.913	21001
899.033	20815
899.153	20857
899.273	20636
899.393	20739
899.513	20720
899.633	20674
899.753	20819
899.873	20590
899.993	20655
900.113	20701
900.232	20678
900.352	20492
900.472	20526
900.591	20396
900.711	20552
900.83	20358
900.95	20511
901.069	20583
901.189	20320
901.308	20050
901.427	20058
901.546	20050
901.665	20081
901.784	20077
901.904	19955
902.023	19769
902.141	19616
902.26	19586
902.379	19662
902.498	19628
902.617	19468
902.735	19643
902.854	19590
902.973	19411
903.091	19232
903.21	19168
903.328	19240
903.446	19133
903.565	19034
903.683	19023
903.801	18821
903.919	19023
904.038	19008
904.156	18802
904.274	18768
904.392	18848
904.51	18688
904.627	18791
904.745	18829
904.863	18757
904.981	18578
905.098	18471
905.216	18521
905.334	18532
905.451	18448
905.569	18334
905.686	18395
905.803	18521
905.921	18224
906.038	18445
906.155	18209
906.272	18239
906.389	18095
906.506	18011
906.623	17961
906.74	17927
906.857	17798
906.974	17950
907.091	18057
907.208	18152
907.324	18041
907.441	17805
907.557	17722
907.674	17619
907.79	17486
907.907	17767
908.023	17737
908.139	17600
908.256	17699
908.372	17551
908.488	17638
908.604	17421
908.72	17387
908.836	17360
908.952	17303
909.068	17334
909.184	17528
909.3	17562
909.415	17425
909.531	17288
909.647	17162
909.762	17109
909.878	17166
909.993	17102
910.108	17033
910.224	16995
910.339	17132
910.454	16984
910.57	16938
910.685	16835
910.8	17098
910.915	17033
911.03	16892
911.145	16725
911.259	16767
911.374	16641
911.489	16596
911.604	16546
911.718	16481
911.833	16443
911.947	16363
912.062	16211
912.176	16478
912.291	16466
912.405	16527
912.519	16656
912.633	16599
912.748	16447
912.862	16428
912.976	16261
913.09	16101
913.204	16120
913.318	16363
913.431	16295
913.545	16310
913.659	16440
913.772	16169
913.886	16135
914	16055
914.113	16097
914.226	16143
914.34	16010
914.453	15949
914.566	16101
914.68	15941
914.793	15926
914.906	15599
915.019	15614
915.132	15625
915.245	15614
915.358	15713
915.47	15694
915.583	15686
915.696	15580
915.809	15705
915.921	15732
916.034	15587
916.146	15500
916.259	15496
916.371	15667
916.483	15591
916.595	15424
916.708	15412
916.82	15450
916.932	15382
917.044	15450
917.156	15428
917.268	15382
917.38	15211
917.491	15260
917.603	15283
917.715	15340
917.826	15241
917.938	15169
918.049	15058
918.161	15207
918.272	15325
918.384	15332
918.495	15127
918.606	15108
918.717	15005
918.828	15036
918.939	15017
919.05	14895
919.161	15005
919.272	14724
919.383	14876
919.494	15013
919.604	15138
919.715	15020
919.826	14899
919.936	14979
920.047	14994
920.157	14956
920.267	15062
920.378	15032
920.488	14876
920.598	15062
920.708	15374
920.818	15066
920.928	15135
921.038	15214
921.148	15230
921.258	14956
921.368	14693
921.477	14697
921.587	14644
921.697	14579
921.806	14773
921.916	14454
922.025	14423
922.134	14400
922.244	14252
922.353	14400
922.462	14187
922.571	14191
922.68	14065
922.789	13925
922.898	13974
923.007	13879
923.116	13993
923.224	13837
923.333	13894
923.442	13849
923.55	13826
923.659	13818
923.767	13811
923.876	13689
923.984	13723
924.092	13696
924.201	13731
924.309	13696
924.417	13693
924.525	13548
924.633	13696
924.741	14606
924.849	13468
924.956	13544
925.064	13422
925.172	13247
925.279	13388
925.387	13320
925.494	13301
925.602	13426
925.709	13468
925.816	13274
925.924	13228
926.031	13312
926.138	13320
926.245	13293
926.352	13164
926.459	13316
926.566	13331
926.673	13240
926.779	13149
926.886	13004
926.993	12962
927.099	12954
927.206	12996
927.312	12810
927.419	12981
927.525	12916
927.631	12897
927.737	12840
927.843	12734
927.95	12589
928.056	12688
928.162	12688
928.267	12825
928.373	13297
928.479	12738
928.585	12585
928.69	12642
928.796	12738
928.901	12544
929.007	12467
929.112	12627
929.218	12498
929.323	12361
929.428	12399
929.533	12612
929.638	12346
929.743	12334
929.848	12395
929.953	12437
930.058	12254
930.163	12167
930.267	12049
930.372	12182
930.477	12045
930.581	12289
930.685	12216
930.79	12019
930.894	12121
930.998	12060
931.103	12186
931.207	11790
931.311	11615
931.415	11585
931.519	11421
931.623	11376
