Data from test_V78500241_2022.txt Node
Date: Fri Mar 25 15:55:48 CST 2022
User: usil
Spectrometer: V785-0024
Trigger mode: 0
Integration Time (sec): 4.000000E-1
Scans to average: 1
Nonlinearity correction enabled: false
Boxcar width: 0
Storing dark spectrum: false
XAxis mode: Wavelengths
Number of Pixels in Spectrum: 1024
>>>>>Begin Spectral Data<<<<<
801.071	28363
801.214	28333
801.356	28105
801.499	28154
801.641	28055
801.783	28067
801.926	28063
802.068	28002
802.211	27895
802.353	27701
802.496	27709
802.638	27743
802.78	27641
802.923	27595
803.065	27507
803.208	27553
803.35	27713
803.492	27850
803.635	27994
803.777	27751
803.919	27854
804.061	28253
804.204	27975
804.346	27842
804.488	27717
804.63	27739
804.773	27759
804.915	27857
805.057	28105
805.199	27975
805.341	28002
805.483	28013
805.626	27949
805.768	28032
805.91	27983
806.052	28040
806.194	27857
806.336	28029
806.478	27998
806.62	27956
806.762	28166
806.904	28261
807.046	28421
807.188	28413
807.33	28440
807.472	28413
807.614	28535
807.756	28455
807.898	28238
808.04	28238
808.182	28303
808.324	28211
808.465	28360
808.607	28527
808.749	28653
808.891	28774
809.033	28809
809.174	28824
809.316	28660
809.458	28733
809.6	28694
809.741	28797
809.883	28828
810.025	29147
810.166	29014
810.308	29132
810.45	29025
810.591	28812
810.733	28584
810.875	28755
811.016	28656
811.158	28592
811.299	28767
811.441	28904
811.582	28888
811.724	28698
811.865	28615
812.007	28527
812.148	28675
812.29	28736
812.431	28858
812.573	29067
812.714	29181
812.855	29140
812.997	29421
813.138	29372
813.279	29227
813.421	29185
813.562	29212
813.703	28965
813.845	28873
813.986	28664
814.127	28596
814.268	28432
814.41	28436
814.551	28440
814.692	28611
814.833	28519
814.974	28291
815.115	28459
815.256	28211
815.397	28207
815.539	28318
815.68	28143
815.821	28139
815.962	28322
816.103	28303
816.244	28097
816.385	27968
816.526	27968
816.666	27751
816.807	27515
816.948	27778
817.089	27713
817.23	27515
817.371	27603
817.512	27717
817.653	27701
817.793	27652
817.934	27816
818.075	27671
818.216	27717
818.356	27717
818.497	27583
818.638	27302
818.778	27427
818.919	27435
819.06	27504
819.2	27603
819.341	27663
819.481	27682
819.622	27800
819.762	27979
819.903	27994
820.043	27884
820.184	27762
820.324	27789
820.465	27857
820.605	27671
820.746	27698
820.886	27603
821.026	27789
821.167	27759
821.307	27930
821.447	27660
821.588	27488
821.728	27564
821.868	27313
822.008	27119
822.149	27226
822.289	27093
822.429	27043
822.569	26937
822.709	26758
822.849	26705
822.99	26621
823.13	26720
823.27	26587
823.41	26438
823.55	26347
823.69	26431
823.83	26613
823.97	26549
824.11	26206
824.25	26400
824.389	26256
824.529	26320
824.669	26320
824.809	26453
824.949	26404
825.089	26450
825.228	26450
825.368	26145
825.508	26256
825.648	26115
825.787	26225
825.927	26298
826.067	26282
826.206	26126
826.346	26225
826.485	26244
826.625	26149
826.765	26290
826.904	26218
827.044	25868
827.183	25868
827.323	25879
827.462	26027
827.601	25959
827.741	25750
827.88	25921
828.02	25837
828.159	25913
828.298	25909
828.437	25845
828.577	25830
828.716	25769
828.855	25818
828.994	25597
829.134	25544
829.273	25700
829.412	25635
829.551	25594
829.69	25506
829.829	25605
829.968	25753
830.107	25616
830.246	25681
830.385	25514
830.524	25601
830.663	25343
830.802	25110
830.941	25190
831.08	25145
831.219	25202
831.357	25240
831.496	25365
831.635	25126
831.774	25091
831.913	25061
832.051	25076
832.19	24981
832.329	25023
832.467	24894
832.606	24760
832.744	24856
832.883	24875
833.022	24798
833.16	24894
833.299	24726
833.437	24837
833.576	24970
833.714	24837
833.852	24973
833.991	25091
834.129	25099
834.267	24951
834.406	24920
834.544	24890
834.682	24947
834.821	24856
834.959	25088
835.097	24821
835.235	24878
835.373	24810
835.511	24977
835.65	24810
835.788	24863
835.926	24574
836.064	24582
836.202	24525
836.34	24669
836.478	24875
836.615	24791
836.753	24749
836.891	24779
837.029	24684
837.167	24703
837.305	24646
837.443	24654
837.58	24563
837.718	24585
837.856	24547
837.993	24559
838.131	24616
838.269	24467
838.406	24418
838.544	24486
838.681	24220
838.819	24224
838.956	24038
839.094	23965
839.231	24148
839.369	24205
839.506	24479
839.643	24277
839.781	24060
839.918	24038
840.055	24026
840.193	24106
840.33	24022
840.467	23935
840.604	23965
840.742	24262
840.879	23927
841.016	23931
841.153	23813
841.29	24091
841.427	23847
841.564	23935
841.701	24053
841.838	23992
841.975	23866
842.112	23851
842.249	23794
842.385	23684
842.522	23752
842.659	23779
842.796	23691
842.933	23718
843.069	23684
843.206	23775
843.343	23745
843.479	23687
843.616	23558
843.752	23604
843.889	23478
844.025	23646
844.162	23520
844.298	23581
844.435	23566
844.571	23444
844.708	23535
844.844	23627
844.98	23604
845.117	23524
845.253	23402
845.389	23296
845.525	23273
845.661	23429
845.798	23296
845.934	23299
846.07	23189
846.206	23284
846.342	23261
846.478	23189
846.614	23044
846.75	22793
846.886	22923
847.022	22972
847.158	23037
847.294	22984
847.429	23048
847.565	22938
847.701	23178
847.837	22782
847.972	22584
848.108	22771
848.244	22713
848.379	22527
848.515	22489
848.65	22626
848.786	22508
848.921	22641
849.057	22618
849.192	22706
849.328	22508
849.463	22561
849.598	22466
849.734	22424
849.869	22398
850.004	22261
850.14	22508
850.275	22333
850.41	22181
850.545	22268
850.68	22268
850.815	22341
850.95	22223
851.085	22459
851.22	22344
851.355	22284
851.49	22261
851.625	22287
851.76	22428
851.895	22177
852.03	22280
852.165	22188
852.299	22284
852.434	22352
852.569	22314
852.703	22303
852.838	22356
852.973	22428
853.107	22310
853.242	22306
853.376	22128
853.511	21907
853.645	22051
853.78	22287
853.914	22242
854.048	22105
854.183	22112
854.317	22112
854.451	22234
854.585	22128
854.72	22040
854.854	22246
854.988	22021
855.122	22116
855.256	22025
855.39	22021
855.524	22158
855.658	22055
855.792	22067
855.926	22249
856.06	22128
856.194	22173
856.327	22192
856.461	22173
856.595	21968
856.729	22143
856.862	22291
856.996	22097
857.13	22124
857.263	22310
857.397	22173
857.53	22040
857.664	22109
857.797	22253
857.931	22192
858.064	22147
858.197	22306
858.331	22150
858.464	22036
858.597	22109
858.731	22101
858.864	22074
858.997	22040
859.13	22063
859.263	22181
859.396	22303
859.529	22040
859.662	22093
859.795	22051
859.928	22185
860.061	22299
860.194	22253
860.327	22196
860.46	22268
860.592	22253
860.725	22310
860.858	22207
860.99	22158
861.123	22074
861.256	22078
861.388	22025
861.521	22812
861.653	22048
861.786	21819
861.918	21960
862.05	21968
862.183	22055
862.315	21972
862.447	22093
862.58	21956
862.712	21762
862.844	21781
862.976	21899
863.108	21869
863.24	22295
863.372	21751
863.504	21869
863.636	21804
863.768	21979
863.9	21743
864.032	21823
864.164	21713
864.296	21774
864.428	21930
864.559	21998
864.691	21964
864.823	21880
864.954	21804
865.086	21895
865.217	21800
865.349	21526
865.48	21778
865.612	21728
865.743	21827
865.875	21724
866.006	21637
866.137	21663
866.269	21637
866.4	21690
866.531	21637
866.662	21648
866.793	21660
866.924	21568
867.055	21633
867.186	21675
867.317	21633
867.448	21515
867.579	21682
867.71	21618
867.841	21580
867.972	21656
868.103	21568
868.233	21629
868.364	21545
868.495	21751
868.625	21888
868.756	21945
868.886	21819
869.017	21964
869.147	21918
869.278	21903
869.408	21895
869.539	21884
869.669	21869
869.799	21903
869.929	21968
870.06	22025
870.19	22181
870.32	22150
870.45	22169
870.58	22257
870.71	22379
870.84	22257
870.97	22322
871.1	22284
871.23	22417
871.36	22390
871.489	22424
871.619	22348
871.749	22459
871.879	22413
872.008	22584
872.138	22398
872.267	22599
872.397	22276
872.526	22181
872.656	22139
872.785	22284
872.915	22394
873.044	22649
873.173	22436
873.303	22474
873.432	22519
873.561	22649
873.69	22550
873.819	22577
873.948	22694
874.077	22561
874.206	22535
874.335	22527
874.464	22717
874.593	22710
874.722	22668
874.851	22824
874.979	22694
875.108	22873
875.237	22675
875.365	22717
875.494	22713
875.623	22805
875.751	22721
875.88	22778
876.008	22862
876.136	22938
876.265	23185
876.393	23318
876.521	22961
876.65	23132
876.778	23117
876.906	23022
877.034	22980
877.162	23079
877.29	23041
877.418	22957
877.546	23052
877.674	23010
877.802	23025
877.93	22987
878.058	23052
878.185	22965
878.313	23022
878.441	23075
878.568	22953
878.696	23003
878.824	23041
878.951	23060
879.079	23170
879.206	23376
879.333	23155
879.461	23121
879.588	23128
879.715	23212
879.842	23265
879.97	23086
880.097	22828
880.224	22984
880.351	22896
880.478	22839
880.605	22892
880.732	22797
880.859	23132
880.986	22900
881.112	22904
881.239	22740
881.366	22691
881.493	22421
881.619	22356
881.746	22519
881.872	22474
881.999	22447
882.125	22348
882.252	22500
882.378	22394
882.505	22504
882.631	22268
882.757	22219
882.883	22166
883.01	22116
883.136	21987
883.262	21991
883.388	21956
883.514	22063
883.64	22181
883.766	22116
883.892	21937
884.018	21911
884.143	22078
884.269	22234
884.395	21956
884.52	21709
884.646	21793
884.772	21675
884.897	21667
885.023	21770
885.148	21728
885.274	21865
885.399	21831
885.524	21755
885.65	21789
885.775	21717
885.9	21705
886.025	21911
886.15	21903
886.275	21656
886.4	21637
886.525	21652
886.65	21709
886.775	21682
886.9	21778
887.025	21994
887.149	21705
887.274	21606
887.399	21447
887.523	21545
887.648	21583
887.773	21378
887.897	21507
888.021	21591
888.146	21443
888.27	21690
888.395	21595
888.519	21519
888.643	21622
888.767	21553
888.891	21454
889.015	21348
889.139	21279
889.263	21294
889.387	21412
889.511	21431
889.635	21447
889.759	21252
889.883	21275
890.006	21241
890.13	21363
890.254	21203
890.377	21249
890.501	21085
890.624	21074
890.748	21062
890.871	21047
890.995	20762
891.118	20887
891.241	20941
891.364	20876
891.488	20921
891.611	20925
891.734	20868
891.857	20937
891.98	20857
892.103	20975
892.226	20804
892.349	20773
892.471	20678
892.594	20785
892.717	20796
892.839	20667
892.962	20659
893.085	20754
893.207	20765
893.33	20632
893.452	20686
893.575	20864
893.697	20716
893.819	20746
893.941	20994
894.064	20994
894.186	20845
894.308	20674
894.43	20754
894.552	20906
894.674	20815
894.796	20689
894.918	20785
895.04	20682
895.161	20800
895.283	20811
895.405	20796
895.526	20811
895.648	20689
895.769	20792
895.891	20769
896.012	20811
896.134	20849
896.255	20800
896.376	20727
896.498	20743
896.619	20815
896.74	20807
896.861	20921
896.982	21058
897.103	21192
897.224	21013
897.345	20986
897.466	20921
897.587	21024
897.708	21123
897.828	21028
897.949	20921
898.07	20842
898.19	20777
898.311	21055
898.431	20849
898.552	20921
898.672	21039
898.792	21005
898.913	20967
899.033	20925
899.153	20777
899.273	20609
899.393	20781
899.513	20739
899.633	20750
899.753	20651
899.873	20609
899.993	20701
900.113	20667
900.232	20701
900.352	20590
900.472	20598
900.591	20499
900.711	20454
900.83	20389
900.95	20602
901.069	20541
901.189	20290
901.308	20107
901.427	20005
901.546	20054
901.665	20077
901.784	19875
901.904	19837
902.023	19841
902.141	19567
902.26	19521
902.379	19624
902.498	19510
902.617	19582
902.735	19655
902.854	19544
902.973	19457
903.091	19228
903.21	19160
903.328	19129
903.446	19179
903.565	19145
903.683	18985
903.801	18840
903.919	18996
904.038	18939
904.156	18867
904.274	18806
904.392	18745
904.51	18738
904.627	18730
904.745	18795
904.863	18882
904.981	18528
905.098	18437
905.216	18452
905.334	18445
905.451	18346
905.569	18441
905.686	18456
905.803	18464
905.921	18209
906.038	18315
906.155	18243
906.272	18121
906.389	18053
906.506	17931
906.623	17984
906.74	17965
906.857	18003
906.974	17942
907.091	18019
907.208	18114
907.324	17954
907.441	17927
907.557	17661
907.674	17737
907.79	17630
907.907	17649
908.023	17809
908.139	17672
908.256	17532
908.372	17649
908.488	17581
908.604	17330
908.72	17258
908.836	17459
908.952	17356
909.068	17395
909.184	17356
909.3	17444
909.415	17478
909.531	17322
909.647	17193
909.762	17151
909.878	17109
909.993	17159
910.108	16991
910.224	17136
910.339	17079
910.454	16862
910.57	16927
910.685	16755
910.8	17075
910.915	17025
911.03	16831
911.145	16797
911.259	16656
911.374	16630
911.489	16584
911.604	16478
911.718	16459
911.833	16382
911.947	16356
912.062	16249
912.176	16447
912.291	16512
912.405	16409
912.519	16588
912.633	16626
912.748	16538
912.862	16280
912.976	16265
913.09	16181
913.204	16234
913.318	16246
913.431	16295
913.545	16299
913.659	16280
913.772	16238
913.886	16013
914	16048
914.113	16257
914.226	16150
914.34	16253
914.453	16025
914.566	16051
914.68	15861
914.793	15884
914.906	15698
915.019	15538
915.132	15561
915.245	15663
915.358	15675
915.47	15625
915.583	15637
915.696	15656
915.809	15644
915.921	15720
916.034	15428
916.146	15576
916.259	15424
916.371	15606
916.483	15587
916.595	15462
916.708	15538
916.82	15439
916.932	15466
917.044	15389
917.156	15272
917.268	15260
917.38	15245
917.491	15291
917.603	15279
917.715	15317
917.826	15298
917.938	15135
918.049	15150
918.161	15165
918.272	15241
918.384	15325
918.495	15237
918.606	15055
918.717	15005
918.828	15024
918.939	14994
919.05	14937
919.161	14994
919.272	14868
919.383	14800
919.494	15077
919.604	15116
919.715	15005
919.826	14849
919.936	14899
920.047	15017
920.157	14979
920.267	15180
920.378	14979
920.488	14952
920.598	15039
920.708	15184
920.818	15097
920.928	14975
921.038	15237
921.148	15180
921.258	14891
921.368	14826
921.477	14655
921.587	14640
921.697	14492
921.806	14708
921.916	14442
922.025	14370
922.134	14324
922.244	14301
922.353	14278
922.462	14142
922.571	14138
922.68	14012
922.789	13898
922.898	13902
923.007	13890
923.116	13993
923.224	13974
923.333	13951
923.442	13822
923.55	13723
923.659	13780
923.767	13852
923.876	13727
923.984	13738
924.092	13582
924.201	13643
924.309	13632
924.417	13731
924.525	13552
924.633	13647
924.741	14385
924.849	13400
924.956	13590
925.064	13415
925.172	13331
925.279	13316
925.387	13388
925.494	13312
925.602	13445
925.709	13270
925.816	13255
925.924	13244
926.031	13346
926.138	13278
926.245	13350
926.352	13164
926.459	13297
926.566	13480
926.673	13213
926.779	13118
926.886	13069
926.993	12905
927.099	12894
927.206	12787
927.312	12890
927.419	12897
927.525	12973
927.631	12905
927.737	12829
927.843	12768
927.95	12665
928.056	12722
928.162	12726
928.267	12722
928.373	13331
928.479	12681
928.585	12582
928.69	12681
928.796	12646
928.901	12540
929.007	12399
929.112	12597
929.218	12547
929.323	12384
929.428	12407
929.533	12471
929.638	12357
929.743	12407
929.848	12399
929.953	12353
930.058	12247
930.163	12064
930.267	12087
930.372	12281
930.477	12057
930.581	12266
930.685	12098
930.79	12041
930.894	11946
930.998	11851
931.103	12117
931.207	11688
931.311	11668
931.415	11547
931.519	11353
931.623	11341
