Data from test_V78500241_1211.txt Node
Date: Fri Mar 25 15:50:11 CST 2022
User: usil
Spectrometer: V785-0024
Trigger mode: 0
Integration Time (sec): 4.000000E-1
Scans to average: 1
Nonlinearity correction enabled: false
Boxcar width: 0
Storing dark spectrum: false
XAxis mode: Wavelengths
Number of Pixels in Spectrum: 1024
>>>>>Begin Spectral Data<<<<<
801.071	28736
801.214	28694
801.356	28394
801.499	28428
801.641	28417
801.783	28276
801.926	28379
802.068	28280
802.211	28147
802.353	28188
802.496	28063
802.638	27979
802.78	27979
802.923	27945
803.065	27869
803.208	27857
803.35	28032
803.492	28173
803.635	28223
803.777	28082
803.919	28238
804.061	28436
804.204	28253
804.346	28074
804.488	28109
804.63	28177
804.773	28059
804.915	28177
805.057	28306
805.199	28333
805.341	28303
805.483	28455
805.626	28417
805.768	28310
805.91	28325
806.052	28390
806.194	28265
806.336	28569
806.478	28481
806.62	28424
806.762	28523
806.904	28748
807.046	28946
807.188	28850
807.33	28812
807.472	28850
807.614	28805
807.756	28923
807.898	28710
808.04	28637
808.182	28641
808.324	28869
808.465	28752
808.607	28835
808.749	29010
808.891	29060
809.033	29216
809.174	29185
809.316	29033
809.458	29231
809.6	29128
809.741	29311
809.883	29204
810.025	29436
810.166	29307
810.308	29341
810.45	29360
810.591	29345
810.733	28949
810.875	29105
811.016	29018
811.158	28927
811.299	29132
811.441	29242
811.582	29193
811.724	29109
811.865	29178
812.007	29075
812.148	29090
812.29	29102
812.431	29311
812.573	29375
812.714	29490
812.855	29623
812.997	29817
813.138	29821
813.279	29741
813.421	29672
813.562	29474
813.703	29524
813.845	29254
813.986	29075
814.127	28892
814.268	28908
814.41	28854
814.551	28752
814.692	29022
814.833	28835
814.974	28687
815.115	28850
815.256	28660
815.397	28615
815.539	28725
815.68	28588
815.821	28485
815.962	28755
816.103	28725
816.244	28470
816.385	28379
816.526	28424
816.666	28223
816.807	28196
816.948	28249
817.089	28215
817.23	28215
817.371	28177
817.512	28093
817.653	28063
817.793	28093
817.934	28067
818.075	28223
818.216	28036
818.356	28032
818.497	28116
818.638	27907
818.778	27759
818.919	28013
819.06	27838
819.2	28040
819.341	28166
819.481	28166
819.622	28352
819.762	28523
819.903	28409
820.043	28329
820.184	28401
820.324	28253
820.465	28306
820.605	28386
820.746	28169
820.886	28070
821.026	28177
821.167	28211
821.307	28348
821.447	28112
821.588	28017
821.728	28006
821.868	27808
822.008	27644
822.149	27660
822.289	27644
822.429	27340
822.569	27298
822.709	27336
822.849	27058
822.99	27279
823.13	27047
823.27	27020
823.41	26906
823.55	26849
823.69	26998
823.83	27020
823.97	26788
824.11	26807
824.25	26640
824.389	26655
824.529	26895
824.669	26864
824.809	26902
824.949	26925
825.089	26804
825.228	26880
825.368	26640
825.508	26651
825.648	26682
825.787	26689
825.927	26754
826.067	26655
826.206	26621
826.346	26678
826.485	26720
826.625	26663
826.765	26788
826.904	26796
827.044	26514
827.183	26427
827.323	26393
827.462	26419
827.601	26571
827.741	26389
827.88	26404
828.02	26358
828.159	26465
828.298	26351
828.437	26480
828.577	26408
828.716	26438
828.855	26168
828.994	25925
829.134	26103
829.273	26012
829.412	25959
829.551	25921
829.69	25963
829.829	26176
829.968	26183
830.107	26195
830.246	26092
830.385	26020
830.524	25856
830.663	25902
830.802	25765
830.941	25746
831.08	25620
831.219	25788
831.357	25696
831.496	25772
831.635	25772
831.774	25529
831.913	25582
832.051	25487
832.19	25415
832.329	25658
832.467	25331
832.606	25236
832.744	25247
832.883	25331
833.022	25282
833.16	25327
833.299	25464
833.437	25457
833.576	25483
833.714	25441
833.852	25567
833.991	25384
834.129	25483
834.267	25422
834.406	25426
834.544	25392
834.682	25400
834.821	25434
834.959	25689
835.097	25339
835.235	25403
835.373	25430
835.511	25407
835.65	25308
835.788	25274
835.926	25057
836.064	25175
836.202	25034
836.34	25206
836.478	25297
836.615	25209
836.753	25164
836.891	25278
837.029	25362
837.167	25152
837.305	25107
837.443	25122
837.58	25000
837.718	25175
837.856	25107
837.993	24985
838.131	25027
838.269	25061
838.406	24943
838.544	24852
838.681	24661
838.819	24673
838.956	24471
839.094	24563
839.231	24479
839.369	24540
839.506	24958
839.643	24783
839.781	24620
839.918	24483
840.055	24433
840.193	24464
840.33	24414
840.467	24376
840.604	24471
840.742	24692
840.879	24296
841.016	24403
841.153	24292
841.29	24475
841.427	24395
841.564	24418
841.701	24365
841.838	24376
841.975	24228
842.112	24342
842.249	24285
842.385	24083
842.522	24357
842.659	24338
842.796	24205
842.933	24182
843.069	24091
843.206	24114
843.343	24361
843.479	24163
843.616	24102
843.752	23965
843.889	24007
844.025	24102
844.162	23908
844.298	24030
844.435	23965
844.571	23969
844.708	24057
844.844	24114
844.98	24057
845.117	24030
845.253	23885
845.389	23756
845.525	23703
845.661	23863
845.798	23684
845.934	23805
846.07	23745
846.206	23710
846.342	23847
846.478	23653
846.614	23528
846.75	23448
846.886	23330
847.022	23425
847.158	23452
847.294	23493
847.429	23467
847.565	23250
847.701	23714
847.837	23212
847.972	23193
848.108	23288
848.244	23227
848.379	22980
848.515	23044
848.65	22923
848.786	23121
848.921	23052
849.057	23037
849.192	22991
849.328	23075
849.463	22824
849.598	22965
849.734	22930
849.869	22881
850.004	22740
850.14	22839
850.275	22736
850.41	22694
850.545	22660
850.68	22744
850.815	22748
850.95	22839
851.085	23022
851.22	22957
851.355	22824
851.49	22809
851.625	22702
851.76	22824
851.895	22679
852.03	22687
852.165	22786
852.299	22763
852.434	22854
852.569	22759
852.703	22725
852.838	22850
852.973	22889
853.107	22847
853.242	22630
853.376	22736
853.511	22470
853.645	22546
853.78	22698
853.914	22561
854.048	22470
854.183	22577
854.317	22580
854.451	22675
854.585	22557
854.72	22462
854.854	22569
854.988	22462
855.122	22573
855.256	22535
855.39	22561
855.524	22687
855.658	22603
855.792	22626
855.926	22729
856.06	22645
856.194	22626
856.327	22615
856.461	22637
856.595	22596
856.729	22580
856.862	22664
856.996	22683
857.13	22561
857.263	22713
857.397	22618
857.53	22630
857.664	22603
857.797	22550
857.931	22713
858.064	22527
858.197	22683
858.331	22538
858.464	22531
858.597	22588
858.731	22542
858.864	22569
858.997	22527
859.13	22622
859.263	22797
859.396	22687
859.529	22538
859.662	22622
859.795	22519
859.928	22641
860.061	22729
860.194	22767
860.327	22656
860.46	22580
860.592	22835
860.725	22717
860.858	22649
860.99	22493
861.123	22421
861.256	22481
861.388	22630
861.521	23307
861.653	22413
861.786	22413
861.918	22421
862.05	22459
862.183	22542
862.315	22519
862.447	22519
862.58	22645
862.712	22344
862.844	22257
862.976	22398
863.108	22363
863.24	22668
863.372	22185
863.504	22261
863.636	22223
863.768	22360
863.9	22295
864.032	22242
864.164	22295
864.296	22306
864.428	22459
864.559	22322
864.691	22329
864.823	22329
864.954	22306
865.086	22287
865.217	22219
865.349	21998
865.48	22333
865.612	22135
865.743	22242
865.875	22150
866.006	22093
866.137	22249
866.269	22196
866.4	22143
866.531	22090
866.662	22086
866.793	22158
866.924	22067
867.055	22120
867.186	22074
867.317	21998
867.448	22048
867.579	21987
867.71	22082
867.841	21949
867.972	22082
868.103	22074
868.233	22032
868.364	22086
868.495	22230
868.625	22246
868.756	22436
868.886	22158
869.017	22329
869.147	22367
869.278	22459
869.408	22329
869.539	22352
869.669	22474
869.799	22413
869.929	22325
870.06	22504
870.19	22706
870.32	22664
870.45	22691
870.58	22782
870.71	22892
870.84	22866
870.97	22767
871.1	22771
871.23	22946
871.36	22881
871.489	22801
871.619	22896
871.749	22968
871.879	23006
872.008	22991
872.138	22972
872.267	22923
872.397	22885
872.526	22740
872.656	22740
872.785	22748
872.915	22866
873.044	23006
873.173	23029
873.303	22911
873.432	22953
873.561	23033
873.69	22877
873.819	22972
873.948	23166
874.077	22942
874.206	22904
874.335	22946
874.464	22980
874.593	23086
874.722	23041
874.851	23166
874.979	23147
875.108	23231
875.237	23105
875.365	23056
875.494	23033
875.623	23231
875.751	22942
875.88	23197
876.008	23178
876.136	23280
876.265	23630
876.393	23558
876.521	23630
876.65	23471
876.778	23615
876.906	23558
877.034	23474
877.162	23436
877.29	23444
877.418	23665
877.546	23512
877.674	23387
877.802	23551
877.93	23551
878.058	23368
878.185	23410
878.313	23406
878.441	23490
878.568	23261
878.696	23387
878.824	23459
878.951	23604
879.079	23699
879.206	23874
879.333	23585
879.461	23554
879.588	23577
879.715	23668
879.842	23756
879.97	23516
880.097	23273
880.224	23387
880.351	23307
880.478	23360
880.605	23315
880.732	23349
880.859	23414
880.986	23311
881.112	23364
881.239	23170
881.366	23048
881.493	23037
881.619	22835
881.746	22847
881.872	22885
881.999	22831
882.125	22733
882.252	22839
882.378	22866
882.505	22881
882.631	22668
882.757	22538
882.883	22706
883.01	22588
883.136	22519
883.262	22428
883.388	22352
883.514	22565
883.64	22615
883.766	22508
883.892	22333
884.018	22363
884.143	22432
884.269	22459
884.395	22230
884.52	22093
884.646	22295
884.772	22181
884.897	22006
885.023	22169
885.148	22181
885.274	22375
885.399	22207
885.524	22177
885.65	22154
885.775	22158
885.9	22048
886.025	22238
886.15	22265
886.275	22025
886.4	22017
886.525	22131
886.65	22166
886.775	22010
886.9	22299
887.025	22185
887.149	22207
887.274	21960
887.399	21945
887.523	21899
887.648	21838
887.773	21759
887.897	22006
888.021	21922
888.146	21895
888.27	21945
888.395	21972
888.519	22010
888.643	21983
888.767	21994
888.891	21823
889.015	21720
889.139	21667
889.263	21690
889.387	21797
889.511	21876
889.635	21808
889.759	21614
889.883	21610
890.006	21781
890.13	21720
890.254	21545
890.377	21549
890.501	21488
890.624	21355
890.748	21443
890.871	21332
890.995	21241
891.118	21268
891.241	21233
891.364	21230
891.488	21351
891.611	21214
891.734	21325
891.857	21287
891.98	21294
892.103	21302
892.226	21245
892.349	21062
892.471	21108
892.594	21169
892.717	21116
892.839	21119
892.962	21214
893.085	21245
893.207	21226
893.33	21077
893.452	21070
893.575	21230
893.697	21131
893.819	21275
893.941	21272
894.064	21272
894.186	21180
894.308	21020
894.43	21230
894.552	21294
894.674	21176
894.796	21020
894.918	21150
895.04	21047
895.161	21192
895.283	21169
895.405	21123
895.526	21195
895.648	21165
895.769	21188
895.891	21199
896.012	21279
896.134	21138
896.255	21074
896.376	21017
896.498	21085
896.619	21058
896.74	21142
896.861	21135
896.982	21526
897.103	21591
897.224	21412
897.345	21237
897.466	21298
897.587	21332
897.708	21416
897.828	21412
897.949	21363
898.07	21226
898.19	21211
898.311	21321
898.431	21135
898.552	21313
898.672	21374
898.792	21435
898.913	21237
899.033	21051
899.153	21077
899.273	21024
899.393	21135
899.513	21066
899.633	21119
899.753	20998
899.873	20979
899.993	21093
900.113	20998
900.232	21062
900.352	21009
900.472	20941
900.591	20678
900.711	20941
900.83	20826
900.95	20994
901.069	20918
901.189	20792
901.308	20396
901.427	20267
901.546	20355
901.665	20427
901.784	20434
901.904	20332
902.023	20088
902.141	19982
902.26	19963
902.379	20008
902.498	19845
902.617	19845
902.735	19871
902.854	19864
902.973	19887
903.091	19594
903.21	19597
903.328	19514
903.446	19415
903.565	19354
903.683	19373
903.801	19255
903.919	19362
904.038	19247
904.156	19183
904.274	19194
904.392	19031
904.51	19076
904.627	19015
904.745	19065
904.863	19103
904.981	19008
905.098	18764
905.216	18890
905.334	18779
905.451	18810
905.569	18772
905.686	18738
905.803	18779
905.921	18585
906.038	18673
906.155	18521
906.272	18315
906.389	18403
906.506	18235
906.623	18403
906.74	18357
906.857	18235
906.974	18171
907.091	18277
907.208	18509
907.324	18304
907.441	18121
907.557	17954
907.674	18045
907.79	17980
907.907	17969
908.023	18083
908.139	17984
908.256	17988
908.372	17889
908.488	17783
908.604	17707
908.72	17756
908.836	17699
908.952	17627
909.068	17703
909.184	17847
909.3	17714
909.415	17676
909.531	17703
909.647	17410
909.762	17433
909.878	17436
909.993	17520
910.108	17318
910.224	17341
910.339	17345
910.454	17292
910.57	17254
910.685	17086
910.8	17455
910.915	17315
911.03	17242
911.145	17094
911.259	16980
911.374	17064
911.489	16831
911.604	16892
911.718	16805
911.833	16828
911.947	16698
912.062	16580
912.176	16801
912.291	16797
912.405	16797
912.519	16927
912.633	16957
912.748	16774
912.862	16622
912.976	16459
913.09	16451
913.204	16478
913.318	16592
913.431	16645
913.545	16603
913.659	16504
913.772	16504
913.886	16306
914	16200
914.113	16405
914.226	16451
914.34	16325
914.453	16318
914.566	16325
914.68	16253
914.793	16154
914.906	16036
915.019	16002
915.132	15816
915.245	15926
915.358	15873
915.47	15945
915.583	15907
915.696	15869
915.809	16021
915.921	16097
916.034	15850
916.146	15747
916.259	15804
916.371	15915
916.483	15835
916.595	15774
916.708	15705
916.82	15781
916.932	15694
917.044	15720
917.156	15599
917.268	15610
917.38	15637
917.491	15599
917.603	15462
917.715	15568
917.826	15614
917.938	15500
918.049	15332
918.161	15469
918.272	15652
918.384	15557
918.495	15416
918.606	15256
918.717	15214
918.828	15188
918.939	15211
919.05	15089
919.161	15321
919.272	15032
919.383	15203
919.494	15317
919.604	15466
919.715	15245
919.826	15013
919.936	15176
920.047	15306
920.157	15241
920.267	15367
920.378	15237
920.488	15135
920.598	15374
920.708	15496
920.818	15355
920.928	15283
921.038	15538
921.148	15469
921.258	15176
921.368	15039
921.477	14895
921.587	14967
921.697	14895
921.806	15013
921.916	14765
922.025	14629
922.134	14526
922.244	14621
922.353	14583
922.462	14552
922.571	14370
922.68	14286
922.789	14180
922.898	14191
923.007	14115
923.116	14229
923.224	14206
923.333	14195
923.442	14031
923.55	14084
923.659	14062
923.767	14081
923.876	13921
923.984	14081
924.092	13944
924.201	14001
924.309	13864
924.417	13894
924.525	13807
924.633	13833
924.741	14632
924.849	13700
924.956	13807
925.064	13734
925.172	13544
925.279	13582
925.387	13620
925.494	13662
925.602	13655
925.709	13689
925.816	13540
925.924	13518
926.031	13525
926.138	13514
926.245	13540
926.352	13354
926.459	13582
926.566	13559
926.673	13491
926.779	13400
926.886	13358
926.993	13168
927.099	13110
927.206	13076
927.312	13126
927.419	13129
927.525	13122
927.631	13175
927.737	12947
927.843	12932
927.95	12821
928.056	12947
928.162	13023
928.267	12951
928.373	13601
928.479	13004
928.585	12821
928.69	12932
928.796	12867
928.901	12810
929.007	12623
929.112	12753
929.218	12779
929.323	12612
929.428	12662
929.533	12749
929.638	12612
929.743	12578
929.848	12627
929.953	12578
930.058	12540
930.163	12327
930.267	12296
930.372	12357
930.477	12296
930.581	12513
930.685	12372
930.79	12270
930.894	12167
930.998	12133
931.103	12357
931.207	11984
931.311	11863
931.415	11729
931.519	11581
931.623	11577
