Data from test_V78500241_336.txt Node
Date: Fri Mar 25 15:44:07 CST 2022
User: usil
Spectrometer: V785-0024
Trigger mode: 0
Integration Time (sec): 4.000000E-1
Scans to average: 1
Nonlinearity correction enabled: false
Boxcar width: 0
Storing dark spectrum: false
XAxis mode: Wavelengths
Number of Pixels in Spectrum: 1024
>>>>>Begin Spectral Data<<<<<
801.071	29798
801.214	29657
801.356	29653
801.499	29551
801.641	29280
801.783	29425
801.926	29391
802.068	29353
802.211	29330
802.353	29235
802.496	29189
802.638	29151
802.78	29014
802.923	29048
803.065	28961
803.208	29048
803.35	29124
803.492	29204
803.635	29303
803.777	29075
803.919	29269
804.061	29691
804.204	29258
804.346	29166
804.488	29242
804.63	29258
804.773	29147
804.915	29368
805.057	29486
805.199	29337
805.341	29482
805.483	29258
805.626	29334
805.768	29406
805.91	29505
806.052	29383
806.194	29315
806.336	29646
806.478	29429
806.62	29318
806.762	29551
806.904	29794
807.046	29901
807.188	29939
807.33	29786
807.472	29969
807.614	29737
807.756	29874
807.898	29608
808.04	29604
808.182	29676
808.324	29798
808.465	29745
808.607	29828
808.749	30018
808.891	30163
809.033	30136
809.174	30114
809.316	30049
809.458	30163
809.6	29954
809.741	30174
809.883	30102
810.025	30372
810.166	30346
810.308	30403
810.45	30334
810.591	30289
810.733	30041
810.875	30026
811.016	30015
811.158	29977
811.299	30186
811.441	30213
811.582	30330
811.724	30114
811.865	30064
812.007	30076
812.148	29893
812.29	30121
812.431	30083
812.573	30498
812.714	30460
812.855	30502
812.997	30711
813.138	30757
813.279	30772
813.421	30631
813.562	30490
813.703	30494
813.845	30178
813.986	30038
814.127	29737
814.268	29562
814.41	29794
814.551	29703
814.692	29703
814.833	29623
814.974	29592
815.115	29634
815.256	29585
815.397	29646
815.539	29528
815.68	29687
815.821	29459
815.962	29429
816.103	29482
816.244	29436
816.385	29216
816.526	29273
816.666	29151
816.807	29064
816.948	28991
817.089	29052
817.23	29029
817.371	28942
817.512	28873
817.653	28991
817.793	28820
817.934	28915
818.075	28934
818.216	28984
818.356	29033
818.497	28885
818.638	28656
818.778	28569
818.919	28847
819.06	28908
819.2	28710
819.341	29060
819.481	28816
819.622	29143
819.762	29318
819.903	29204
820.043	29155
820.184	29014
820.324	29067
820.465	29193
820.605	29090
820.746	28987
820.886	28927
821.026	28991
821.167	28919
821.307	29094
821.447	29109
821.588	28930
821.728	28694
821.868	28596
822.008	28394
822.149	28382
822.289	28382
822.429	28135
822.569	28070
822.709	28082
822.849	27808
822.99	27884
823.13	28002
823.27	27808
823.41	27622
823.55	27564
823.69	27492
823.83	27713
823.97	27557
824.11	27526
824.25	27416
824.389	27439
824.529	27504
824.669	27511
824.809	27701
824.949	27542
825.089	27652
825.228	27633
825.368	27389
825.508	27336
825.648	27408
825.787	27306
825.927	27447
826.067	27443
826.206	27237
826.346	27272
826.485	27291
826.625	27283
826.765	27363
826.904	27252
827.044	27195
827.183	27028
827.323	26880
827.462	27081
827.601	27036
827.741	26982
827.88	27005
828.02	27013
828.159	27001
828.298	27062
828.437	27024
828.577	26975
828.716	27020
828.855	26845
828.994	26735
829.134	26670
829.273	26602
829.412	26663
829.551	26632
829.69	26537
829.829	26746
829.968	26750
830.107	26842
830.246	26617
830.385	26617
830.524	26533
830.663	26381
830.802	26385
830.941	26229
831.08	26069
831.219	26317
831.357	26252
831.496	26461
831.635	26092
831.774	26107
831.913	26016
832.051	26145
832.19	25974
832.329	26039
832.467	25769
832.606	25982
832.744	25845
832.883	25921
833.022	25803
833.16	25997
833.299	25875
833.437	25864
833.576	25925
833.714	25993
833.852	26016
833.991	25879
834.129	26084
834.267	26100
834.406	25917
834.544	26043
834.682	25837
834.821	25841
834.959	26130
835.097	25974
835.235	25845
835.373	25864
835.511	25860
835.65	25883
835.788	25875
835.926	25651
836.064	25578
836.202	25514
836.34	25666
836.478	25890
836.615	25689
836.753	25913
836.891	25814
837.029	25666
837.167	25681
837.305	25674
837.443	25506
837.58	25441
837.718	25548
837.856	25658
837.993	25499
838.131	25514
838.269	25388
838.406	25400
838.544	25396
838.681	25156
838.819	25091
838.956	24970
839.094	25034
839.231	24962
839.369	25103
839.506	25430
839.643	25251
839.781	25034
839.918	24779
840.055	24837
840.193	24810
840.33	24833
840.467	24958
840.604	24913
840.742	25164
840.879	24639
841.016	24817
841.153	24650
841.29	24795
841.427	24711
841.564	24840
841.701	24738
841.838	24772
841.975	24639
842.112	24608
842.249	24696
842.385	24578
842.522	24760
842.659	24509
842.796	24536
842.933	24407
843.069	24437
843.206	24452
843.343	24578
843.479	24528
843.616	24551
843.752	24361
843.889	24372
844.025	24437
844.162	24194
844.298	24365
844.435	24239
844.571	24148
844.708	24213
844.844	24433
844.98	24464
845.117	24277
845.253	24155
845.389	24049
845.525	24076
845.661	24087
845.798	23931
845.934	24041
846.07	23946
846.206	23927
846.342	24152
846.478	24007
846.614	23836
846.75	23611
846.886	23783
847.022	23737
847.158	23718
847.294	23676
847.429	23805
847.565	23691
847.701	23920
847.837	23364
847.972	23410
848.108	23509
848.244	23417
848.379	23296
848.515	23379
848.65	23223
848.786	23258
848.921	23261
849.057	23345
849.192	23364
849.328	23307
849.463	23151
849.598	23349
849.734	23079
849.869	23231
850.004	23094
850.14	23014
850.275	22942
850.41	22904
850.545	22980
850.68	22957
850.815	23079
850.95	23033
851.085	23090
851.22	23113
851.355	22987
851.49	22965
851.625	23044
851.76	23022
851.895	22889
852.03	22980
852.165	22984
852.299	23025
852.434	23105
852.569	23014
852.703	22953
852.838	22946
852.973	23071
853.107	23113
853.242	22809
853.376	22672
853.511	22710
853.645	22744
853.78	22850
853.914	22881
854.048	22721
854.183	22717
854.317	22759
854.451	22934
854.585	22778
854.72	22801
854.854	22942
854.988	22873
855.122	22786
855.256	22618
855.39	22828
855.524	22820
855.658	22862
855.792	22797
855.926	22831
856.06	22790
856.194	22957
856.327	22812
856.461	22656
856.595	22710
856.729	22603
856.862	22771
856.996	22850
857.13	22854
857.263	22873
857.397	22877
857.53	22664
857.664	22847
857.797	22896
857.931	22885
858.064	22866
858.197	22843
858.331	22744
858.464	22596
858.597	22694
858.731	22565
858.864	22736
858.997	22668
859.13	22725
859.263	22752
859.396	22858
859.529	22717
859.662	22683
859.795	22683
859.928	22683
860.061	22847
860.194	22987
860.327	22828
860.46	22812
860.592	22759
860.725	22908
860.858	22850
860.99	22710
861.123	22691
861.256	22763
861.388	22725
861.521	23337
861.653	22611
861.786	22599
861.918	22611
862.05	22702
862.183	22748
862.315	22820
862.447	22748
862.58	22649
862.712	22645
862.844	22523
862.976	22565
863.108	22519
863.24	22774
863.372	22367
863.504	22356
863.636	22409
863.768	22493
863.9	22333
864.032	22295
864.164	22356
864.296	22417
864.428	22474
864.559	22557
864.691	22413
864.823	22325
864.954	22348
865.086	22356
865.217	22299
865.349	22265
865.48	22284
865.612	22291
865.743	22550
865.875	22413
866.006	22306
866.137	22348
866.269	22192
866.4	22249
866.531	22120
866.662	22135
866.793	22272
866.924	22188
867.055	22299
867.186	22268
867.317	22093
867.448	22162
867.579	22261
867.71	22215
867.841	22048
867.972	22329
868.103	22230
868.233	22253
868.364	22215
868.495	22371
868.625	22451
868.756	22599
868.886	22341
869.017	22474
869.147	22531
869.278	22535
869.408	22500
869.539	22443
869.669	22550
869.799	22527
869.929	22588
870.06	22645
870.19	22748
870.32	22717
870.45	22725
870.58	22862
870.71	22835
870.84	22995
870.97	22908
871.1	22835
871.23	23044
871.36	23010
871.489	22904
871.619	22949
871.749	22991
871.879	22999
872.008	23143
872.138	23124
872.267	23029
872.397	22999
872.526	22816
872.656	22915
872.785	22801
872.915	23136
873.044	23212
873.173	23018
873.303	23121
873.432	23151
873.561	23090
873.69	23109
873.819	23003
873.948	23124
874.077	23113
874.206	23064
874.335	23140
874.464	23162
874.593	23231
874.722	23181
874.851	23296
874.979	23311
875.108	23391
875.237	23303
875.365	23170
875.494	23140
875.623	23284
875.751	23269
875.88	23311
876.008	23398
876.136	23356
876.265	23657
876.393	23878
876.521	23752
876.65	23646
876.778	23672
876.906	23585
877.034	23680
877.162	23653
877.29	23585
877.418	23668
877.546	23547
877.674	23649
877.802	23608
877.93	23581
878.058	23707
878.185	23440
878.313	23524
878.441	23589
878.568	23535
878.696	23581
878.824	23676
878.951	23623
879.079	23840
879.206	24011
879.333	23824
879.461	23604
879.588	23760
879.715	23802
879.842	23840
879.97	23779
880.097	23353
880.224	23387
880.351	23554
880.478	23512
880.605	23356
880.732	23353
880.859	23691
880.986	23334
881.112	23417
881.239	23318
881.366	23189
881.493	23140
881.619	22976
881.746	22949
881.872	23033
881.999	23006
882.125	22965
882.252	22976
882.378	22934
882.505	23064
882.631	22847
882.757	22767
882.883	22729
883.01	22774
883.136	22641
883.262	22542
883.388	22474
883.514	22611
883.64	22733
883.766	22599
883.892	22447
884.018	22462
884.143	22637
884.269	22706
884.395	22398
884.52	22226
884.646	22322
884.772	22230
884.897	22143
885.023	22204
885.148	22333
885.274	22470
885.399	22508
885.524	22181
885.65	22280
885.775	22303
885.9	22360
886.025	22371
886.15	22497
886.275	22215
886.4	22158
886.525	22280
886.65	22246
886.775	22131
886.9	22299
887.025	22489
887.149	22234
887.274	22078
887.399	22040
887.523	21979
887.648	22082
887.773	21918
887.897	22082
888.021	22120
888.146	21979
888.27	22150
888.395	22109
888.519	22188
888.643	22021
888.767	22063
888.891	21918
889.015	21751
889.139	21922
889.263	21766
889.387	22021
889.511	21972
889.635	21987
889.759	21816
889.883	21755
890.006	21922
890.13	21884
890.254	21682
890.377	21747
890.501	21500
890.624	21458
890.748	21492
890.871	21462
890.995	21378
891.118	21294
891.241	21397
891.364	21466
891.488	21447
891.611	21325
891.734	21363
891.857	21378
891.98	21405
892.103	21363
892.226	21355
892.349	21325
892.471	21142
892.594	21211
892.717	21313
892.839	21298
892.962	21332
893.085	21211
893.207	21359
893.33	21138
893.452	21233
893.575	21355
893.697	21214
893.819	21416
893.941	21481
894.064	21397
894.186	21184
894.308	21184
894.43	21279
894.552	21424
894.674	21291
894.796	21135
894.918	21184
895.04	21119
895.161	21408
895.283	21230
895.405	21032
895.526	21180
895.648	21291
895.769	21180
895.891	21169
896.012	21256
896.134	21306
896.255	21157
896.376	21245
896.498	21268
896.619	21386
896.74	21264
896.861	21317
896.982	21534
897.103	21739
897.224	21511
897.345	21389
897.466	21507
897.587	21496
897.708	21481
897.828	21507
897.949	21325
898.07	21176
898.19	21492
898.311	21507
898.431	21519
898.552	21382
898.672	21443
898.792	21568
898.913	21458
899.033	21287
899.153	21161
899.273	21119
899.393	21199
899.513	21039
899.633	21009
899.753	21058
899.873	20994
899.993	21146
900.113	20971
900.232	21093
900.352	21020
900.472	20975
900.591	20883
900.711	20944
900.83	20883
900.95	21032
901.069	21039
901.189	20838
901.308	20587
901.427	20434
901.546	20537
901.665	20476
901.784	20461
901.904	20324
902.023	20286
902.141	20111
902.26	20058
902.379	20046
902.498	19928
902.617	19906
902.735	20008
902.854	19887
902.973	19890
903.091	19597
903.21	19609
903.328	19559
903.446	19533
903.565	19487
903.683	19388
903.801	19324
903.919	19365
904.038	19301
904.156	19240
904.274	19187
904.392	19053
904.51	19042
904.627	19221
904.745	19118
904.863	19164
904.981	18970
905.098	18913
905.216	18852
905.334	18897
905.451	18829
905.569	18783
905.686	18844
905.803	18932
905.921	18578
906.038	18696
906.155	18631
906.272	18456
906.389	18528
906.506	18323
906.623	18486
906.74	18292
906.857	18258
906.974	18205
907.091	18445
907.208	18418
907.324	18422
907.441	18178
907.557	18144
907.674	18019
907.79	17992
907.907	17965
908.023	18117
908.139	17954
908.256	17889
908.372	17935
908.488	17935
908.604	17779
908.72	17638
908.836	17771
908.952	17638
909.068	17798
909.184	17855
909.3	17668
909.415	17729
909.531	17741
909.647	17372
909.762	17360
909.878	17326
909.993	17414
910.108	17486
910.224	17364
910.339	17341
910.454	17250
910.57	17151
910.685	17159
910.8	17360
910.915	17349
911.03	17204
911.145	17037
911.259	16999
911.374	16927
911.489	16885
911.604	16778
911.718	16771
911.833	16767
911.947	16622
912.062	16558
912.176	16763
912.291	16713
912.405	16691
912.519	16866
912.633	16927
912.748	16691
912.862	16626
912.976	16516
913.09	16299
913.204	16489
913.318	16516
913.431	16607
913.545	16523
913.659	16675
913.772	16417
913.886	16356
914	16219
914.113	16382
914.226	16382
914.34	16325
914.453	16101
914.566	16192
914.68	16276
914.793	16128
914.906	15953
915.019	15865
915.132	15968
915.245	15857
915.358	15937
915.47	15827
915.583	15835
915.696	15892
915.809	15972
915.921	15994
916.034	15892
916.146	15812
916.259	15698
916.371	15835
916.483	15770
916.595	15789
916.708	15671
916.82	15686
916.932	15614
917.044	15648
917.156	15690
917.268	15595
917.38	15523
917.491	15485
917.603	15504
917.715	15618
917.826	15599
917.938	15492
918.049	15336
918.161	15450
918.272	15606
918.384	15458
918.495	15500
918.606	15283
918.717	15142
918.828	15268
918.939	15294
919.05	15226
919.161	15211
919.272	15020
919.383	15062
919.494	15317
919.604	15378
919.715	15161
919.826	15009
919.936	15146
920.047	15272
920.157	15180
920.267	15389
920.378	15184
920.488	15089
920.598	15336
920.708	15481
920.818	15325
920.928	15287
921.038	15534
921.148	15485
921.258	15230
921.368	15199
921.477	14880
921.587	14880
921.697	14746
921.806	14849
921.916	14716
922.025	14655
922.134	14476
922.244	14469
922.353	14564
922.462	14393
922.571	14339
922.68	14202
922.789	14130
922.898	14123
923.007	14058
923.116	14126
923.224	14225
923.333	14183
923.442	13940
923.55	13928
923.659	13974
923.767	14001
923.876	13868
923.984	13967
924.092	13795
924.201	13841
924.309	13959
924.417	13780
924.525	13803
924.633	13772
924.741	14556
924.849	13601
924.956	13765
925.064	13525
925.172	13487
925.279	13544
925.387	13609
925.494	13559
925.602	13700
925.709	13548
925.816	13400
925.924	13495
926.031	13563
926.138	13464
926.245	13544
926.352	13460
926.459	13495
926.566	13430
926.673	13400
926.779	13236
926.886	13259
926.993	13038
927.099	13088
927.206	13046
927.312	12970
927.419	13069
927.525	12996
927.631	13004
927.737	12951
927.843	12848
927.95	12810
928.056	12886
928.162	12852
928.267	12817
928.373	13518
928.479	13004
928.585	12692
928.69	12833
928.796	12753
928.901	12764
929.007	12654
929.112	12760
929.218	12616
929.323	12642
929.428	12601
929.533	12730
929.638	12589
929.743	12547
929.848	12490
929.953	12513
930.058	12365
930.163	12308
930.267	12235
930.372	12380
930.477	12163
930.581	12441
930.685	12346
930.79	12159
930.894	12251
930.998	12087
931.103	12330
931.207	11954
931.311	11824
931.415	11657
931.519	11448
931.623	11486
