Data from test_V78500241_1776.txt Node
Date: Fri Mar 25 15:54:06 CST 2022
User: usil
Spectrometer: V785-0024
Trigger mode: 0
Integration Time (sec): 4.000000E-1
Scans to average: 1
Nonlinearity correction enabled: false
Boxcar width: 0
Storing dark spectrum: false
XAxis mode: Wavelengths
Number of Pixels in Spectrum: 1024
>>>>>Begin Spectral Data<<<<<
801.071	28535
801.214	28592
801.356	28348
801.499	28158
801.641	28059
801.783	28204
801.926	28162
802.068	28101
802.211	28048
802.353	28044
802.496	27774
802.638	27873
802.78	27831
802.923	27762
803.065	27606
803.208	27637
803.35	27762
803.492	28082
803.635	27937
803.777	27781
803.919	27960
804.061	28303
804.204	28070
804.346	27960
804.488	27762
804.63	28017
804.773	27903
804.915	28055
805.057	28139
805.199	28097
805.341	28048
805.483	28002
805.626	28192
805.768	28128
805.91	28166
806.052	28226
806.194	28051
806.336	28303
806.478	28291
806.62	28181
806.762	28409
806.904	28466
807.046	28710
807.188	28523
807.33	28599
807.472	28618
807.614	28622
807.756	28577
807.898	28398
808.04	28440
808.182	28554
808.324	28584
808.465	28607
808.607	28786
808.749	28858
808.891	28968
809.033	29113
809.174	28919
809.316	28900
809.458	28843
809.6	28736
809.741	29010
809.883	29029
810.025	29117
810.166	29083
810.308	29132
810.45	29060
810.591	28919
810.733	28881
810.875	28805
811.016	28809
811.158	28729
811.299	29010
811.441	29041
811.582	28957
811.724	28820
811.865	28782
812.007	28740
812.148	28782
812.29	28995
812.431	28999
812.573	29166
812.714	29208
812.855	29486
812.997	29493
813.138	29531
813.279	29387
813.421	29455
813.562	29360
813.703	29197
813.845	29014
813.986	28911
814.127	28691
814.268	28554
814.41	28664
814.551	28573
814.692	28729
814.833	28538
814.974	28489
815.115	28531
815.256	28447
815.397	28371
815.539	28474
815.68	28455
815.821	28341
815.962	28451
816.103	28535
816.244	28150
816.385	28120
816.526	28219
816.666	27953
816.807	27804
816.948	27972
817.089	28059
817.23	27857
817.371	27907
817.512	28025
817.653	27903
817.793	27701
817.934	27785
818.075	27827
818.216	27953
818.356	27751
818.497	27835
818.638	27466
818.778	27675
818.919	27534
819.06	27701
819.2	27774
819.341	27827
819.481	27861
819.622	28002
819.762	28207
819.903	28215
820.043	27987
820.184	27930
820.324	27934
820.465	28173
820.605	28112
820.746	27979
820.886	27838
821.026	27835
821.167	27861
821.307	27953
821.447	27945
821.588	27854
821.728	27736
821.868	27481
822.008	27275
822.149	27405
822.289	27306
822.429	27081
822.569	27024
822.709	27108
822.849	26982
822.99	26845
823.13	26838
823.27	26963
823.41	26625
823.55	26602
823.69	26636
823.83	26743
823.97	26587
824.11	26450
824.25	26412
824.389	26507
824.529	26625
824.669	26415
824.809	26621
824.949	26526
825.089	26655
825.228	26492
825.368	26389
825.508	26263
825.648	26412
825.787	26434
825.927	26431
826.067	26374
826.206	26237
826.346	26495
826.485	26370
826.625	26438
826.765	26590
826.904	26256
827.044	26164
827.183	26221
827.323	25978
827.462	26134
827.601	26065
827.741	26050
827.88	26096
828.02	25986
828.159	26119
828.298	26168
828.437	26233
828.577	26020
828.716	26142
828.855	26035
828.994	25868
829.134	25879
829.273	25845
829.412	25628
829.551	25791
829.69	25719
829.829	25837
829.968	25868
830.107	25757
830.246	25837
830.385	25750
830.524	25693
830.663	25533
830.802	25483
830.941	25403
831.08	25324
831.219	25392
831.357	25445
831.496	25658
831.635	25327
831.774	25225
831.913	25312
832.051	25103
832.19	25259
832.329	25202
832.467	25126
832.606	24981
832.744	25019
832.883	25008
833.022	24947
833.16	25126
833.299	25110
833.437	25164
833.576	25278
833.714	25103
833.852	25168
833.991	25171
834.129	25209
834.267	25164
834.406	25209
834.544	25072
834.682	25228
834.821	25213
834.959	25244
835.097	25148
835.235	25129
835.373	25061
835.511	25084
835.65	24882
835.788	25065
835.926	24856
836.064	24779
836.202	24772
836.34	25000
836.478	25019
836.615	24916
836.753	24894
836.891	25004
837.029	25023
837.167	24897
837.305	24837
837.443	24757
837.58	24730
837.718	24825
837.856	24894
837.993	24711
838.131	24772
838.269	24601
838.406	24791
838.544	24669
838.681	24479
838.819	24346
838.956	24266
839.094	24148
839.231	24292
839.369	24388
839.506	24635
839.643	24509
839.781	24251
839.918	24235
840.055	24167
840.193	24091
840.33	24262
840.467	24178
840.604	24098
840.742	24471
840.879	24098
841.016	24079
841.153	24015
841.29	24197
841.427	24057
841.564	24091
841.701	24136
841.838	24007
841.975	24007
842.112	23942
842.249	23946
842.385	23832
842.522	24159
842.659	23893
842.796	23874
842.933	23954
843.069	23828
843.206	23843
843.343	23866
843.479	23893
843.616	23889
843.752	23665
843.889	23657
844.025	23805
844.162	23722
844.298	23741
844.435	23646
844.571	23630
844.708	23649
844.844	23775
844.98	23855
845.117	23794
845.253	23589
845.389	23516
845.525	23524
845.661	23512
845.798	23417
845.934	23433
846.07	23349
846.206	23448
846.342	23642
846.478	23421
846.614	23197
846.75	23102
846.886	23189
847.022	23174
847.158	23189
847.294	23136
847.429	23098
847.565	23075
847.701	23383
847.837	22835
847.972	22847
848.108	23003
848.244	22949
848.379	22793
848.515	22782
848.65	22755
848.786	22790
848.921	22672
849.057	22835
849.192	22820
849.328	22759
849.463	22755
849.598	22675
849.734	22637
849.869	22584
850.004	22489
850.14	22474
850.275	22314
850.41	22440
850.545	22325
850.68	22398
850.815	22500
850.95	22417
851.085	22637
851.22	22577
851.355	22440
851.49	22531
851.625	22443
851.76	22363
851.895	22432
852.03	22470
852.165	22447
852.299	22424
852.434	22618
852.569	22542
852.703	22413
852.838	22580
852.973	22607
853.107	22561
853.242	22322
853.376	22291
853.511	22226
853.645	22295
853.78	22459
853.914	22329
854.048	22215
854.183	22280
854.317	22348
854.451	22459
854.585	22440
854.72	22310
854.854	22310
854.988	22223
855.122	22234
855.256	22234
855.39	22230
855.524	22489
855.658	22310
855.792	22341
855.926	22223
856.06	22242
856.194	22253
856.327	22253
856.461	22246
856.595	22257
856.729	22363
856.862	22432
856.996	22348
857.13	22421
857.263	22394
857.397	22382
857.53	22348
857.664	22291
857.797	22451
857.931	22371
858.064	22322
858.197	22398
858.331	22219
858.464	22173
858.597	22166
858.731	22219
858.864	22265
858.997	22261
859.13	22242
859.263	22295
859.396	22382
859.529	22211
859.662	22211
859.795	22204
859.928	22443
860.061	22386
860.194	22512
860.327	22333
860.46	22367
860.592	22390
860.725	22424
860.858	22402
860.99	22234
861.123	22219
861.256	22200
861.388	22249
861.521	22972
861.653	22234
861.786	22040
861.918	22067
862.05	22204
862.183	22177
862.315	22188
862.447	22238
862.58	22025
862.712	21915
862.844	21842
862.976	21994
863.108	22090
863.24	22413
863.372	21915
863.504	21998
863.636	21918
863.768	22116
863.9	21994
864.032	21861
864.164	21934
864.296	22040
864.428	22166
864.559	22082
864.691	22124
864.823	21972
864.954	21918
865.086	21865
865.217	21926
865.349	21861
865.48	21850
865.612	21831
865.743	21888
865.875	21888
866.006	21903
866.137	21892
866.269	21865
866.4	21762
866.531	21884
866.662	21675
866.793	21876
866.924	21838
867.055	21926
867.186	21797
867.317	21717
867.448	21652
867.579	21800
867.71	21728
867.841	21610
867.972	21804
868.103	21835
868.233	21797
868.364	21774
868.495	21854
868.625	21987
868.756	22143
868.886	21903
869.017	22105
869.147	22051
869.278	22048
869.408	21998
869.539	22036
869.669	22139
869.799	22093
869.929	22143
870.06	22101
870.19	22436
870.32	22257
870.45	22219
870.58	22398
870.71	22637
870.84	22527
870.97	22379
871.1	22363
871.23	22607
871.36	22599
871.489	22497
871.619	22565
871.749	22694
871.879	22668
872.008	22790
872.138	22626
872.267	22656
872.397	22596
872.526	22561
872.656	22405
872.785	22493
872.915	22706
873.044	22858
873.173	22706
873.303	22656
873.432	22683
873.561	22740
873.69	22694
873.819	22664
873.948	22679
874.077	22660
874.206	22603
874.335	22710
874.464	22725
874.593	22885
874.722	22831
874.851	22984
874.979	22828
875.108	22968
875.237	22900
875.365	22854
875.494	22843
875.623	22843
875.751	22843
875.88	22847
876.008	22961
876.136	23064
876.265	23269
876.393	23368
876.521	23261
876.65	23395
876.778	23098
876.906	23296
877.034	23280
877.162	23113
877.29	23117
877.418	23254
877.546	23193
877.674	23307
877.802	23185
877.93	23155
878.058	23143
878.185	23105
878.313	23246
878.441	23242
878.568	23048
878.696	23121
878.824	23269
878.951	23288
879.079	23429
879.206	23376
879.333	23258
879.461	23349
879.588	23204
879.715	23216
879.842	23474
879.97	23265
880.097	23025
880.224	23098
880.351	23018
880.478	23151
880.605	23014
880.732	22930
880.859	23349
880.986	23056
881.112	23006
881.239	22999
881.366	22717
881.493	22790
881.619	22573
881.746	22580
881.872	22637
881.999	22569
882.125	22462
882.252	22687
882.378	22607
882.505	22736
882.631	22519
882.757	22303
882.883	22386
883.01	22261
883.136	22314
883.262	22223
883.388	22109
883.514	22242
883.64	22409
883.766	22215
883.892	22112
884.018	22036
884.143	22204
884.269	22196
884.395	22013
884.52	21888
884.646	21922
884.772	21728
884.897	21804
885.023	21838
885.148	21968
885.274	22029
885.399	22044
885.524	21880
885.65	21960
885.775	21964
885.9	21926
886.025	22173
886.15	22002
886.275	21941
886.4	21831
886.525	21865
886.65	21930
886.775	21755
886.9	21941
887.025	22124
887.149	21907
887.274	21690
887.399	21747
887.523	21595
887.648	21572
887.773	21485
887.897	21762
888.021	21713
888.146	21641
888.27	21701
888.395	21694
888.519	21701
888.643	21789
888.767	21686
888.891	21576
889.015	21485
889.139	21412
889.263	21454
889.387	21412
889.511	21762
889.635	21633
889.759	21466
889.883	21325
890.006	21256
890.13	21561
890.254	21458
890.377	21344
890.501	21306
890.624	21192
890.748	21199
890.871	21169
890.995	20975
891.118	20933
891.241	21066
891.364	21032
891.488	21104
891.611	21051
891.734	21005
891.857	21104
891.98	20937
892.103	21093
892.226	21036
892.349	20994
892.471	20838
892.594	20937
892.717	20979
892.839	20788
892.962	20937
893.085	21032
893.207	20819
893.33	20739
893.452	20807
893.575	21062
893.697	20967
893.819	20948
893.941	21070
894.064	21066
894.186	20864
894.308	20838
894.43	20918
894.552	21017
894.674	20967
894.796	20811
894.918	20979
895.04	20960
895.161	21020
895.283	20963
895.405	20937
895.526	20937
895.648	20773
895.769	20918
895.891	20956
896.012	20986
896.134	20994
896.255	20883
896.376	20906
896.498	20960
896.619	20887
896.74	20830
896.861	20914
896.982	21070
897.103	21298
897.224	21169
897.345	21173
897.466	21001
897.587	21093
897.708	21222
897.828	21131
897.949	20986
898.07	21047
898.19	21154
898.311	21157
898.431	21161
898.552	21096
898.672	21108
898.792	21249
898.913	21020
899.033	21032
899.153	20956
899.273	20746
899.393	20906
899.513	20994
899.633	20861
899.753	20838
899.873	20754
899.993	20826
900.113	20796
900.232	20929
900.352	20807
900.472	20632
900.591	20598
900.711	20629
900.83	20613
900.95	20765
901.069	20636
901.189	20446
901.308	20298
901.427	20164
901.546	20157
901.665	20168
901.784	20229
901.904	19982
902.023	19951
902.141	19864
902.26	19731
902.379	19757
902.498	19708
902.617	19715
902.735	19757
902.854	19605
902.973	19712
903.091	19445
903.21	19244
903.328	19350
903.446	19232
903.565	19141
903.683	19107
903.801	18943
903.919	19103
904.038	19129
904.156	18954
904.274	18951
904.392	18863
904.51	18894
904.627	18970
904.745	18932
904.863	18977
904.981	18604
905.098	18570
905.216	18642
905.334	18517
905.451	18661
905.569	18582
905.686	18589
905.803	18494
905.921	18292
906.038	18464
906.155	18353
906.272	18171
906.389	18308
906.506	18125
906.623	18186
906.74	18106
906.857	17893
906.974	17996
907.091	18144
907.208	18136
907.324	18121
907.441	18064
907.557	17836
907.674	17821
907.79	17733
907.907	17718
908.023	17870
908.139	17767
908.256	17691
908.372	17695
908.488	17668
908.604	17486
908.72	17516
908.836	17554
908.952	17604
909.068	17486
909.184	17653
909.3	17581
909.415	17653
909.531	17524
909.647	17280
909.762	17334
909.878	17189
909.993	17315
910.108	17162
910.224	17124
910.339	17090
910.454	17140
910.57	17079
910.685	16915
910.8	17147
910.915	17067
911.03	16968
911.145	16900
911.259	16767
911.374	16782
911.489	16736
911.604	16755
911.718	16455
911.833	16573
911.947	16474
912.062	16436
912.176	16675
912.291	16531
912.405	16558
912.519	16698
912.633	16797
912.748	16542
912.862	16527
912.976	16356
913.09	16325
913.204	16371
913.318	16303
913.431	16417
913.545	16451
913.659	16455
913.772	16337
913.886	16109
914	16200
914.113	16280
914.226	16344
914.34	16196
914.453	15998
914.566	16120
914.68	16021
914.793	15975
914.906	15778
915.019	15690
915.132	15671
915.245	15743
915.358	15686
915.47	15667
915.583	15717
915.696	15690
915.809	15873
915.921	15899
916.034	15629
916.146	15675
916.259	15549
916.371	15671
916.483	15660
916.595	15526
916.708	15477
916.82	15595
916.932	15412
917.044	15492
917.156	15397
917.268	15401
917.38	15321
917.491	15329
917.603	15481
917.715	15458
917.826	15469
917.938	15325
918.049	15184
918.161	15386
918.272	15386
918.384	15424
918.495	15230
918.606	15131
918.717	15108
918.828	15058
918.939	15112
919.05	15009
919.161	15135
919.272	14899
919.383	14834
919.494	15199
919.604	15249
919.715	15024
919.826	14944
919.936	15112
920.047	15154
920.157	15047
920.267	15131
920.378	14971
920.488	14963
920.598	15138
920.708	15332
920.818	15222
920.928	15116
921.038	15325
921.148	15298
921.258	15039
921.368	14887
921.477	14849
921.587	14651
921.697	14644
921.806	14925
921.916	14625
922.025	14415
922.134	14343
922.244	14305
922.353	14484
922.462	14221
922.571	14172
922.68	14176
922.789	14031
922.898	14024
923.007	14031
923.116	14008
923.224	14065
923.333	14077
923.442	13818
923.55	13879
923.659	13890
923.767	13822
923.876	13841
923.984	13776
924.092	13742
924.201	13788
924.309	13765
924.417	13803
924.525	13658
924.633	13662
924.741	14492
924.849	13567
924.956	13647
925.064	13434
925.172	13476
925.279	13331
925.387	13384
925.494	13491
925.602	13590
925.709	13521
925.816	13301
925.924	13438
926.031	13487
926.138	13358
926.245	13453
926.352	13308
926.459	13312
926.566	13373
926.673	13285
926.779	13225
926.886	13236
926.993	13031
927.099	12966
927.206	12966
927.312	12886
927.419	13050
927.525	13027
927.631	12993
927.737	12878
927.843	12905
927.95	12620
928.056	12848
928.162	12783
928.267	12840
928.373	13411
928.479	12871
928.585	12597
928.69	12768
928.796	12760
928.901	12741
929.007	12566
929.112	12700
929.218	12703
929.323	12582
929.428	12498
929.533	12639
929.638	12475
929.743	12498
929.848	12551
929.953	12441
930.058	12361
930.163	12106
930.267	12262
930.372	12338
930.477	12175
930.581	12467
930.685	12190
930.79	12102
930.894	12148
930.998	12045
931.103	12251
931.207	11813
931.311	11760
931.415	11600
931.519	11482
931.623	11402
