Data from test_V78500241_829.txt Node
Date: Fri Mar 25 15:47:32 CST 2022
User: usil
Spectrometer: V785-0024
Trigger mode: 0
Integration Time (sec): 4.000000E-1
Scans to average: 1
Nonlinearity correction enabled: false
Boxcar width: 0
Storing dark spectrum: false
XAxis mode: Wavelengths
Number of Pixels in Spectrum: 1024
>>>>>Begin Spectral Data<<<<<
801.071	27431
801.214	27310
801.356	27211
801.499	26971
801.641	26975
801.783	26895
801.926	26952
802.068	26906
802.211	26906
802.353	26773
802.496	26606
802.638	26526
802.78	26560
802.923	26419
803.065	26533
803.208	26556
803.35	26632
803.492	26648
803.635	26724
803.777	26598
803.919	26575
804.061	27100
804.204	26815
804.346	26564
804.488	26720
804.63	26815
804.773	26545
804.915	26845
805.057	27020
805.199	26621
805.341	26815
805.483	27058
805.626	26921
805.768	26655
805.91	26868
806.052	26849
806.194	26781
806.336	26986
806.478	26777
806.62	26781
806.762	27001
806.904	27089
807.046	27443
807.188	27325
807.33	27389
807.472	27427
807.614	27184
807.756	27321
807.898	27055
808.04	27150
808.182	27024
808.324	27169
808.465	27131
808.607	27355
808.749	27408
808.891	27538
809.033	27671
809.174	27534
809.316	27583
809.458	27443
809.6	27523
809.741	27629
809.883	27671
810.025	27762
810.166	27774
810.308	27667
810.45	27808
810.591	27724
810.733	27504
810.875	27420
811.016	27389
811.158	27408
811.299	27587
811.441	27682
811.582	27698
811.724	27644
811.865	27351
812.007	27557
812.148	27355
812.29	27515
812.431	27797
812.573	27831
812.714	27785
812.855	28124
812.997	28181
813.138	28112
813.279	28109
813.421	28109
813.562	28025
813.703	27850
813.845	27755
813.986	27359
814.127	27173
814.268	27085
814.41	27154
814.551	27131
814.692	27173
814.833	27020
814.974	27100
815.115	27123
815.256	26994
815.397	27074
815.539	27001
815.68	26899
815.821	26811
815.962	26994
816.103	26963
816.244	26849
816.385	26777
816.526	26773
816.666	26636
816.807	26385
816.948	26587
817.089	26457
817.23	26427
817.371	26404
817.512	26476
817.653	26446
817.793	26229
817.934	26461
818.075	26438
818.216	26598
818.356	26412
818.497	26309
818.638	26180
818.778	26142
818.919	26206
819.06	26233
819.2	26225
819.341	26400
819.481	26347
819.622	26552
819.762	26807
819.903	26716
820.043	26587
820.184	26537
820.324	26431
820.465	26560
820.605	26507
820.746	26625
820.886	26381
821.026	26522
821.167	26499
821.307	26606
821.447	26457
821.588	26381
821.728	26202
821.868	25963
822.008	25936
822.149	25811
822.289	25795
822.429	25670
822.569	25499
822.709	25586
822.849	25346
822.99	25430
823.13	25438
823.27	25377
823.41	25114
823.55	25072
823.69	25263
823.83	25194
823.97	25084
824.11	25004
824.25	24901
824.389	24992
824.529	25228
824.669	25038
824.809	25118
824.949	25095
825.089	25179
825.228	25114
825.368	24810
825.508	24905
825.648	24943
825.787	24901
825.927	24806
826.067	25000
826.206	24837
826.346	24954
826.485	24920
826.625	24821
826.765	24970
826.904	24901
827.044	24711
827.183	24578
827.323	24540
827.462	24661
827.601	24661
827.741	24658
827.88	24639
828.02	24433
828.159	24574
828.298	24646
828.437	24654
828.577	24509
828.716	24661
828.855	24517
828.994	24456
829.134	24350
829.273	24342
829.412	24296
829.551	24140
829.69	24422
829.829	24201
829.968	24353
830.107	24460
830.246	24277
830.385	24258
830.524	24376
830.663	24163
830.802	24022
830.941	23927
831.08	23809
831.219	23859
831.357	23984
831.496	24136
831.635	23882
831.774	23741
831.913	23714
832.051	23741
832.19	23657
832.329	23649
832.467	23623
832.606	23562
832.744	23615
832.883	23558
833.022	23524
833.16	23551
833.299	23592
833.437	23653
833.576	23668
833.714	23646
833.852	23737
833.991	23676
834.129	23608
834.267	23729
834.406	23665
834.544	23794
834.682	23680
834.821	23642
834.959	23847
835.097	23619
835.235	23676
835.373	23714
835.511	23611
835.65	23585
835.788	23467
835.926	23353
836.064	23402
836.202	23398
836.34	23459
836.478	23619
836.615	23467
836.753	23501
836.891	23554
837.029	23619
837.167	23581
837.305	23406
837.443	23326
837.58	23429
837.718	23235
837.856	23425
837.993	23212
838.131	23239
838.269	23170
838.406	23181
838.544	23181
838.681	22885
838.819	22976
838.956	22835
839.094	22687
839.231	22911
839.369	23022
839.506	23391
839.643	23052
839.781	22797
839.918	22664
840.055	22831
840.193	22675
840.33	22729
840.467	22733
840.604	22675
840.742	22995
840.879	22713
841.016	22691
841.153	22527
841.29	22854
841.427	22885
841.564	22835
841.701	22850
841.838	22649
841.975	22603
842.112	22569
842.249	22535
842.385	22440
842.522	22626
842.659	22622
842.796	22508
842.933	22504
843.069	22344
843.206	22504
843.343	22409
843.479	22447
843.616	22424
843.752	22223
843.889	22303
844.025	22421
844.162	22192
844.298	22432
844.435	22169
844.571	22177
844.708	22341
844.844	22371
844.98	22306
845.117	22394
845.253	22188
845.389	22139
845.525	22082
845.661	22124
845.798	22048
845.934	22051
846.07	21930
846.206	21953
846.342	22139
846.478	22029
846.614	21785
846.75	21538
846.886	21690
847.022	21884
847.158	21854
847.294	21698
847.429	21781
847.565	21713
847.701	21941
847.837	21431
847.972	21367
848.108	21534
848.244	21515
848.379	21428
848.515	21306
848.65	21401
848.786	21237
848.921	21283
849.057	21466
849.192	21294
849.328	21412
849.463	21336
849.598	21298
849.734	21237
849.869	21131
850.004	21055
850.14	21123
850.275	21161
850.41	21081
850.545	21077
850.68	21089
850.815	21146
850.95	21066
851.085	21340
851.22	21135
851.355	21043
851.49	21047
851.625	21001
851.76	21036
851.895	20941
852.03	20979
852.165	21131
852.299	21096
852.434	21123
852.569	21119
852.703	21066
852.838	21203
852.973	21112
853.107	21123
853.242	21112
853.376	20914
853.511	20876
853.645	20830
853.78	20918
853.914	20975
854.048	20842
854.183	21036
854.317	20975
854.451	21233
854.585	20933
854.72	20861
854.854	20918
854.988	20899
855.122	20921
855.256	20667
855.39	20963
855.524	21058
855.658	20910
855.792	20876
855.926	20929
856.06	20891
856.194	20998
856.327	20735
856.461	20971
856.595	20849
856.729	20834
856.862	21062
856.996	20876
857.13	20857
857.263	20918
857.397	20994
857.53	20895
857.664	21009
857.797	21020
857.931	21032
858.064	20914
858.197	21138
858.331	20861
858.464	20830
858.597	20785
858.731	20944
858.864	20929
858.997	20838
859.13	20807
859.263	20906
859.396	20975
859.529	20937
859.662	20796
859.795	20887
859.928	20975
860.061	21024
860.194	21089
860.327	20971
860.46	20834
860.592	20960
860.725	20944
860.858	21051
860.99	20708
861.123	20857
861.256	20830
861.388	20918
861.521	21557
861.653	20823
861.786	20667
861.918	20712
862.05	20777
862.183	20842
862.315	20804
862.447	20807
862.58	20842
862.712	20579
862.844	20663
862.976	20655
863.108	20670
863.24	21028
863.372	20541
863.504	20632
863.636	20594
863.768	20769
863.9	20590
864.032	20549
864.164	20507
864.296	20648
864.428	20705
864.559	20659
864.691	20705
864.823	20708
864.954	20609
865.086	20617
865.217	20568
865.349	20461
865.48	20488
865.612	20609
865.743	20686
865.875	20568
866.006	20438
866.137	20575
866.269	20503
866.4	20476
866.531	20480
866.662	20305
866.793	20427
866.924	20469
867.055	20415
867.186	20492
867.317	20442
867.448	20446
867.579	20461
867.71	20400
867.841	20438
867.972	20526
868.103	20461
868.233	20381
868.364	20438
868.495	20514
868.625	20648
868.756	20853
868.886	20636
869.017	20598
869.147	20724
869.278	20735
869.408	20712
869.539	20667
869.669	20864
869.799	20712
869.929	20842
870.06	20804
870.19	20914
870.32	20944
870.45	21074
870.58	20963
870.71	21252
870.84	21154
870.97	21165
871.1	21138
871.23	21184
871.36	21351
871.489	21218
871.619	21195
871.749	21260
871.879	21302
872.008	21348
872.138	21264
872.267	21313
872.397	21176
872.526	21032
872.656	21005
872.785	21062
872.915	21340
873.044	21401
873.173	21313
873.303	21393
873.432	21279
873.561	21405
873.69	21233
873.819	21306
873.948	21424
874.077	21382
874.206	21298
874.335	21306
874.464	21370
874.593	21603
874.722	21500
874.851	21599
874.979	21614
875.108	21724
875.237	21488
875.365	21450
875.494	21633
875.623	21545
875.751	21606
875.88	21641
876.008	21736
876.136	21759
876.265	21854
876.393	22055
876.521	21998
876.65	21926
876.778	21998
876.906	21975
877.034	21907
877.162	21918
877.29	21827
877.418	21998
877.546	21899
877.674	22051
877.802	21762
877.93	21930
878.058	21918
878.185	21781
878.313	21907
878.441	21888
878.568	21762
878.696	21869
878.824	21876
878.951	21987
879.079	22101
879.206	22158
879.333	22082
879.461	21941
879.588	22013
879.715	22166
879.842	22303
879.97	22070
880.097	21724
880.224	21694
880.351	21812
880.478	21705
880.605	21781
880.732	21637
880.859	22002
880.986	21827
881.112	21717
881.239	21663
881.366	21431
881.493	21294
881.619	21218
881.746	21188
881.872	21332
881.999	21336
882.125	21294
882.252	21264
882.378	21161
882.505	21504
882.631	21150
882.757	21047
882.883	21062
883.01	21100
883.136	21077
883.262	20883
883.388	20876
883.514	20986
883.64	21093
883.766	20902
883.892	20800
884.018	20830
884.143	21013
884.269	20986
884.395	20670
884.52	20621
884.646	20636
884.772	20686
884.897	20568
885.023	20629
885.148	20811
885.274	20693
885.399	20830
885.524	20625
885.65	20686
885.775	20731
885.9	20663
886.025	20796
886.15	20781
886.275	20689
886.4	20670
886.525	20625
886.65	20499
886.775	20545
886.9	20697
887.025	20876
887.149	20568
887.274	20484
887.399	20423
887.523	20568
887.648	20377
887.773	20374
887.897	20480
888.021	20541
888.146	20317
888.27	20442
888.395	20571
888.519	20415
888.643	20552
888.767	20511
888.891	20419
889.015	20301
889.139	20320
889.263	20199
889.387	20328
889.511	20400
889.635	20313
889.759	20294
889.883	20164
890.006	20168
890.13	20309
890.254	20202
890.377	20214
890.501	19986
890.624	20031
890.748	20016
890.871	19928
890.995	19791
891.118	19757
891.241	19898
891.364	19830
891.488	19898
891.611	19784
891.734	19833
891.857	19898
891.98	19830
892.103	19894
892.226	19769
892.349	19700
892.471	19643
892.594	19689
892.717	19890
892.839	19685
892.962	19723
893.085	19807
893.207	19681
893.33	19666
893.452	19590
893.575	19772
893.697	19681
893.819	19944
893.941	19860
894.064	19871
894.186	19681
894.308	19719
894.43	19795
894.552	19875
894.674	19791
894.796	19712
894.918	19731
895.04	19670
895.161	19814
895.283	19765
895.405	19575
895.526	19693
895.648	19788
895.769	19674
895.891	19788
896.012	19795
896.134	19864
896.255	19765
896.376	19700
896.498	19704
896.619	19871
896.74	19700
896.861	19605
896.982	19925
897.103	20320
897.224	19944
897.345	19944
897.466	20050
897.587	20020
897.708	20065
897.828	20008
897.949	19989
898.07	19928
898.19	19864
898.311	19955
898.431	19837
898.552	19925
898.672	20065
898.792	20084
898.913	19982
899.033	19845
899.153	19788
899.273	19632
899.393	19845
899.513	19864
899.633	19674
899.753	19769
899.873	19742
899.993	19738
900.113	19689
900.232	19685
900.352	19647
900.472	19518
900.591	19499
900.711	19487
900.83	19476
900.95	19480
901.069	19647
901.189	19430
901.308	19266
901.427	18951
901.546	19110
901.665	19221
901.784	19183
901.904	19046
902.023	18840
902.141	18730
902.26	18719
902.379	18692
902.498	18635
902.617	18506
902.735	18711
902.854	18593
902.973	18517
903.091	18388
903.21	18201
903.328	18334
903.446	18262
903.565	18007
903.683	18049
903.801	17931
903.919	18079
904.038	17969
904.156	17969
904.274	17988
904.392	17843
904.51	17809
904.627	17684
904.745	18007
904.863	17817
904.981	17649
905.098	17497
905.216	17581
905.334	17535
905.451	17600
905.569	17471
905.686	17554
905.803	17570
905.921	17307
906.038	17307
906.155	17353
906.272	17151
906.389	17368
906.506	17109
906.623	17083
906.74	17105
906.857	17067
906.974	16991
907.091	17147
907.208	17200
907.324	17102
907.441	17029
907.557	16900
907.674	16740
907.79	16675
907.907	16782
908.023	16896
908.139	16740
908.256	16763
908.372	16645
908.488	16656
908.604	16535
908.72	16519
908.836	16508
908.952	16531
909.068	16565
909.184	16603
909.3	16569
909.415	16599
909.531	16451
909.647	16272
909.762	16204
909.878	16139
909.993	16276
910.108	16105
910.224	16215
910.339	16268
910.454	16074
910.57	15994
910.685	15998
910.8	16192
910.915	16211
911.03	15983
911.145	15892
911.259	15876
911.374	15888
911.489	15800
911.604	15774
911.718	15545
911.833	15633
911.947	15443
912.062	15389
912.176	15610
912.291	15622
912.405	15618
912.519	15732
912.633	15808
912.748	15561
912.862	15603
912.976	15389
913.09	15268
913.204	15351
913.318	15306
913.431	15450
913.545	15492
913.659	15485
913.772	15355
913.886	15230
914	15157
914.113	15359
914.226	15325
914.34	15287
914.453	15119
914.566	15226
914.68	15218
914.793	15199
914.906	14986
915.019	14686
915.132	14716
915.245	14796
915.358	14880
915.47	14788
915.583	14807
915.696	14910
915.809	14937
915.921	14887
916.034	14712
916.146	14716
916.259	14735
916.371	14807
916.483	14686
916.595	14629
916.708	14667
916.82	14594
916.932	14670
917.044	14644
917.156	14552
917.268	14503
917.38	14488
917.491	14457
917.603	14438
917.715	14575
917.826	14568
917.938	14377
918.049	14396
918.161	14400
918.272	14568
918.384	14473
918.495	14358
918.606	14370
918.717	14263
918.828	14248
918.939	14271
919.05	14111
919.161	14301
919.272	14005
919.383	14043
919.494	14336
919.604	14499
919.715	14199
919.826	14088
919.936	14168
920.047	14275
920.157	14191
920.267	14434
920.378	14168
920.488	14191
920.598	14370
920.708	14552
920.818	14385
920.928	14389
921.038	14545
921.148	14533
921.258	14229
921.368	14134
921.477	13993
921.587	13970
921.697	13856
921.806	14043
921.916	13833
922.025	13700
922.134	13681
922.244	13586
922.353	13712
922.462	13449
922.571	13491
922.68	13274
922.789	13263
922.898	13263
923.007	13240
923.116	13282
923.224	13152
923.333	13255
923.442	13137
923.55	13141
923.659	13118
923.767	13247
923.876	13004
923.984	13164
924.092	12947
924.201	13004
924.309	12943
924.417	13099
924.525	12932
924.633	12909
924.741	13864
924.849	12810
924.956	12901
925.064	12635
925.172	12585
925.279	12650
925.387	12719
925.494	12696
925.602	12859
925.709	12719
925.816	12654
925.924	12521
926.031	12715
926.138	12627
926.245	12700
926.352	12551
926.459	12635
926.566	12692
926.673	12532
926.779	12403
926.886	12437
926.993	12403
927.099	12285
927.206	12224
927.312	12266
927.419	12190
927.525	12216
927.631	12338
927.737	12182
927.843	12038
927.95	11965
928.056	12049
928.162	12171
928.267	12095
928.373	12814
928.479	12205
928.585	11908
928.69	12053
928.796	12087
928.901	12003
929.007	11836
929.112	11923
929.218	11901
929.323	11821
929.428	11866
929.533	11878
929.638	11798
929.743	11764
929.848	11851
929.953	11832
930.058	11672
930.163	11592
930.267	11520
930.372	11714
930.477	11440
930.581	11695
930.685	11604
930.79	11387
930.894	11414
930.998	11398
931.103	11501
931.207	11170
931.311	11189
931.415	11022
931.519	10820
931.623	10729
