Data from test_V78500241_2482.txt Node
Date: Fri Mar 25 15:58:59 CST 2022
User: usil
Spectrometer: V785-0024
Trigger mode: 0
Integration Time (sec): 4.000000E-1
Scans to average: 1
Nonlinearity correction enabled: false
Boxcar width: 0
Storing dark spectrum: false
XAxis mode: Wavelengths
Number of Pixels in Spectrum: 1024
>>>>>Begin Spectral Data<<<<<
801.071	28192
801.214	28162
801.356	28059
801.499	27960
801.641	27941
801.783	27857
801.926	27854
802.068	27656
802.211	27724
802.353	27736
802.496	27504
802.638	27629
802.78	27580
802.923	27367
803.065	27466
803.208	27511
803.35	27625
803.492	27599
803.635	27679
803.777	27511
803.919	27614
804.061	28067
804.204	27751
804.346	27797
804.488	27580
804.63	27747
804.773	27667
804.915	27819
805.057	27911
805.199	27648
805.341	27755
805.483	27850
805.626	27789
805.768	27739
805.91	27785
806.052	27831
806.194	27831
806.336	27972
806.478	27899
806.62	27884
806.762	27937
806.904	27979
807.046	28367
807.188	28352
807.33	28242
807.472	28325
807.614	28348
807.756	28341
807.898	28226
808.04	28166
808.182	28139
808.324	28139
808.465	28249
808.607	28440
808.749	28428
808.891	28573
809.033	28721
809.174	28459
809.316	28698
809.458	28489
809.6	28443
809.741	28592
809.883	28717
810.025	28774
810.166	28793
810.308	28774
810.45	28854
810.591	28858
810.733	28580
810.875	28523
811.016	28363
811.158	28428
811.299	28588
811.441	28523
811.582	28592
811.724	28615
811.865	28386
812.007	28314
812.148	28615
812.29	28577
812.431	28675
812.573	28972
812.714	29132
812.855	29052
812.997	29052
813.138	29239
813.279	29128
813.421	29071
813.562	28946
813.703	28949
813.845	28755
813.986	28432
814.127	28447
814.268	28276
814.41	28265
814.551	28306
814.692	28322
814.833	28169
814.974	28173
815.115	28318
815.256	28070
815.397	28078
815.539	28192
815.68	28074
815.821	27869
815.962	28112
816.103	28036
816.244	27914
816.385	27926
816.526	27728
816.666	27728
816.807	27561
816.948	27530
817.089	27698
817.23	27595
817.371	27530
817.512	27469
817.653	27549
817.793	27526
817.934	27530
818.075	27549
818.216	27458
818.356	27534
818.497	27439
818.638	27351
818.778	27306
818.919	27230
819.06	27416
819.2	27386
819.341	27511
819.481	27507
819.622	27618
819.762	27778
819.903	27857
820.043	27694
820.184	27641
820.324	27747
820.465	27709
820.605	27759
820.746	27660
820.886	27568
821.026	27690
821.167	27500
821.307	27633
821.447	27564
821.588	27431
821.728	27310
821.868	27378
822.008	27096
822.149	27024
822.289	27043
822.429	26720
822.569	26648
822.709	26686
822.849	26446
822.99	26503
823.13	26579
823.27	26404
823.41	26324
823.55	26202
823.69	26263
823.83	26336
823.97	26320
824.11	26145
824.25	26138
824.389	26134
824.529	26233
824.669	26103
824.809	26187
824.949	26275
825.089	26237
825.228	26301
825.368	25932
825.508	26107
825.648	26081
825.787	26111
825.927	26092
826.067	25959
826.206	26069
826.346	26096
826.485	25989
826.625	26096
826.765	26202
826.904	26016
827.044	25940
827.183	25822
827.323	25784
827.462	25780
827.601	25723
827.741	25753
827.88	25742
828.02	25647
828.159	25685
828.298	25731
828.437	25708
828.577	25712
828.716	25807
828.855	25746
828.994	25430
829.134	25495
829.273	25556
829.412	25362
829.551	25392
829.69	25476
829.829	25392
829.968	25460
830.107	25518
830.246	25479
830.385	25324
830.524	25236
830.663	25168
830.802	25232
830.941	25008
831.08	24943
831.219	25129
831.357	25042
831.496	25362
831.635	24962
831.774	24992
831.913	24935
832.051	24806
832.19	24882
832.329	24798
832.467	24825
832.606	24722
832.744	24738
832.883	24779
833.022	24722
833.16	24681
833.299	24810
833.437	24646
833.576	24848
833.714	24810
833.852	24890
833.991	24688
834.129	24753
834.267	24814
834.406	24791
834.544	24783
834.682	24730
834.821	24760
834.959	24863
835.097	24798
835.235	24745
835.373	24795
835.511	24722
835.65	24559
835.788	24650
835.926	24445
836.064	24445
836.202	24441
836.34	24559
836.478	24627
836.615	24513
836.753	24517
836.891	24665
837.029	24802
837.167	24505
837.305	24479
837.443	24544
837.58	24426
837.718	24418
837.856	24407
837.993	24395
838.131	24475
838.269	24262
838.406	24292
838.544	24330
838.681	24041
838.819	24133
838.956	23927
839.094	23847
839.231	23996
839.369	24159
839.506	24346
839.643	24072
839.781	23958
839.918	23817
840.055	23969
840.193	23931
840.33	23832
840.467	23798
840.604	23851
840.742	24079
840.879	23661
841.016	23798
841.153	23676
841.29	23855
841.427	23722
841.564	23794
841.701	23882
841.838	23764
841.975	23775
842.112	23745
842.249	23592
842.385	23524
842.522	23737
842.659	23497
842.796	23608
842.933	23558
843.069	23436
843.206	23539
843.343	23668
843.479	23627
843.616	23646
843.752	23471
843.889	23391
844.025	23440
844.162	23147
844.298	23414
844.435	23273
844.571	23318
844.708	23337
844.844	23562
844.98	23463
845.117	23395
845.253	23250
845.389	23246
845.525	23216
845.661	23189
845.798	23178
845.934	23143
846.07	22968
846.206	23162
846.342	23094
846.478	22972
846.614	22869
846.75	22721
846.886	22782
847.022	22927
847.158	22972
847.294	22763
847.429	22694
847.565	22694
847.701	23033
847.837	22580
847.972	22462
848.108	22542
848.244	22580
848.379	22481
848.515	22432
848.65	22462
848.786	22363
848.921	22424
849.057	22481
849.192	22523
849.328	22367
849.463	22402
849.598	22310
849.734	22246
849.869	22135
850.004	22166
850.14	22177
850.275	22249
850.41	22120
850.545	22112
850.68	22166
850.815	22162
850.95	22249
851.085	22333
851.22	22253
851.355	22188
851.49	22147
851.625	22029
851.76	21987
851.895	22063
852.03	22067
852.165	22120
852.299	22154
852.434	22135
852.569	22139
852.703	22109
852.838	22169
852.973	22325
853.107	22299
853.242	22150
853.376	21987
853.511	21827
853.645	21911
853.78	22097
853.914	22032
854.048	21827
854.183	22017
854.317	21949
854.451	22196
854.585	21983
854.72	21854
854.854	21979
854.988	21945
855.122	22040
855.256	21835
855.39	22029
855.524	22044
855.658	21987
855.792	21930
855.926	22078
856.06	21937
856.194	22017
856.327	21983
856.461	21968
856.595	21922
856.729	21979
856.862	22093
856.996	21964
857.13	22021
857.263	22067
857.397	22044
857.53	21972
857.664	22013
857.797	22040
857.931	22131
858.064	22021
858.197	22116
858.331	22036
858.464	21926
858.597	21869
858.731	21911
858.864	21865
858.997	21918
859.13	21983
859.263	21994
859.396	22082
859.529	21922
859.662	21861
859.795	21884
859.928	21926
860.061	22162
860.194	22093
860.327	22086
860.46	21918
860.592	21991
860.725	22150
860.858	21918
860.99	21911
861.123	21903
861.256	21812
861.388	21892
861.521	22839
861.653	21873
861.786	21831
861.918	21850
862.05	21774
862.183	21953
862.315	21857
862.447	21873
862.58	21827
862.712	21850
862.844	21728
862.976	21778
863.108	21709
863.24	21903
863.372	21717
863.504	21644
863.636	21656
863.768	21660
863.9	21618
864.032	21568
864.164	21622
864.296	21770
864.428	21785
864.559	21743
864.691	21656
864.823	21625
864.954	21739
865.086	21637
865.217	21625
865.349	21477
865.48	21515
865.612	21644
865.743	21679
865.875	21622
866.006	21545
866.137	21629
866.269	21553
866.4	21477
866.531	21469
866.662	21572
866.793	21473
866.924	21492
867.055	21500
867.186	21420
867.317	21561
867.448	21325
867.579	21538
867.71	21435
867.841	21519
867.972	21488
868.103	21576
868.233	21447
868.364	21583
868.495	21530
868.625	21781
868.756	21800
868.886	21572
869.017	21739
869.147	21732
869.278	21816
869.408	21686
869.539	21652
869.669	21774
869.799	21736
869.929	21797
870.06	21854
870.19	22124
870.32	21949
870.45	22036
870.58	22017
870.71	22284
870.84	22344
870.97	22284
871.1	22226
871.23	22249
871.36	22409
871.489	22253
871.619	22344
871.749	22276
871.879	22272
872.008	22379
872.138	22405
872.267	22341
872.397	22154
872.526	22280
872.656	22238
872.785	22131
872.915	22356
873.044	22424
873.173	22455
873.303	22443
873.432	22417
873.561	22443
873.69	22306
873.819	22223
873.948	22462
874.077	22284
874.206	22310
874.335	22318
874.464	22474
874.593	22550
874.722	22523
874.851	22557
874.979	22634
875.108	22668
875.237	22519
875.365	22603
875.494	22584
875.623	22512
875.751	22538
875.88	22626
876.008	22752
876.136	22778
876.265	23041
876.393	23006
876.521	23022
876.65	23185
876.778	22965
876.906	22866
877.034	22904
877.162	22976
877.29	22771
877.418	22873
877.546	22915
877.674	22919
877.802	22904
877.93	22866
878.058	22862
878.185	22862
878.313	22904
878.441	22976
878.568	22778
878.696	22930
878.824	22965
878.951	23033
879.079	23128
879.206	23193
879.333	23067
879.461	22900
879.588	22984
879.715	23140
879.842	23136
879.97	22953
880.097	22744
880.224	22752
880.351	22824
880.478	22854
880.605	22675
880.732	22816
880.859	22957
880.986	22816
881.112	22767
881.239	22489
881.366	22497
881.493	22466
881.619	22284
881.746	22356
881.872	22386
881.999	22215
882.125	22238
882.252	22310
882.378	22211
882.505	22337
882.631	22223
882.757	22093
882.883	22112
883.01	21972
883.136	21994
883.262	21812
883.388	21789
883.514	22063
883.64	22044
883.766	21903
883.892	21709
884.018	21884
884.143	21945
884.269	22002
884.395	21743
884.52	21751
884.646	21610
884.772	21500
884.897	21660
885.023	21686
885.148	21694
885.274	21800
885.399	21842
885.524	21580
885.65	21622
885.775	21675
885.9	21572
886.025	21739
886.15	21682
886.275	21648
886.4	21500
886.525	21511
886.65	21530
886.775	21542
886.9	21728
887.025	21819
887.149	21572
887.274	21450
887.399	21389
887.523	21325
887.648	21477
887.773	21291
887.897	21401
888.021	21462
888.146	21214
888.27	21469
888.395	21450
888.519	21542
888.643	21302
888.767	21447
888.891	21351
889.015	21135
889.139	21245
889.263	21176
889.387	21195
889.511	21386
889.635	21298
889.759	21146
889.883	21108
890.006	21093
890.13	21230
890.254	21070
890.377	21150
890.501	20952
890.624	20864
890.748	21001
890.871	21001
890.995	20830
891.118	20549
891.241	20819
891.364	20800
891.488	20906
891.611	20807
891.734	20644
891.857	20895
891.98	20773
892.103	20682
892.226	20838
892.349	20670
892.471	20511
892.594	20686
892.717	20632
892.839	20663
892.962	20712
893.085	20701
893.207	20625
893.33	20511
893.452	20625
893.575	20773
893.697	20644
893.819	20735
893.941	20876
894.064	20853
894.186	20587
894.308	20560
894.43	20842
894.552	20731
894.674	20701
894.796	20606
894.918	20670
895.04	20556
895.161	20705
895.283	20731
895.405	20659
895.526	20609
895.648	20609
895.769	20708
895.891	20689
896.012	20777
896.134	20693
896.255	20609
896.376	20636
896.498	20594
896.619	20667
896.74	20568
896.861	20598
896.982	20971
897.103	21173
897.224	20796
897.345	20811
897.466	20686
897.587	20864
897.708	20975
897.828	20979
897.949	20777
898.07	20629
898.19	20769
898.311	20971
898.431	20880
898.552	20861
898.672	20941
898.792	20781
898.913	20804
899.033	20773
899.153	20625
899.273	20518
899.393	20495
899.513	20663
899.633	20530
899.753	20640
899.873	20564
899.993	20590
900.113	20575
900.232	20587
900.352	20503
900.472	20370
900.591	20305
900.711	20324
900.83	20343
900.95	20446
901.069	20560
901.189	20134
901.308	20069
901.427	19887
901.546	19982
901.665	19978
901.784	19906
901.904	19811
902.023	19681
902.141	19571
902.26	19502
902.379	19582
902.498	19537
902.617	19400
902.735	19567
902.854	19377
902.973	19331
903.091	19137
903.21	19091
903.328	19019
903.446	18977
903.565	19012
903.683	18814
903.801	18817
903.919	18932
904.038	18840
904.156	18681
904.274	18593
904.392	18631
904.51	18684
904.627	18623
904.745	18677
904.863	18726
904.981	18509
905.098	18365
905.216	18258
905.334	18372
905.451	18273
905.569	18311
905.686	18452
905.803	18338
905.921	18083
906.038	18205
906.155	18251
906.272	18034
906.389	18053
906.506	17927
906.623	17885
906.74	17866
906.857	17737
906.974	17832
907.091	17942
907.208	17961
907.324	17866
907.441	17805
907.557	17623
907.674	17596
907.79	17520
907.907	17573
908.023	17528
908.139	17691
908.256	17573
908.372	17474
908.488	17493
908.604	17227
908.72	17280
908.836	17337
908.952	17296
909.068	17311
909.184	17307
909.3	17242
909.415	17356
909.531	17318
909.647	17102
909.762	17045
909.878	17052
909.993	17052
910.108	17052
910.224	16957
910.339	17083
910.454	16869
910.57	16809
910.685	16774
910.8	16949
910.915	17060
911.03	16847
911.145	16588
911.259	16637
911.374	16622
911.489	16500
911.604	16546
911.718	16333
911.833	16333
911.947	16367
912.062	16207
912.176	16333
912.291	16386
912.405	16318
912.519	16538
912.633	16535
912.748	16284
912.862	16310
912.976	16166
913.09	16059
913.204	16093
913.318	16215
913.431	16230
913.545	16223
913.659	16223
913.772	16082
913.886	15945
914	15915
914.113	16044
914.226	15941
914.34	15960
914.453	15819
914.566	15991
914.68	15755
914.793	15732
914.906	15534
915.019	15553
915.132	15435
915.245	15584
915.358	15511
915.47	15515
915.583	15561
915.696	15492
915.809	15728
915.921	15652
916.034	15477
916.146	15408
916.259	15424
916.371	15553
916.483	15466
916.595	15313
916.708	15370
916.82	15313
916.932	15355
917.044	15294
917.156	15264
917.268	15123
917.38	15214
917.491	15283
917.603	15218
917.715	15294
917.826	15188
917.938	15195
918.049	15119
918.161	15184
918.272	15336
918.384	15294
918.495	15093
918.606	14952
918.717	14971
918.828	14921
918.939	14880
919.05	14910
919.161	14857
919.272	14750
919.383	14781
919.494	14933
919.604	15077
919.715	14929
919.826	14883
919.936	14933
920.047	14883
920.157	14823
920.267	14990
920.378	14880
920.488	14815
920.598	14967
920.708	15222
920.818	14914
920.928	15066
921.038	15154
921.148	15161
921.258	14857
921.368	14739
921.477	14648
921.587	14571
921.697	14579
921.806	14689
921.916	14488
922.025	14385
922.134	14298
922.244	14271
922.353	14298
922.462	14126
922.571	14062
922.68	13875
922.789	13845
922.898	13826
923.007	13868
923.116	14005
923.224	13951
923.333	13887
923.442	13818
923.55	13765
923.659	13696
923.767	13761
923.876	13746
923.984	13666
924.092	13643
924.201	13708
924.309	13693
924.417	13582
924.525	13689
924.633	13628
924.741	14313
924.849	13468
924.956	13491
925.064	13339
925.172	13251
925.279	13221
925.387	13324
925.494	13297
925.602	13403
925.709	13392
925.816	13164
925.924	13335
926.031	13251
926.138	13259
926.245	13171
926.352	13179
926.459	13278
926.566	13308
926.673	13076
926.779	13031
926.886	13034
926.993	12916
927.099	12863
927.206	12840
927.312	12806
927.419	12897
927.525	12840
927.631	12859
927.737	12654
927.843	12673
927.95	12486
928.056	12665
928.162	12662
928.267	12772
928.373	13339
928.479	12783
928.585	12528
928.69	12639
928.796	12711
928.901	12563
929.007	12350
929.112	12627
929.218	12589
929.323	12445
929.428	12407
929.533	12578
929.638	12300
929.743	12285
929.848	12319
929.953	12350
930.058	12201
930.163	12076
930.267	12117
930.372	12232
930.477	12102
930.581	12270
930.685	12110
930.79	11874
930.894	11992
930.998	11950
931.103	12026
931.207	11722
931.311	11566
931.415	11566
931.519	11303
931.623	11223
