Data from test_V78500241_75.txt Node
Date: Fri Mar 25 15:42:19 CST 2022
User: usil
Spectrometer: V785-0024
Trigger mode: 0
Integration Time (sec): 4.000000E-1
Scans to average: 1
Nonlinearity correction enabled: false
Boxcar width: 0
Storing dark spectrum: false
XAxis mode: Wavelengths
Number of Pixels in Spectrum: 1024
>>>>>Begin Spectral Data<<<<<
801.071	29927
801.214	29950
801.356	29699
801.499	29634
801.641	29505
801.783	29379
801.926	29383
802.068	29539
802.211	29383
802.353	29360
802.496	29170
802.638	29113
802.78	29124
802.923	29056
803.065	28930
803.208	28995
803.35	29113
803.492	29147
803.635	29330
803.777	29185
803.919	29288
804.061	29589
804.204	29200
804.346	29140
804.488	28991
804.63	29128
804.773	28953
804.915	29136
805.057	29117
805.199	29105
805.341	29250
805.483	29254
805.626	29375
805.768	29048
805.91	29235
806.052	29292
806.194	29330
806.336	29436
806.478	29387
806.62	29311
806.762	29375
806.904	29585
807.046	29840
807.188	29714
807.33	29748
807.472	29646
807.614	29672
807.756	29531
807.898	29455
808.04	29280
808.182	29356
808.324	29459
808.465	29604
808.607	29661
808.749	29748
808.891	29828
809.033	29931
809.174	29923
809.316	29783
809.458	29726
809.6	29771
809.741	29923
809.883	29874
810.025	29969
810.166	29999
810.308	30015
810.45	30060
810.591	29912
810.733	29813
810.875	29813
811.016	29707
811.158	29634
811.299	29961
811.441	29988
811.582	30011
811.724	29874
811.865	29733
812.007	29874
812.148	29710
812.29	29851
812.431	29939
812.573	30201
812.714	30129
812.855	30258
812.997	30311
813.138	30494
813.279	30338
813.421	30334
813.562	30243
813.703	30129
813.845	29878
813.986	29634
814.127	29581
814.268	29383
814.41	29364
814.551	29444
814.692	29429
814.833	29433
814.974	29299
815.115	29292
815.256	29166
815.397	29136
815.539	29208
815.68	29014
815.821	28965
815.962	29086
816.103	29109
816.244	29033
816.385	28782
816.526	28961
816.666	28645
816.807	28516
816.948	28577
817.089	28607
817.23	28561
817.371	28596
817.512	28436
817.653	28508
817.793	28455
817.934	28596
818.075	28424
818.216	28508
818.356	28417
818.497	28295
818.638	28200
818.778	28295
818.919	28173
819.06	28200
819.2	28329
819.341	28299
819.481	28455
819.622	28577
819.762	28691
819.903	28675
820.043	28569
820.184	28561
820.324	28489
820.465	28466
820.605	28512
820.746	28401
820.886	28325
821.026	28405
821.167	28318
821.307	28451
821.447	28306
821.588	28306
821.728	27998
821.868	27953
822.008	27800
822.149	27846
822.289	27850
822.429	27519
822.569	27431
822.709	27526
822.849	27302
822.99	27154
823.13	27252
823.27	27294
823.41	27047
823.55	26944
823.69	27116
823.83	27089
823.97	27001
824.11	26769
824.25	26834
824.389	26883
824.529	27032
824.669	26807
824.809	26963
824.949	26925
825.089	26792
825.228	26944
825.368	26731
825.508	26609
825.648	26712
825.787	26697
825.927	26746
826.067	26674
826.206	26564
826.346	26663
826.485	26769
826.625	26750
826.765	26606
826.904	26598
827.044	26545
827.183	26396
827.323	26229
827.462	26343
827.601	26309
827.741	26339
827.88	26389
828.02	26248
828.159	26225
828.298	26294
828.437	26263
828.577	26267
828.716	26442
828.855	26100
828.994	25951
829.134	26001
829.273	26069
829.412	26054
829.551	25978
829.69	25993
829.829	26069
829.968	26027
830.107	26039
830.246	26024
830.385	25909
830.524	25761
830.663	25833
830.802	25624
830.941	25453
831.08	25468
831.219	25674
831.357	25559
831.496	25746
831.635	25567
831.774	25422
831.913	25335
832.051	25312
832.19	25343
832.329	25145
832.467	25137
832.606	25213
832.744	25061
832.883	25099
833.022	25042
833.16	25023
833.299	25084
833.437	25164
833.576	25076
833.714	25171
833.852	25129
833.991	25129
834.129	25217
834.267	25095
834.406	25076
834.544	25148
834.682	25213
834.821	25000
834.959	25232
835.097	25080
835.235	25061
835.373	25129
835.511	25221
835.65	24882
835.788	24848
835.926	24829
836.064	24738
836.202	24757
836.34	24932
836.478	25023
836.615	24909
836.753	25038
836.891	25046
837.029	24909
837.167	24753
837.305	24795
837.443	24741
837.58	24536
837.718	24882
837.856	24791
837.993	24642
838.131	24673
838.269	24681
838.406	24612
838.544	24544
838.681	24311
838.819	24258
838.956	24140
839.094	24232
839.231	24171
839.369	24308
839.506	24563
839.643	24376
839.781	24232
839.918	24114
840.055	24038
840.193	24064
840.33	24072
840.467	24095
840.604	24110
840.742	24292
840.879	23965
841.016	23958
841.153	23935
841.29	24205
841.427	24003
841.564	24015
841.701	23916
841.838	23904
841.975	23695
842.112	23847
842.249	23798
842.385	23646
842.522	24041
842.659	23699
842.796	23630
842.933	23600
843.069	23509
843.206	23524
843.343	23653
843.479	23615
843.616	23684
843.752	23501
843.889	23509
844.025	23467
844.162	23505
844.298	23463
844.435	23261
844.571	23368
844.708	23417
844.844	23478
844.98	23482
845.117	23448
845.253	23353
845.389	23200
845.525	23311
845.661	23318
845.798	23105
845.934	23140
846.07	23064
846.206	23079
846.342	23159
846.478	23052
846.614	22828
846.75	22755
846.886	22866
847.022	22881
847.158	22824
847.294	22740
847.429	22934
847.565	22797
847.701	23006
847.837	22531
847.972	22424
848.108	22626
848.244	22493
848.379	22394
848.515	22394
848.65	22348
848.786	22363
848.921	22443
849.057	22348
849.192	22337
849.328	22436
849.463	22310
849.598	22280
849.734	22249
849.869	22314
850.004	22082
850.14	22116
850.275	22025
850.41	22078
850.545	22150
850.68	21915
850.815	22048
850.95	22063
851.085	22200
851.22	22188
851.355	22063
851.49	21983
851.625	22017
851.76	22063
851.895	21994
852.03	21983
852.165	21991
852.299	22067
852.434	22204
852.569	21972
852.703	21994
852.838	22086
852.973	22177
853.107	22082
853.242	22013
853.376	21865
853.511	21724
853.645	21785
853.78	21975
853.914	21918
854.048	21861
854.183	21797
854.317	21861
854.451	22093
854.585	21800
854.72	21850
854.854	21949
854.988	21797
855.122	21827
855.256	21717
855.39	21713
855.524	21941
855.658	21854
855.792	21743
855.926	21835
856.06	21892
856.194	21926
856.327	21800
856.461	21717
856.595	21778
856.729	21823
856.862	21907
856.996	21846
857.13	21816
857.263	21945
857.397	21907
857.53	21793
857.664	21831
857.797	21903
857.931	21808
858.064	21774
858.197	21945
858.331	21793
858.464	21720
858.597	21694
858.731	21724
858.864	21778
858.997	21682
859.13	21675
859.263	21808
859.396	21774
859.529	21812
859.662	21762
859.795	21717
859.928	21800
860.061	21979
860.194	21865
860.327	21766
860.46	21739
860.592	21892
860.725	21827
860.858	21759
860.99	21644
861.123	21622
861.256	21743
861.388	21739
861.521	22394
861.653	21557
861.786	21705
861.918	21629
862.05	21717
862.183	21793
862.315	21736
862.447	21705
862.58	21747
862.712	21481
862.844	21370
862.976	21595
863.108	21625
863.24	21759
863.372	21389
863.504	21450
863.636	21363
863.768	21458
863.9	21447
864.032	21412
864.164	21329
864.296	21389
864.428	21504
864.559	21393
864.691	21447
864.823	21496
864.954	21310
865.086	21321
865.217	21336
865.349	21195
865.48	21298
865.612	21348
865.743	21401
865.875	21294
866.006	21249
866.137	21325
866.269	21199
866.4	21313
866.531	21222
866.662	21173
866.793	21336
866.924	21287
867.055	21222
867.186	21131
867.317	21222
867.448	21169
867.579	21237
867.71	21218
867.841	21142
867.972	21241
868.103	21287
868.233	21154
868.364	21268
868.495	21249
868.625	21329
868.756	21435
868.886	21454
869.017	21401
869.147	21469
869.278	21675
869.408	21420
869.539	21545
869.669	21553
869.799	21435
869.929	21504
870.06	21511
870.19	21819
870.32	21644
870.45	21671
870.58	21873
870.71	21975
870.84	21987
870.97	21888
871.1	21842
871.23	21998
871.36	22036
871.489	21869
871.619	22078
871.749	22032
871.879	22002
872.008	22226
872.138	22048
872.267	22105
872.397	21808
872.526	21838
872.656	21899
872.785	21960
872.915	22109
873.044	22211
873.173	22139
873.303	22162
873.432	22166
873.561	22242
873.69	22036
873.819	22120
873.948	22169
874.077	22067
874.206	21956
874.335	22082
874.464	22268
874.593	22329
874.722	22166
874.851	22436
874.979	22417
875.108	22322
875.237	22131
875.365	22322
875.494	22207
875.623	22379
875.751	22303
875.88	22318
876.008	22405
876.136	22504
876.265	22687
876.393	22930
876.521	22717
876.65	22866
876.778	22615
876.906	22592
877.034	22573
877.162	22660
877.29	22538
877.418	22725
877.546	22592
877.674	22603
877.802	22588
877.93	22740
878.058	22668
878.185	22535
878.313	22565
878.441	22672
878.568	22512
878.696	22489
878.824	22656
878.951	22729
879.079	22896
879.206	22942
879.333	22831
879.461	22672
879.588	22805
879.715	22797
879.842	22923
879.97	22748
880.097	22535
880.224	22466
880.351	22478
880.478	22485
880.605	22462
880.732	22375
880.859	22645
880.986	22535
881.112	22417
881.239	22322
881.366	22265
881.493	22211
881.619	22025
881.746	22128
881.872	22147
881.999	21964
882.125	22010
882.252	22074
882.378	22074
882.505	22196
882.631	21968
882.757	21812
882.883	21812
883.01	21842
883.136	21656
883.262	21770
883.388	21603
883.514	21743
883.64	21808
883.766	21652
883.892	21408
884.018	21576
884.143	21667
884.269	21854
884.395	21500
884.52	21363
884.646	21424
884.772	21306
884.897	21329
885.023	21481
885.148	21382
885.274	21515
885.399	21439
885.524	21416
885.65	21488
885.775	21405
885.9	21401
886.025	21469
886.15	21454
886.275	21389
886.4	21249
886.525	21332
886.65	21302
886.775	21287
886.9	21458
887.025	21534
887.149	21237
887.274	21184
887.399	21218
887.523	21135
887.648	21066
887.773	20975
887.897	21135
888.021	21180
888.146	21032
888.27	21176
888.395	21241
888.519	21131
888.643	21100
888.767	21226
888.891	21074
889.015	21005
889.139	20944
889.263	20937
889.387	20982
889.511	21047
889.635	20979
889.759	20925
889.883	20895
890.006	20887
890.13	21032
890.254	20830
890.377	20739
890.501	20667
890.624	20693
890.748	20682
890.871	20427
890.995	20427
891.118	20461
891.241	20488
891.364	20564
891.488	20556
891.611	20507
891.734	20332
891.857	20518
891.98	20431
892.103	20598
892.226	20522
892.349	20454
892.471	20351
892.594	20480
892.717	20465
892.839	20419
892.962	20423
893.085	20412
893.207	20518
893.33	20362
893.452	20298
893.575	20381
893.697	20263
893.819	20552
893.941	20564
894.064	20419
894.186	20278
894.308	20275
894.43	20476
894.552	20530
894.674	20564
894.796	20317
894.918	20317
895.04	20286
895.161	20419
895.283	20423
895.405	20294
895.526	20301
895.648	20332
895.769	20351
895.891	20450
896.012	20423
896.134	20423
896.255	20377
896.376	20301
896.498	20465
896.619	20370
896.74	20423
896.861	20434
896.982	20705
897.103	20826
897.224	20743
897.345	20686
897.466	20579
897.587	20659
897.708	20701
897.828	20655
897.949	20640
898.07	20412
898.19	20549
898.311	20629
898.431	20537
898.552	20537
898.672	20621
898.792	20587
898.913	20537
899.033	20393
899.153	20320
899.273	20180
899.393	20210
899.513	20229
899.633	20377
899.753	20233
899.873	20176
899.993	20396
900.113	20278
900.232	20275
900.352	20214
900.472	20119
900.591	20016
900.711	19974
900.83	19894
900.95	20134
901.069	20069
901.189	19959
901.308	19769
901.427	19651
901.546	19788
901.665	19624
901.784	19651
901.904	19575
902.023	19384
902.141	19213
902.26	19228
902.379	19168
902.498	19122
902.617	19099
902.735	19034
902.854	19114
902.973	19069
903.091	18802
903.21	18779
903.328	18795
903.446	18601
903.565	18639
903.683	18616
903.801	18445
903.919	18570
904.038	18509
904.156	18342
904.274	18414
904.392	18350
904.51	18308
904.627	18277
904.745	18410
904.863	18376
904.981	18079
905.098	18030
905.216	18034
905.334	18144
905.451	17961
905.569	17908
905.686	18034
905.803	17961
905.921	17828
906.038	17817
906.155	17752
906.272	17824
906.389	17718
906.506	17509
906.623	17539
906.74	17611
906.857	17467
906.974	17455
907.091	17615
907.208	17699
907.324	17592
907.441	17493
907.557	17208
907.674	17185
907.79	17185
907.907	17121
908.023	17185
908.139	17200
908.256	17220
908.372	17045
908.488	16957
908.604	16854
908.72	16763
908.836	16847
908.952	16892
909.068	16858
909.184	17067
909.3	16908
909.415	16930
909.531	16843
909.647	16588
909.762	16558
909.878	16512
909.993	16531
910.108	16558
910.224	16485
910.339	16500
910.454	16371
910.57	16402
910.685	16291
910.8	16573
910.915	16577
911.03	16341
911.145	16185
911.259	16021
911.374	16074
911.489	16063
911.604	16116
911.718	15899
911.833	15903
911.947	15831
912.062	15747
912.176	15964
912.291	15987
912.405	15968
912.519	16215
912.633	16059
912.748	15964
912.862	15827
912.976	15709
913.09	15587
913.204	15553
913.318	15648
913.431	15797
913.545	15808
913.659	15770
913.772	15679
913.886	15549
914	15564
914.113	15561
914.226	15599
914.34	15542
914.453	15363
914.566	15549
914.68	15393
914.793	15355
914.906	15146
915.019	15062
915.132	15081
915.245	14998
915.358	15157
915.47	15100
915.583	15138
915.696	15108
915.809	15287
915.921	15317
916.034	15112
916.146	14925
916.259	14952
916.371	15203
916.483	15119
916.595	14963
916.708	14948
916.82	14853
916.932	14872
917.044	14937
917.156	14842
917.268	14743
917.38	14701
917.491	14705
917.603	14819
917.715	14830
917.826	14762
917.938	14697
918.049	14621
918.161	14724
918.272	14826
918.384	14796
918.495	14659
918.606	14404
918.717	14442
918.828	14511
918.939	14594
919.05	14358
919.161	14457
919.272	14172
919.383	14320
919.494	14503
919.604	14670
919.715	14408
919.826	14366
919.936	14454
920.047	14469
920.157	14389
920.267	14514
920.378	14454
920.488	14377
920.598	14537
920.708	14788
920.818	14514
920.928	14476
921.038	14788
921.148	14514
921.258	14362
921.368	14244
921.477	14202
921.587	14088
921.697	13989
921.806	14081
921.916	14024
922.025	13868
922.134	13738
922.244	13772
922.353	13788
922.462	13696
922.571	13597
922.68	13301
922.789	13441
922.898	13419
923.007	13312
923.116	13335
923.224	13362
923.333	13373
923.442	13240
923.55	13274
923.659	13213
923.767	13301
923.876	13297
923.984	13282
924.092	13198
924.201	13213
924.309	13156
924.417	13164
924.525	13061
924.633	13012
924.741	14050
924.849	12920
924.956	12985
925.064	12947
925.172	12749
925.279	12825
925.387	12825
925.494	12875
925.602	12962
925.709	12867
925.816	12757
925.924	12840
926.031	12779
926.138	12635
926.245	12867
926.352	12623
926.459	12863
926.566	12806
926.673	12692
926.779	12532
926.886	12578
926.993	12433
927.099	12422
927.206	12369
927.312	12391
927.419	12372
927.525	12361
927.631	12338
927.737	12346
927.843	12205
927.95	12175
928.056	12232
928.162	12213
928.267	12254
928.373	12985
928.479	12262
928.585	12083
928.69	12125
928.796	12205
928.901	12064
929.007	11977
929.112	12003
929.218	11992
929.323	11916
929.428	11870
929.533	12102
929.638	11885
929.743	11973
929.848	11904
929.953	11817
930.058	11752
930.163	11570
930.267	11707
930.372	11745
930.477	11520
930.581	11813
930.685	11623
930.79	11467
930.894	11490
930.998	11474
931.103	11539
931.207	11223
931.311	11204
931.415	11052
931.519	10869
931.623	10877
