Data from test_V78500241_3066.txt Node
Date: Fri Mar 25 16:03:02 CST 2022
User: usil
Spectrometer: V785-0024
Trigger mode: 0
Integration Time (sec): 4.000000E-1
Scans to average: 1
Nonlinearity correction enabled: false
Boxcar width: 0
Storing dark spectrum: false
XAxis mode: Wavelengths
Number of Pixels in Spectrum: 1024
>>>>>Begin Spectral Data<<<<<
801.071	28561
801.214	28645
801.356	28516
801.499	28314
801.641	28329
801.783	28356
801.926	28234
802.068	28074
802.211	28173
802.353	28154
802.496	27987
802.638	27797
802.78	27930
802.923	27899
803.065	27899
803.208	27793
803.35	27987
803.492	28025
803.635	28238
803.777	28048
803.919	28158
804.061	28428
804.204	28219
804.346	28116
804.488	28154
804.63	28124
804.773	28131
804.915	28185
805.057	28322
805.199	28059
805.341	28226
805.483	28436
805.626	28246
805.768	28131
805.91	28413
806.052	28325
806.194	28154
806.336	28512
806.478	28371
806.62	28234
806.762	28470
806.904	28687
807.046	28835
807.188	28805
807.33	28843
807.472	28805
807.614	28755
807.756	28736
807.898	28729
808.04	28577
808.182	28588
808.324	28626
808.465	28793
808.607	28824
808.749	28999
808.891	29033
809.033	29208
809.174	28942
809.316	29014
809.458	28991
809.6	28961
809.741	29052
809.883	29193
810.025	29296
810.166	29204
810.308	29368
810.45	29212
810.591	29162
810.733	28976
810.875	29041
811.016	28946
811.158	28984
811.299	29067
811.441	29311
811.582	29022
811.724	28972
811.865	28877
812.007	28877
812.148	29014
812.29	29098
812.431	29140
812.573	29265
812.714	29421
812.855	29505
812.997	29707
813.138	29756
813.279	29615
813.421	29573
813.562	29414
813.703	29356
813.845	29307
813.986	28938
814.127	28694
814.268	28713
814.41	28725
814.551	28721
814.692	28740
814.833	28691
814.974	28717
815.115	28778
815.256	28702
815.397	28527
815.539	28599
815.68	28409
815.821	28432
815.962	28565
816.103	28443
816.244	28390
816.385	28280
816.526	28360
816.666	28074
816.807	27945
816.948	28238
817.089	28177
817.23	27926
817.371	28010
817.512	27968
817.653	28101
817.793	28044
817.934	28044
818.075	27972
818.216	27983
818.356	28204
818.497	28006
818.638	27759
818.778	27861
818.919	27751
819.06	27876
819.2	27876
819.341	28090
819.481	28017
819.622	28177
819.762	28390
819.903	28356
820.043	28363
820.184	28154
820.324	28188
820.465	28128
820.605	28070
820.746	28128
820.886	28116
821.026	28211
821.167	27983
821.307	28173
821.447	28082
821.588	27968
821.728	27895
821.868	27660
822.008	27614
822.149	27526
822.289	27412
822.429	27249
822.569	27119
822.709	27119
822.849	27009
822.99	27081
823.13	27058
823.27	27017
823.41	26861
823.55	26762
823.69	26861
823.83	26830
823.97	26902
824.11	26678
824.25	26648
824.389	26758
824.529	26686
824.669	26773
824.809	26750
824.949	26739
825.089	26792
825.228	26655
825.368	26594
825.508	26522
825.648	26476
825.787	26625
825.927	26670
826.067	26530
826.206	26530
826.346	26476
826.485	26556
826.625	26503
826.765	26724
826.904	26575
827.044	26286
827.183	26389
827.323	26282
827.462	26324
827.601	26370
827.741	26263
827.88	26294
828.02	26050
828.159	26168
828.298	26275
828.437	26412
828.577	26191
828.716	26499
828.855	26134
828.994	25966
829.134	25913
829.273	26046
829.412	25879
829.551	25932
829.69	25868
829.829	25947
829.968	26103
830.107	25940
830.246	25925
830.385	25871
830.524	25830
830.663	25795
830.802	25620
830.941	25567
831.08	25537
831.219	25632
831.357	25609
831.496	26031
831.635	25586
831.774	25586
831.913	25422
832.051	25422
832.19	25335
832.329	25445
832.467	25236
832.606	25209
832.744	25171
832.883	25179
833.022	25320
833.16	25110
833.299	25369
833.437	25221
833.576	25441
833.714	25251
833.852	25441
833.991	25411
834.129	25476
834.267	25445
834.406	25384
834.544	25304
834.682	25304
834.821	25327
834.959	25438
835.097	25175
835.235	25308
835.373	25225
835.511	25316
835.65	25217
835.788	25034
835.926	25069
836.064	25019
836.202	24989
836.34	25194
836.478	25270
836.615	25122
836.753	25221
836.891	25084
837.029	25206
837.167	24913
837.305	25148
837.443	25038
837.58	24878
837.718	25046
837.856	24951
837.993	24901
838.131	24886
838.269	24856
838.406	24981
838.544	24623
838.681	24608
838.819	24684
838.956	24403
839.094	24525
839.231	24384
839.369	24620
839.506	24787
839.643	24620
839.781	24414
839.918	24407
840.055	24532
840.193	24311
840.33	24479
840.467	24304
840.604	24448
840.742	24612
840.879	24167
841.016	24285
841.153	24209
841.29	24243
841.427	24281
841.564	24308
841.701	24205
841.838	24330
841.975	24327
842.112	24159
842.249	24091
842.385	24129
842.522	24308
842.659	24102
842.796	24182
842.933	24049
843.069	24041
843.206	23992
843.343	24205
843.479	24114
843.616	24155
843.752	23927
843.889	23973
844.025	23961
844.162	23790
844.298	23988
844.435	23794
844.571	23882
844.708	23847
844.844	23961
844.98	24034
845.117	24140
845.253	23771
845.389	23756
845.525	23824
845.661	23737
845.798	23547
845.934	23703
846.07	23482
846.206	23596
846.342	23600
846.478	23539
846.614	23273
846.75	23288
846.886	23258
847.022	23421
847.158	23265
847.294	23383
847.429	23379
847.565	23166
847.701	23634
847.837	22896
847.972	23037
848.108	23136
848.244	23025
848.379	23018
848.515	22980
848.65	22812
848.786	22927
848.921	22862
849.057	23029
849.192	23037
849.328	23037
849.463	22965
849.598	22733
849.734	22797
849.869	22820
850.004	22713
850.14	22664
850.275	22698
850.41	22626
850.545	22656
850.68	22656
850.815	22607
850.95	22626
851.085	22896
851.22	22702
851.355	22664
851.49	22683
851.625	22713
851.76	22561
851.895	22527
852.03	22512
852.165	22645
852.299	22557
852.434	22675
852.569	22634
852.703	22725
852.838	22725
852.973	22873
853.107	22702
853.242	22470
853.376	22497
853.511	22318
853.645	22466
853.78	22546
853.914	22493
854.048	22314
854.183	22371
854.317	22478
854.451	22664
854.585	22424
854.72	22485
854.854	22512
854.988	22455
855.122	22478
855.256	22344
855.39	22413
855.524	22538
855.658	22493
855.792	22432
855.926	22322
856.06	22497
856.194	22573
856.327	22386
856.461	22421
856.595	22436
856.729	22455
856.862	22527
856.996	22535
857.13	22542
857.263	22459
857.397	22592
857.53	22527
857.664	22481
857.797	22573
857.931	22634
858.064	22504
858.197	22573
858.331	22500
858.464	22341
858.597	22504
858.731	22310
858.864	22363
858.997	22489
859.13	22485
859.263	22546
859.396	22637
859.529	22299
859.662	22417
859.795	22318
859.928	22516
860.061	22645
860.194	22736
860.327	22717
860.46	22497
860.592	22645
860.725	22793
860.858	22565
860.99	22637
861.123	22322
861.256	22409
861.388	22516
861.521	23102
861.653	22462
861.786	22219
861.918	22352
862.05	22394
862.183	22356
862.315	22390
862.447	22481
862.58	22394
862.712	22268
862.844	22211
862.976	22325
863.108	22322
863.24	22740
863.372	22131
863.504	22131
863.636	22215
863.768	22223
863.9	22249
864.032	22158
864.164	22158
864.296	22230
864.428	22265
864.559	22367
864.691	22124
864.823	22196
864.954	22192
865.086	22074
865.217	22128
865.349	22040
865.48	22044
865.612	22116
865.743	22097
865.875	22074
866.006	22059
866.137	22185
866.269	22177
866.4	22082
866.531	21941
866.662	21979
866.793	21869
866.924	22067
867.055	22025
867.186	21994
867.317	21998
867.448	21785
867.579	21918
867.71	21964
867.841	21922
867.972	22048
868.103	21998
868.233	21865
868.364	22013
868.495	22215
868.625	22299
868.756	22386
868.886	22204
869.017	22272
869.147	22363
869.278	22306
869.408	22188
869.539	22287
869.669	22291
869.799	22348
869.929	22500
870.06	22299
870.19	22599
870.32	22683
870.45	22763
870.58	22557
870.71	22771
870.84	22645
870.97	22630
871.1	22504
871.23	22748
871.36	22968
871.489	22801
871.619	22687
871.749	22820
871.879	22889
872.008	23083
872.138	22843
872.267	22797
872.397	22767
872.526	22721
872.656	22672
872.785	22618
872.915	22835
873.044	22942
873.173	22736
873.303	22908
873.432	23018
873.561	22957
873.69	22896
873.819	22847
873.948	22946
874.077	22843
874.206	22763
874.335	22930
874.464	22961
874.593	23178
874.722	23197
874.851	22991
874.979	23041
875.108	23060
875.237	23006
875.365	22957
875.494	22942
875.623	23117
875.751	23067
875.88	23155
876.008	23109
876.136	23261
876.265	23433
876.393	23592
876.521	23566
876.65	23452
876.778	23334
876.906	23520
877.034	23474
877.162	23436
877.29	23349
877.418	23372
877.546	23478
877.674	23356
877.802	23463
877.93	23467
878.058	23356
878.185	23277
878.313	23303
878.441	23292
878.568	23197
878.696	23337
878.824	23497
878.951	23391
879.079	23665
879.206	23733
879.333	23623
879.461	23520
879.588	23459
879.715	23619
879.842	23657
879.97	23429
880.097	23216
880.224	23220
880.351	23280
880.478	23311
880.605	23181
880.732	23254
880.859	23482
880.986	23250
881.112	23288
881.239	23109
881.366	22904
881.493	22915
881.619	22812
881.746	22946
881.872	22892
881.999	22774
882.125	22763
882.252	22869
882.378	22740
882.505	22881
882.631	22626
882.757	22474
882.883	22561
883.01	22504
883.136	22432
883.262	22367
883.388	22310
883.514	22512
883.64	22580
883.766	22424
883.892	22238
884.018	22268
884.143	22443
884.269	22417
884.395	22188
884.52	22036
884.646	21998
884.772	22055
884.897	21903
885.023	22158
885.148	22219
885.274	22280
885.399	22188
885.524	22128
885.65	22158
885.775	22139
885.9	22044
886.025	22116
886.15	22166
886.275	22002
886.4	21975
886.525	22032
886.65	22017
886.775	22036
886.9	22143
887.025	22284
887.149	22124
887.274	21930
887.399	21880
887.523	21766
887.648	21854
887.773	21781
887.897	21888
888.021	21937
888.146	21789
888.27	21922
888.395	21964
888.519	21854
888.643	21816
888.767	21888
888.891	21831
889.015	21629
889.139	21686
889.263	21694
889.387	21622
889.511	21797
889.635	21648
889.759	21591
889.883	21580
890.006	21622
890.13	21808
890.254	21591
890.377	21618
890.501	21374
890.624	21306
890.748	21492
890.871	21397
890.995	21222
891.118	21138
891.241	21245
891.364	21150
891.488	21382
891.611	21302
891.734	21211
891.857	21294
891.98	21211
892.103	21340
892.226	21302
892.349	21100
892.471	21013
892.594	20994
892.717	21077
892.839	21051
892.962	21138
893.085	21127
893.207	21142
893.33	20910
893.452	21036
893.575	21150
893.697	21009
893.819	21211
893.941	21298
894.064	21256
894.186	21096
894.308	20933
894.43	21188
894.552	21226
894.674	21176
894.796	20956
894.918	21009
895.04	20918
895.161	21066
895.283	21020
895.405	21020
895.526	21138
895.648	21051
895.769	21100
895.891	21142
896.012	21131
896.134	21241
896.255	21230
896.376	21096
896.498	21074
896.619	21039
896.74	21055
896.861	21093
896.982	21439
897.103	21553
897.224	21302
897.345	21233
897.466	21146
897.587	21393
897.708	21382
897.828	21211
897.949	21119
898.07	21131
898.19	21195
898.311	21397
898.431	21211
898.552	21157
898.672	21142
898.792	21477
898.913	21313
899.033	21275
899.153	21070
899.273	20971
899.393	20998
899.513	21005
899.633	21005
899.753	20998
899.873	20944
899.993	20899
900.113	20921
900.232	20967
900.352	20925
900.472	20777
900.591	20708
900.711	20739
900.83	20708
900.95	20845
901.069	20849
901.189	20705
901.308	20396
901.427	20404
901.546	20362
901.665	20499
901.784	20336
901.904	20149
902.023	20138
902.141	19894
902.26	19940
902.379	19906
902.498	19845
902.617	19814
902.735	19955
902.854	19780
902.973	19731
903.091	19548
903.21	19540
903.328	19552
903.446	19472
903.565	19415
903.683	19339
903.801	19160
903.919	19244
904.038	19247
904.156	19061
904.274	19084
904.392	19012
904.51	19171
904.627	19023
904.745	19103
904.863	19122
904.981	18825
905.098	18730
905.216	18814
905.334	18730
905.451	18719
905.569	18578
905.686	18719
905.803	18833
905.921	18452
906.038	18650
906.155	18658
906.272	18452
906.389	18346
906.506	18224
906.623	18281
906.74	18155
906.857	18133
906.974	18148
907.091	18235
907.208	18395
907.324	18342
907.441	18091
907.557	18114
907.674	18034
907.79	17885
907.907	17923
908.023	17927
908.139	18030
908.256	17901
908.372	17969
908.488	17824
908.604	17695
908.72	17695
908.836	17661
908.952	17600
909.068	17668
909.184	17783
909.3	17657
909.415	17687
909.531	17493
909.647	17452
909.762	17429
909.878	17318
909.993	17315
910.108	17330
910.224	17364
910.339	17372
910.454	17223
910.57	17105
910.685	17128
910.8	17368
910.915	17273
911.03	17231
911.145	16927
911.259	16892
911.374	16976
911.489	16873
911.604	16759
911.718	16641
911.833	16752
911.947	16474
912.062	16584
912.176	16740
912.291	16744
912.405	16786
912.519	16911
912.633	16957
912.748	16755
912.862	16736
912.976	16481
913.09	16428
913.204	16485
913.318	16538
913.431	16531
913.545	16603
913.659	16489
913.772	16379
913.886	16314
914	16242
914.113	16276
914.226	16470
914.34	16398
914.453	16173
914.566	16329
914.68	16124
914.793	16067
914.906	15895
915.019	15945
915.132	15819
915.245	15953
915.358	15907
915.47	15884
915.583	15926
915.696	15823
915.809	15873
915.921	15979
916.034	15766
916.146	15751
916.259	15701
916.371	15861
916.483	15880
916.595	15591
916.708	15690
916.82	15762
916.932	15652
917.044	15759
917.156	15606
917.268	15576
917.38	15564
917.491	15534
917.603	15428
917.715	15629
917.826	15625
917.938	15401
918.049	15348
918.161	15473
918.272	15595
918.384	15542
918.495	15458
918.606	15306
918.717	15127
918.828	15233
918.939	15302
919.05	15097
919.161	15207
919.272	14982
919.383	14994
919.494	15279
919.604	15530
919.715	15188
919.826	15043
919.936	15249
920.047	15188
920.157	15203
920.267	15351
920.378	15256
920.488	15142
920.598	15374
920.708	15431
920.818	15367
920.928	15359
921.038	15454
921.148	15363
921.258	15169
921.368	15051
921.477	14838
921.587	14883
921.697	14815
921.806	14849
921.916	14743
922.025	14610
922.134	14583
922.244	14507
922.353	14518
922.462	14320
922.571	14332
922.68	14176
922.789	14119
922.898	14111
923.007	14111
923.116	14195
923.224	14100
923.333	14161
923.442	14008
923.55	14054
923.659	14039
923.767	13986
923.876	13986
923.984	14096
924.092	13970
924.201	13940
924.309	13940
924.417	13898
924.525	13788
924.633	13799
924.741	14594
924.849	13636
924.956	13795
925.064	13571
925.172	13552
925.279	13548
925.387	13590
925.494	13613
925.602	13704
925.709	13586
925.816	13544
925.924	13453
926.031	13544
926.138	13460
926.245	13605
926.352	13419
926.459	13510
926.566	13502
926.673	13514
926.779	13183
926.886	13251
926.993	13099
927.099	13076
927.206	13072
927.312	13050
927.419	13118
927.525	13069
927.631	13164
927.737	12981
927.843	12916
927.95	12951
928.056	12837
928.162	12916
928.267	12958
928.373	13502
928.479	12973
928.585	12802
928.69	12840
928.796	12905
928.901	12772
929.007	12631
929.112	12779
929.218	12688
929.323	12616
929.428	12635
929.533	12738
929.638	12563
929.743	12517
929.848	12623
929.953	12635
930.058	12429
930.163	12178
930.267	12338
930.372	12369
930.477	12277
930.581	12460
930.685	12361
930.79	12155
930.894	12247
930.998	12167
931.103	12270
931.207	11920
931.311	11836
931.415	11703
931.519	11566
931.623	11528
