Data from test_V78500241_3500.txt Node
Date: Fri Mar 25 16:06:02 CST 2022
User: usil
Spectrometer: V785-0024
Trigger mode: 0
Integration Time (sec): 4.000000E-1
Scans to average: 1
Nonlinearity correction enabled: false
Boxcar width: 0
Storing dark spectrum: false
XAxis mode: Wavelengths
Number of Pixels in Spectrum: 1024
>>>>>Begin Spectral Data<<<<<
801.071	29003
801.214	28858
801.356	28637
801.499	28660
801.641	28401
801.783	28280
801.926	28497
802.068	28409
802.211	28367
802.353	28265
802.496	28169
802.638	28150
802.78	28067
802.923	28105
803.065	28200
803.208	28192
803.35	28162
803.492	28287
803.635	28405
803.777	28219
803.919	28428
804.061	28892
804.204	28436
804.346	28325
804.488	28379
804.63	28455
804.773	28207
804.915	28459
805.057	28493
805.199	28497
805.341	28546
805.483	28626
805.626	28516
805.768	28489
805.91	28474
806.052	28584
806.194	28512
806.336	28786
806.478	28557
806.62	28656
806.762	28542
806.904	28866
807.046	29197
807.188	29014
807.33	28972
807.472	29094
807.614	28938
807.756	29052
807.898	29044
808.04	28900
808.182	28877
808.324	28965
808.465	28911
808.607	29216
808.749	29235
808.891	29322
809.033	29551
809.174	29311
809.316	29334
809.458	29254
809.6	29372
809.741	29391
809.883	29490
810.025	29649
810.166	29577
810.308	29581
810.45	29520
810.591	29311
810.733	29471
810.875	29337
811.016	29288
811.158	29223
811.299	29570
811.441	29444
811.582	29387
811.724	29398
811.865	29334
812.007	29269
812.148	29345
812.29	29334
812.431	29490
812.573	29646
812.714	29668
812.855	29893
812.997	29889
813.138	29965
813.279	29935
813.421	29802
813.562	29657
813.703	29665
813.845	29512
813.986	29193
814.127	29056
814.268	28915
814.41	29067
814.551	29170
814.692	29052
814.833	29010
814.974	28904
815.115	29010
815.256	28961
815.397	28980
815.539	28843
815.68	28828
815.821	28782
815.962	28820
816.103	28809
816.244	28809
816.385	28759
816.526	28607
816.666	28459
816.807	28413
816.948	28401
817.089	28523
817.23	28424
817.371	28303
817.512	28466
817.653	28417
817.793	28310
817.934	28219
818.075	28337
818.216	28185
818.356	28318
818.497	28143
818.638	27945
818.778	28185
818.919	28002
819.06	28124
819.2	28185
819.341	28287
819.481	28246
819.622	28405
819.762	28752
819.903	28607
820.043	28569
820.184	28618
820.324	28451
820.465	28481
820.605	28493
820.746	28462
820.886	28341
821.026	28356
821.167	28474
821.307	28470
821.447	28390
821.588	28341
821.728	28109
821.868	28017
822.008	27941
822.149	27781
822.289	27835
822.429	27515
822.569	27397
822.709	27557
822.849	27408
822.99	27302
823.13	27378
823.27	27264
823.41	27260
823.55	27032
823.69	27116
823.83	27161
823.97	27184
824.11	27104
824.25	26948
824.389	26914
824.529	27051
824.669	27100
824.809	27188
824.949	27058
825.089	27116
825.228	27020
825.368	26914
825.508	26746
825.648	26880
825.787	26967
825.927	26906
826.067	26823
826.206	26998
826.346	26925
826.485	26788
826.625	26921
826.765	27020
826.904	26838
827.044	26705
827.183	26765
827.323	26609
827.462	26758
827.601	26511
827.741	26826
827.88	26701
828.02	26404
828.159	26518
828.298	26492
828.437	26678
828.577	26461
828.716	26670
828.855	26389
828.994	26381
829.134	26351
829.273	26374
829.412	26298
829.551	26244
829.69	26252
829.829	26351
829.968	26290
830.107	26298
830.246	26225
830.385	26233
830.524	26324
830.663	26210
830.802	25993
830.941	25906
831.08	25715
831.219	26016
831.357	25940
831.496	26069
831.635	25902
831.774	25723
831.913	25826
832.051	25620
832.19	25624
832.329	25677
832.467	25681
832.606	25552
832.744	25495
832.883	25639
833.022	25434
833.16	25552
833.299	25700
833.437	25552
833.576	25594
833.714	25590
833.852	25643
833.991	25780
834.129	25696
834.267	25746
834.406	25746
834.544	25772
834.682	25635
834.821	25510
834.959	25841
835.097	25689
835.235	25655
835.373	25594
835.511	25556
835.65	25476
835.788	25335
835.926	25316
836.064	25278
836.202	25312
836.34	25407
836.478	25514
836.615	25426
836.753	25476
836.891	25422
837.029	25487
837.167	25225
837.305	25369
837.443	25289
837.58	25206
837.718	25240
837.856	25483
837.993	25225
838.131	25236
838.269	25164
838.406	25168
838.544	25099
838.681	24901
838.819	24977
838.956	24783
839.094	24631
839.231	24757
839.369	24989
839.506	25107
839.643	24886
839.781	24658
839.918	24654
840.055	24783
840.193	24681
840.33	24646
840.467	24703
840.604	24665
840.742	24878
840.879	24532
841.016	24566
841.153	24627
841.29	24840
841.427	24623
841.564	24635
841.701	24627
841.838	24517
841.975	24681
842.112	24597
842.249	24559
842.385	24437
842.522	24608
842.659	24479
842.796	24323
842.933	24365
843.069	24395
843.206	24315
843.343	24418
843.479	24445
843.616	24460
843.752	24186
843.889	24254
844.025	24300
844.162	24076
844.298	24308
844.435	24232
844.571	24038
844.708	24327
844.844	24380
844.98	24277
845.117	24194
845.253	24049
845.389	23920
845.525	24057
845.661	24030
845.798	23821
845.934	23916
846.07	23847
846.206	24057
846.342	23996
846.478	23798
846.614	23566
846.75	23589
846.886	23608
847.022	23619
847.158	23699
847.294	23448
847.429	23653
847.565	23493
847.701	23786
847.837	23242
847.972	23303
848.108	23356
848.244	23433
848.379	23337
848.515	23181
848.65	23162
848.786	23292
848.921	23246
849.057	23341
849.192	23204
849.328	23326
849.463	23208
849.598	23181
849.734	23178
849.869	23056
850.004	23029
850.14	23067
850.275	23003
850.41	22942
850.545	23044
850.68	23010
850.815	23109
850.95	22873
851.085	23178
851.22	23159
851.355	22908
851.49	22965
851.625	22904
851.76	22957
851.895	22778
852.03	22831
852.165	22889
852.299	23124
852.434	23044
852.569	22995
852.703	22919
852.838	23052
852.973	22930
853.107	22999
853.242	22942
853.376	22835
853.511	22592
853.645	22763
853.78	22965
853.914	22793
854.048	22717
854.183	22816
854.317	22649
854.451	22991
854.585	22786
854.72	22782
854.854	22885
854.988	22660
855.122	22801
855.256	22607
855.39	22774
855.524	22938
855.658	22828
855.792	22767
855.926	22824
856.06	22748
856.194	22889
856.327	22691
856.461	22660
856.595	22797
856.729	22733
856.862	22839
856.996	22767
857.13	22938
857.263	23029
857.397	22881
857.53	22790
857.664	22763
857.797	22816
857.931	22927
858.064	22892
858.197	22938
858.331	22782
858.464	22721
858.597	22588
858.731	22740
858.864	22717
858.997	22733
859.13	22748
859.263	22729
859.396	22805
859.529	22748
859.662	22904
859.795	22824
859.928	22850
860.061	23048
860.194	23060
860.327	22873
860.46	22774
860.592	22820
860.725	22919
860.858	22900
860.99	22702
861.123	22645
861.256	22687
861.388	22702
861.521	23364
861.653	22588
861.786	22641
861.918	22599
862.05	22645
862.183	22713
862.315	22668
862.447	22854
862.58	22759
862.712	22523
862.844	22557
862.976	22584
863.108	22478
863.24	22873
863.372	22561
863.504	22500
863.636	22470
863.768	22394
863.9	22455
864.032	22432
864.164	22405
864.296	22447
864.428	22584
864.559	22455
864.691	22531
864.823	22554
864.954	22478
865.086	22455
865.217	22382
865.349	22303
865.48	22287
865.612	22421
865.743	22538
865.875	22363
866.006	22443
866.137	22371
866.269	22466
866.4	22306
866.531	22226
866.662	22215
866.793	22356
866.924	22356
867.055	22124
867.186	22314
867.317	22325
867.448	22086
867.579	22303
867.71	22131
867.841	22246
867.972	22310
868.103	22173
868.233	22223
868.364	22333
868.495	22417
868.625	22542
868.756	22641
868.886	22459
869.017	22531
869.147	22550
869.278	22736
869.408	22596
869.539	22554
869.669	22554
869.799	22546
869.929	22725
870.06	22725
870.19	22786
870.32	22839
870.45	22831
870.58	22934
870.71	23083
870.84	23037
870.97	22911
871.1	22942
871.23	23155
871.36	23041
871.489	23041
871.619	23071
871.749	23010
871.879	23197
872.008	23204
872.138	23208
872.267	23109
872.397	22930
872.526	22953
872.656	23022
872.785	22908
872.915	23033
873.044	23178
873.173	23170
873.303	23147
873.432	23280
873.561	23185
873.69	23029
873.819	23166
873.948	23181
874.077	23147
874.206	23075
874.335	23147
874.464	23197
874.593	23406
874.722	23280
874.851	23448
874.979	23391
875.108	23436
875.237	23273
875.365	23311
875.494	23296
875.623	23459
875.751	23322
875.88	23368
876.008	23490
876.136	23512
876.265	23824
876.393	23916
876.521	23752
876.65	23859
876.778	23764
876.906	23726
877.034	23665
877.162	23646
877.29	23600
877.418	23672
877.546	23604
877.674	23596
877.802	23638
877.93	23634
878.058	23627
878.185	23551
878.313	23604
878.441	23680
878.568	23429
878.696	23531
878.824	23786
878.951	23760
879.079	23885
879.206	24011
879.333	23855
879.461	23741
879.588	23794
879.715	23927
879.842	23912
879.97	23714
880.097	23687
880.224	23577
880.351	23604
880.478	23695
880.605	23512
880.732	23391
880.859	23821
880.986	23471
881.112	23585
881.239	23322
881.366	23265
881.493	23216
881.619	23102
881.746	23048
881.872	23197
881.999	22915
882.125	23006
882.252	23094
882.378	22942
882.505	23121
882.631	22896
882.757	22847
882.883	22763
883.01	22801
883.136	22641
883.262	22615
883.388	22478
883.514	22713
883.64	22801
883.766	22672
883.892	22649
884.018	22607
884.143	22740
884.269	22721
884.395	22527
884.52	22356
884.646	22363
884.772	22390
884.897	22257
885.023	22421
885.148	22508
885.274	22592
885.399	22360
885.524	22352
885.65	22459
885.775	22318
885.9	22409
886.025	22546
886.15	22398
886.275	22363
886.4	22318
886.525	22295
886.65	22295
886.775	22242
886.9	22432
887.025	22466
887.149	22223
887.274	22120
887.399	22101
887.523	22230
887.648	22036
887.773	22082
887.897	22188
888.021	22124
888.146	22006
888.27	22249
888.395	22215
888.519	22230
888.643	22090
888.767	22200
888.891	22082
889.015	21975
889.139	21949
889.263	21907
889.387	22032
889.511	22128
889.635	22116
889.759	21835
889.883	21789
890.006	21888
890.13	21998
890.254	21888
890.377	21762
890.501	21701
890.624	21648
890.748	21682
890.871	21530
890.995	21389
891.118	21549
891.241	21526
891.364	21469
891.488	21682
891.611	21526
891.734	21454
891.857	21553
891.98	21363
892.103	21401
892.226	21408
892.349	21370
892.471	21169
892.594	21344
892.717	21336
892.839	21351
892.962	21416
893.085	21344
893.207	21256
893.33	21165
893.452	21131
893.575	21344
893.697	21321
893.819	21473
893.941	21549
894.064	21435
894.186	21355
894.308	21195
894.43	21325
894.552	21454
894.674	21256
894.796	21249
894.918	21313
895.04	21374
895.161	21370
895.283	21408
895.405	21329
895.526	21310
895.648	21287
895.769	21351
895.891	21260
896.012	21500
896.134	21249
896.255	21294
896.376	21252
896.498	21336
896.619	21252
896.74	21226
896.861	21336
896.982	21557
897.103	21880
897.224	21633
897.345	21557
897.466	21564
897.587	21694
897.708	21568
897.828	21622
897.949	21587
898.07	21344
898.19	21523
898.311	21644
898.431	21458
898.552	21538
898.672	21622
898.792	21545
898.913	21610
899.033	21348
899.153	21249
899.273	21241
899.393	21260
899.513	21272
899.633	21340
899.753	21237
899.873	21131
899.993	21188
900.113	21169
900.232	21085
900.352	21138
900.472	20998
900.591	20929
900.711	20918
900.83	20853
900.95	21039
901.069	21085
901.189	20853
901.308	20773
901.427	20522
901.546	20552
901.665	20541
901.784	20629
901.904	20514
902.023	20332
902.141	20107
902.26	20016
902.379	20218
902.498	20092
902.617	19894
902.735	20027
902.854	20084
902.973	19925
903.091	19651
903.21	19765
903.328	19670
903.446	19613
903.565	19575
903.683	19460
903.801	19392
903.919	19525
904.038	19597
904.156	19335
904.274	19350
904.392	19236
904.51	19251
904.627	19251
904.745	19270
904.863	19278
904.981	19057
905.098	18920
905.216	18871
905.334	18966
905.451	19023
905.569	18859
905.686	19012
905.803	18901
905.921	18665
906.038	18768
906.155	18798
906.272	18620
906.389	18597
906.506	18376
906.623	18422
906.74	18414
906.857	18220
906.974	18277
907.091	18502
907.208	18635
907.324	18467
907.441	18353
907.557	18258
907.674	18308
907.79	17969
907.907	18125
908.023	18140
908.139	18083
908.256	18072
908.372	17946
908.488	18148
908.604	17920
908.72	17851
908.836	17897
908.952	17813
909.068	17901
909.184	18015
909.3	17908
909.415	17950
909.531	17874
909.647	17577
909.762	17551
909.878	17532
909.993	17573
910.108	17543
910.224	17554
910.339	17505
910.454	17353
910.57	17376
910.685	17322
910.8	17520
910.915	17608
911.03	17448
911.145	17170
911.259	17185
911.374	17124
911.489	17075
911.604	17045
911.718	16877
911.833	16911
911.947	16790
912.062	16687
912.176	16873
912.291	16847
912.405	16949
912.519	17143
912.633	17014
912.748	17006
912.862	16755
912.976	16752
913.09	16512
913.204	16634
913.318	16694
913.431	16736
913.545	16683
913.659	16763
913.772	16546
913.886	16508
914	16474
914.113	16546
914.226	16618
914.34	16561
914.453	16295
914.566	16489
914.68	16428
914.793	16329
914.906	16207
915.019	16040
915.132	15956
915.245	16013
915.358	16055
915.47	16021
915.583	16055
915.696	16090
915.809	16139
915.921	16166
916.034	15983
916.146	15888
916.259	15983
916.371	16013
916.483	16021
916.595	15823
916.708	15892
916.82	15915
916.932	15819
917.044	15819
917.156	15789
917.268	15679
917.38	15610
917.491	15564
917.603	15728
917.715	15755
917.826	15774
917.938	15606
918.049	15545
918.161	15488
918.272	15797
918.384	15694
918.495	15454
918.606	15534
918.717	15374
918.828	15447
918.939	15584
919.05	15245
919.161	15294
919.272	15184
919.383	15325
919.494	15473
919.604	15587
919.715	15435
919.826	15249
919.936	15241
920.047	15458
920.157	15401
920.267	15488
920.378	15279
920.488	15260
920.598	15485
920.708	15724
920.818	15439
920.928	15530
921.038	15553
921.148	15504
921.258	15283
921.368	15249
921.477	15173
921.587	15032
921.697	14925
921.806	15116
921.916	14982
922.025	14815
922.134	14777
922.244	14705
922.353	14735
922.462	14594
922.571	14400
922.68	14278
922.789	14324
922.898	14370
923.007	14377
923.116	14389
923.224	14324
923.333	14305
923.442	14157
923.55	14187
923.659	14202
923.767	14252
923.876	14031
923.984	14145
924.092	14096
924.201	14046
924.309	14043
924.417	14043
924.525	13936
924.633	13970
924.741	15001
924.849	13795
924.956	14046
925.064	13795
925.172	13662
925.279	13693
925.387	13769
925.494	13734
925.602	13826
925.709	13795
925.816	13578
925.924	13601
926.031	13772
926.138	13685
926.245	13658
926.352	13434
926.459	13666
926.566	13677
926.673	13521
926.779	13476
926.886	13430
926.993	13278
927.099	13312
927.206	13221
927.312	13175
927.419	13240
927.525	13304
927.631	13266
927.737	13228
927.843	13076
927.95	13046
928.056	13088
928.162	13038
928.267	13046
928.373	13677
928.479	13065
928.585	12951
928.69	12970
928.796	13046
928.901	12894
929.007	12738
929.112	12859
929.218	12863
929.323	12776
929.428	12764
929.533	12916
929.638	12662
929.743	12768
929.848	12635
929.953	12802
930.058	12532
930.163	12460
930.267	12441
930.372	12547
930.477	12517
930.581	12525
930.685	12483
930.79	12353
930.894	12323
930.998	12247
931.103	12384
931.207	12079
931.311	11904
931.415	11923
931.519	11714
931.623	11668
