Data from test_V78500241_1309.txt Node
Date: Fri Mar 25 15:50:52 CST 2022
User: usil
Spectrometer: V785-0024
Trigger mode: 0
Integration Time (sec): 4.000000E-1
Scans to average: 1
Nonlinearity correction enabled: false
Boxcar width: 0
Storing dark spectrum: false
XAxis mode: Wavelengths
Number of Pixels in Spectrum: 1024
>>>>>Begin Spectral Data<<<<<
801.071	28615
801.214	28622
801.356	28424
801.499	28428
801.641	28242
801.783	28303
801.926	28401
802.068	28295
802.211	28204
802.353	28029
802.496	28097
802.638	27911
802.78	27953
802.923	27922
803.065	27941
803.208	27907
803.35	27914
803.492	28025
803.635	28173
803.777	28059
803.919	28162
804.061	28557
804.204	28230
804.346	28070
804.488	28063
804.63	28101
804.773	28067
804.915	28207
805.057	28367
805.199	28166
805.341	28253
805.483	28276
805.626	28409
805.768	28310
805.91	28440
806.052	28356
806.194	28333
806.336	28687
806.478	28280
806.62	28382
806.762	28432
806.904	28733
807.046	28885
807.188	28835
807.33	28820
807.472	28968
807.614	28820
807.756	28729
807.898	28771
808.04	28706
808.182	28603
808.324	28706
808.465	28752
808.607	28866
808.749	29052
808.891	29025
809.033	29132
809.174	29075
809.316	29041
809.458	29048
809.6	29052
809.741	29242
809.883	29159
810.025	29322
810.166	29337
810.308	29334
810.45	29341
810.591	29250
810.733	29140
810.875	29273
811.016	29117
811.158	29170
811.299	29083
811.441	29265
811.582	29322
811.724	29083
811.865	29090
812.007	29079
812.148	29048
812.29	29212
812.431	29147
812.573	29402
812.714	29497
812.855	29455
812.997	29547
813.138	29813
813.279	29668
813.421	29661
813.562	29672
813.703	29440
813.845	29296
813.986	29170
814.127	28953
814.268	28755
814.41	28805
814.551	28793
814.692	28888
814.833	28691
814.974	28904
815.115	28843
815.256	28664
815.397	28805
815.539	28489
815.68	28531
815.821	28519
815.962	28538
816.103	28664
816.244	28432
816.385	28481
816.526	28238
816.666	28230
816.807	28234
816.948	28188
817.089	28101
817.23	28120
817.371	28139
817.512	28101
817.653	28131
817.793	27987
817.934	28131
818.075	28010
818.216	28226
818.356	27994
818.497	27899
818.638	27797
818.778	27873
818.919	27884
819.06	27972
819.2	27964
819.341	28032
819.481	27994
819.622	28276
819.762	28341
819.903	28371
820.043	28291
820.184	28371
820.324	28139
820.465	28253
820.605	28196
820.746	28158
820.886	28074
821.026	28181
821.167	28128
821.307	28238
821.447	28143
821.588	27994
821.728	27880
821.868	27884
822.008	27393
822.149	27614
822.289	27485
822.429	27317
822.569	27389
822.709	27184
822.849	27043
822.99	27256
823.13	26971
823.27	26944
823.41	26990
823.55	26838
823.69	27085
823.83	26876
823.97	26925
824.11	26823
824.25	26663
824.389	26845
824.529	26659
824.669	26823
824.809	26925
824.949	26781
825.089	26777
825.228	26697
825.368	26575
825.508	26533
825.648	26720
825.787	26655
825.927	26625
826.067	26670
826.206	26716
826.346	26842
826.485	26632
826.625	26583
826.765	26636
826.904	26659
827.044	26389
827.183	26442
827.323	26278
827.462	26404
827.601	26370
827.741	26465
827.88	26362
828.02	26172
828.159	26358
828.298	26370
828.437	26453
828.577	26324
828.716	26305
828.855	26244
828.994	25989
829.134	26054
829.273	26214
829.412	25890
829.551	26050
829.69	26031
829.829	26012
829.968	26157
830.107	26107
830.246	26031
830.385	26081
830.524	25970
830.663	25826
830.802	25708
830.941	25677
831.08	25666
831.219	25822
831.357	25693
831.496	25856
831.635	25666
831.774	25575
831.913	25559
832.051	25377
832.19	25449
832.329	25441
832.467	25346
832.606	25206
832.744	25263
832.883	25339
833.022	25274
833.16	25236
833.299	25438
833.437	25320
833.576	25468
833.714	25362
833.852	25472
833.991	25506
834.129	25571
834.267	25407
834.406	25354
834.544	25460
834.682	25339
834.821	25346
834.959	25685
835.097	25304
835.235	25460
835.373	25251
835.511	25346
835.65	25225
835.788	25160
835.926	25107
836.064	25053
836.202	24977
836.34	25194
836.478	25190
836.615	25156
836.753	25156
836.891	25221
837.029	25107
837.167	25168
837.305	25065
837.443	24973
837.58	24958
837.718	25046
837.856	25168
837.993	24913
838.131	24886
838.269	24848
838.406	25000
838.544	24814
838.681	24734
838.819	24563
838.956	24536
839.094	24532
839.231	24559
839.369	24681
839.506	24745
839.643	24601
839.781	24429
839.918	24570
840.055	24563
840.193	24433
840.33	24418
840.467	24414
840.604	24448
840.742	24635
840.879	24232
841.016	24285
841.153	24243
841.29	24448
841.427	24414
841.564	24403
841.701	24403
841.838	24441
841.975	24243
842.112	24232
842.249	24251
842.385	24159
842.522	24167
842.659	24235
842.796	24095
842.933	24148
843.069	24022
843.206	24064
843.343	24163
843.479	24026
843.616	24197
843.752	24041
843.889	23954
844.025	23992
844.162	23901
844.298	24038
844.435	23984
844.571	23870
844.708	23935
844.844	24007
844.98	24087
845.117	24018
845.253	23775
845.389	23794
845.525	23874
845.661	23649
845.798	23672
845.934	23589
846.07	23600
846.206	23577
846.342	23722
846.478	23562
846.614	23505
846.75	23372
846.886	23330
847.022	23501
847.158	23478
847.294	23353
847.429	23406
847.565	23360
847.701	23600
847.837	23064
847.972	23098
848.108	23208
848.244	23181
848.379	22953
848.515	22980
848.65	23006
848.786	23056
848.921	23056
849.057	23075
849.192	23094
849.328	22965
849.463	22862
849.598	23029
849.734	22782
849.869	22953
850.004	22767
850.14	22820
850.275	22843
850.41	22622
850.545	22729
850.68	22767
850.815	22573
850.95	22675
851.085	22930
851.22	22733
851.355	22885
851.49	22725
851.625	22748
851.76	22694
851.895	22569
852.03	22672
852.165	22702
852.299	22793
852.434	22946
852.569	22839
852.703	22774
852.838	22801
852.973	22809
853.107	22828
853.242	22698
853.376	22641
853.511	22512
853.645	22512
853.78	22774
853.914	22500
854.048	22478
854.183	22500
854.317	22538
854.451	22725
854.585	22527
854.72	22527
854.854	22656
854.988	22443
855.122	22440
855.256	22409
855.39	22512
855.524	22645
855.658	22637
855.792	22489
855.926	22573
856.06	22561
856.194	22653
856.327	22554
856.461	22462
856.595	22538
856.729	22569
856.862	22702
856.996	22641
857.13	22717
857.263	22778
857.397	22653
857.53	22675
857.664	22451
857.797	22603
857.931	22740
858.064	22546
858.197	22588
858.331	22474
858.464	22402
858.597	22382
858.731	22599
858.864	22607
858.997	22451
859.13	22485
859.263	22592
859.396	22706
859.529	22508
859.662	22569
859.795	22474
859.928	22611
860.061	22653
860.194	22866
860.327	22550
860.46	22618
860.592	22672
860.725	22733
860.858	22660
860.99	22656
861.123	22413
861.256	22516
861.388	22466
861.521	23204
861.653	22261
861.786	22367
861.918	22299
862.05	22451
862.183	22390
862.315	22455
862.447	22588
862.58	22497
862.712	22295
862.844	22230
862.976	22451
863.108	22284
863.24	22626
863.372	22185
863.504	22333
863.636	22363
863.768	22341
863.9	22234
864.032	22166
864.164	22207
864.296	22325
864.428	22440
864.559	22417
864.691	22413
864.823	22070
864.954	22299
865.086	22261
865.217	22223
865.349	22124
865.48	22090
865.612	22128
865.743	22322
865.875	22070
866.006	22101
866.137	22063
866.269	22051
866.4	22029
866.531	22086
866.662	22006
866.793	22131
866.924	22063
867.055	22032
867.186	22063
867.317	22013
867.448	21953
867.579	22143
867.71	22006
867.841	22044
867.972	22131
868.103	22017
868.233	22067
868.364	22029
868.495	22253
868.625	22215
868.756	22382
868.886	22196
869.017	22322
869.147	22371
869.278	22462
869.408	22322
869.539	22333
869.669	22352
869.799	22405
869.929	22394
870.06	22382
870.19	22584
870.32	22653
870.45	22736
870.58	22653
870.71	22805
870.84	22869
870.97	22630
871.1	22672
871.23	22866
871.36	22934
871.489	22748
871.619	22885
871.749	23003
871.879	22885
872.008	23037
872.138	22854
872.267	22972
872.397	22668
872.526	22668
872.656	22733
872.785	22816
872.915	22961
873.044	23067
873.173	22877
873.303	22953
873.432	22908
873.561	22965
873.69	22839
873.819	22965
873.948	22904
874.077	22930
874.206	22828
874.335	22858
874.464	22991
874.593	23090
874.722	23067
874.851	23105
874.979	23143
875.108	23018
875.237	23128
875.365	22965
875.494	23102
875.623	23174
875.751	23117
875.88	23117
876.008	23223
876.136	23216
876.265	23459
876.393	23707
876.521	23589
876.65	23619
876.778	23547
876.906	23463
877.034	23364
877.162	23391
877.29	23421
877.418	23535
877.546	23440
877.674	23547
877.802	23566
877.93	23398
878.058	23474
878.185	23178
878.313	23429
878.441	23383
878.568	23231
878.696	23337
878.824	23414
878.951	23570
879.079	23524
879.206	23752
879.333	23524
879.461	23486
879.588	23520
879.715	23653
879.842	23634
879.97	23482
880.097	23372
880.224	23288
880.351	23334
880.478	23417
880.605	23261
880.732	23292
880.859	23493
880.986	23170
881.112	23246
881.239	23189
881.366	23025
881.493	22892
881.619	22759
881.746	22885
881.872	22850
881.999	22801
882.125	22805
882.252	22892
882.378	22927
882.505	22923
882.631	22729
882.757	22573
882.883	22584
883.01	22577
883.136	22447
883.262	22242
883.388	22398
883.514	22542
883.64	22493
883.766	22508
883.892	22249
884.018	22371
884.143	22436
884.269	22538
884.395	22306
884.52	22032
884.646	22196
884.772	21979
884.897	22063
885.023	22200
885.148	22230
885.274	22333
885.399	22070
885.524	22177
885.65	22158
885.775	22112
885.9	21998
886.025	22181
886.15	22265
886.275	22090
886.4	22021
886.525	22188
886.65	21956
886.775	22029
886.9	22200
887.025	22489
887.149	22154
887.274	21880
887.399	21972
887.523	21975
887.648	21865
887.773	21778
887.897	21975
888.021	21987
888.146	21846
888.27	21873
888.395	21869
888.519	21831
888.643	21903
888.767	21983
888.891	21789
889.015	21728
889.139	21705
889.263	21663
889.387	21667
889.511	21827
889.635	21892
889.759	21675
889.883	21667
890.006	21747
890.13	21720
890.254	21633
890.377	21618
890.501	21450
890.624	21359
890.748	21397
890.871	21260
890.995	21233
891.118	21116
891.241	21245
891.364	21214
891.488	21329
891.611	21275
891.734	21222
891.857	21348
891.98	21325
892.103	21108
892.226	21237
892.349	21150
892.471	21005
892.594	21055
892.717	21169
892.839	21070
892.962	21192
893.085	21245
893.207	21093
893.33	21043
893.452	20982
893.575	21150
893.697	20963
893.819	21310
893.941	21317
894.064	21283
894.186	21032
894.308	20925
894.43	21317
894.552	21264
894.674	21138
894.796	21024
894.918	20998
895.04	21138
895.161	21306
895.283	21043
895.405	21024
895.526	21085
895.648	21127
895.769	21070
895.891	21039
896.012	21180
896.134	21123
896.255	21017
896.376	20918
896.498	21093
896.619	21203
896.74	21138
896.861	21203
896.982	21370
897.103	21526
897.224	21329
897.345	21382
897.466	21302
897.587	21279
897.708	21420
897.828	21321
897.949	21325
898.07	21085
898.19	21310
898.311	21435
898.431	21332
898.552	21203
898.672	21313
898.792	21473
898.913	21169
899.033	21127
899.153	21157
899.273	20906
899.393	21161
899.513	20994
899.633	21032
899.753	21070
899.873	20971
899.993	21085
900.113	20921
900.232	21108
900.352	20845
900.472	20762
900.591	20705
900.711	20819
900.83	20739
900.95	20952
901.069	20796
901.189	20571
901.308	20412
901.427	20313
901.546	20320
901.665	20355
901.784	20419
901.904	20187
902.023	20176
902.141	19902
902.26	19883
902.379	19978
902.498	19902
902.617	19784
902.735	19788
902.854	19753
902.973	19689
903.091	19655
903.21	19468
903.328	19537
903.446	19438
903.565	19396
903.683	19343
903.801	19156
903.919	19407
904.038	19297
904.156	19114
904.274	19168
904.392	19042
904.51	19008
904.627	19141
904.745	19141
904.863	19107
904.981	18897
905.098	18654
905.216	18726
905.334	18856
905.451	18757
905.569	18734
905.686	18734
905.803	18821
905.921	18460
906.038	18665
906.155	18551
906.272	18426
906.389	18369
906.506	18285
906.623	18285
906.74	18323
906.857	18232
906.974	18121
907.091	18247
907.208	18346
907.324	18243
907.441	18091
907.557	18034
907.674	18011
907.79	17958
907.907	17923
908.023	17897
908.139	17996
908.256	17927
908.372	17912
908.488	17866
908.604	17737
908.72	17638
908.836	17653
908.952	17684
909.068	17707
909.184	17691
909.3	17646
909.415	17764
909.531	17634
909.647	17471
909.762	17303
909.878	17349
909.993	17383
910.108	17326
910.224	17277
910.339	17372
910.454	17258
910.57	17223
910.685	17170
910.8	17334
910.915	17391
911.03	17128
911.145	16980
911.259	16938
911.374	16987
911.489	16896
911.604	16850
911.718	16748
911.833	16721
911.947	16641
912.062	16626
912.176	16664
912.291	16675
912.405	16778
912.519	16858
912.633	16881
912.748	16717
912.862	16596
912.976	16459
913.09	16504
913.204	16523
913.318	16462
913.431	16641
913.545	16561
913.659	16580
913.772	16344
913.886	16394
914	16363
914.113	16363
914.226	16348
914.34	16367
914.453	16234
914.566	16386
914.68	16116
914.793	16116
914.906	16055
915.019	15838
915.132	15876
915.245	15854
915.358	15865
915.47	15819
915.583	15937
915.696	15945
915.809	15975
915.921	15983
916.034	15827
916.146	15812
916.259	15667
916.371	15850
916.483	15907
916.595	15755
916.708	15637
916.82	15698
916.932	15778
917.044	15743
917.156	15610
917.268	15545
917.38	15530
917.491	15477
917.603	15526
917.715	15568
917.826	15553
917.938	15424
918.049	15374
918.161	15401
918.272	15637
918.384	15603
918.495	15310
918.606	15306
918.717	15256
918.828	15363
918.939	15310
919.05	15188
919.161	15112
919.272	15142
919.383	15077
919.494	15291
919.604	15386
919.715	15233
919.826	15081
919.936	15226
920.047	15184
920.157	15291
920.267	15351
920.378	15233
920.488	15214
920.598	15382
920.708	15515
920.818	15329
920.928	15321
921.038	15473
921.148	15401
921.258	15199
921.368	15055
921.477	14979
921.587	14872
921.697	14823
921.806	14982
921.916	14762
922.025	14674
922.134	14602
922.244	14419
922.353	14594
922.462	14450
922.571	14396
922.68	14275
922.789	14195
922.898	14180
923.007	14263
923.116	14183
923.224	14191
923.333	14164
923.442	13955
923.55	14027
923.659	14058
923.767	14084
923.876	13967
923.984	14065
924.092	13970
924.201	13940
924.309	13928
924.417	13852
924.525	13826
924.633	13822
924.741	14697
924.849	13632
924.956	13742
925.064	13689
925.172	13449
925.279	13559
925.387	13582
925.494	13597
925.602	13753
925.709	13609
925.816	13510
925.924	13575
926.031	13540
926.138	13483
926.245	13521
926.352	13403
926.459	13548
926.566	13525
926.673	13365
926.779	13320
926.886	13301
926.993	13152
927.099	13069
927.206	13038
927.312	12981
927.419	13038
927.525	13133
927.631	13133
927.737	12966
927.843	12928
927.95	12882
928.056	12924
928.162	12932
928.267	12993
928.373	13457
928.479	13031
928.585	12741
928.69	12814
928.796	12962
928.901	12852
929.007	12639
929.112	12730
929.218	12646
929.323	12707
929.428	12627
929.533	12730
929.638	12665
929.743	12601
929.848	12639
929.953	12467
930.058	12498
930.163	12292
930.267	12327
930.372	12429
930.477	12315
930.581	12547
930.685	12433
930.79	12186
930.894	12209
930.998	12163
931.103	12273
931.207	11901
931.311	11851
931.415	11764
931.519	11608
931.623	11547
