Data from test_V78500241_1400.txt Node
Date: Fri Mar 25 15:51:29 CST 2022
User: usil
Spectrometer: V785-0024
Trigger mode: 0
Integration Time (sec): 4.000000E-1
Scans to average: 1
Nonlinearity correction enabled: false
Boxcar width: 0
Storing dark spectrum: false
XAxis mode: Wavelengths
Number of Pixels in Spectrum: 1024
>>>>>Begin Spectral Data<<<<<
801.071	27854
801.214	27736
801.356	27416
801.499	27572
801.641	27306
801.783	27233
801.926	27313
802.068	27252
802.211	27306
802.353	27203
802.496	26998
802.638	26933
802.78	26937
802.923	26887
803.065	26826
803.208	27024
803.35	27089
803.492	27096
803.635	27116
803.777	27024
803.919	27218
804.061	27500
804.204	27340
804.346	27150
804.488	27032
804.63	27218
804.773	27108
804.915	27180
805.057	27325
805.199	27203
805.341	27386
805.483	27264
805.626	27382
805.768	27214
805.91	27416
806.052	27275
806.194	27275
806.336	27564
806.478	27420
806.62	27408
806.762	27561
806.904	27557
807.046	27861
807.188	27789
807.33	27865
807.472	27922
807.614	27694
807.756	27675
807.898	27542
808.04	27583
808.182	27473
808.324	27652
808.465	27797
808.607	27914
808.749	27945
808.891	28051
809.033	28223
809.174	28040
809.316	27949
809.458	27850
809.6	27892
809.741	28150
809.883	28207
810.025	28211
810.166	28268
810.308	28261
810.45	28234
810.591	28261
810.733	27991
810.875	27979
811.016	27861
811.158	27922
811.299	27991
811.441	28128
811.582	28120
811.724	27911
811.865	27850
812.007	27953
812.148	27800
812.29	27979
812.431	28021
812.573	28318
812.714	28344
812.855	28470
812.997	28626
813.138	28653
813.279	28535
813.421	28344
813.562	28356
813.703	28257
813.845	28166
813.986	27880
814.127	27850
814.268	27736
814.41	27667
814.551	27481
814.692	27667
814.833	27545
814.974	27500
815.115	27686
815.256	27606
815.397	27507
815.539	27382
815.68	27591
815.821	27458
815.962	27488
816.103	27393
816.244	27462
816.385	27245
816.526	27386
816.666	26990
816.807	26849
816.948	26899
817.089	26986
817.23	26990
817.371	27009
817.512	26940
817.653	26899
817.793	26845
817.934	26921
818.075	26914
818.216	27001
818.356	26834
818.497	26800
818.638	26697
818.778	26511
818.919	26705
819.06	26750
819.2	26746
819.341	26895
819.481	26906
819.622	27062
819.762	27176
819.903	27272
820.043	27058
820.184	26994
820.324	27039
820.465	27154
820.605	27119
820.746	27043
820.886	27017
821.026	27066
821.167	26899
821.307	27116
821.447	27051
821.588	26971
821.728	26800
821.868	26514
822.008	26415
822.149	26366
822.289	26320
822.429	26176
822.569	26088
822.709	26267
822.849	26103
822.99	25982
823.13	25932
823.27	25966
823.41	25635
823.55	25590
823.69	25727
823.83	25734
823.97	25696
824.11	25396
824.25	25632
824.389	25635
824.529	25681
824.669	25666
824.809	25632
824.949	25742
825.089	25597
825.228	25689
825.368	25441
825.508	25468
825.648	25438
825.787	25491
825.927	25377
826.067	25552
826.206	25525
826.346	25594
826.485	25521
826.625	25438
826.765	25685
826.904	25514
827.044	25270
827.183	25194
827.323	25148
827.462	25206
827.601	25137
827.741	25175
827.88	25103
828.02	25061
828.159	25152
828.298	25008
828.437	25160
828.577	25076
828.716	25164
828.855	24981
828.994	24692
829.134	24886
829.273	24905
829.412	24928
829.551	24844
829.69	24894
829.829	24852
829.968	24958
830.107	24992
830.246	24890
830.385	24913
830.524	24703
830.663	24753
830.802	24563
830.941	24403
831.08	24357
831.219	24509
831.357	24616
831.496	24646
831.635	24505
831.774	24410
831.913	24342
832.051	24315
832.19	24308
832.329	24266
832.467	24232
832.606	23958
832.744	24098
832.883	24053
833.022	24053
833.16	24087
833.299	24110
833.437	24171
833.576	24163
833.714	24110
833.852	24239
833.991	24224
834.129	24292
834.267	24369
834.406	24095
834.544	24159
834.682	24235
834.821	24136
834.959	24247
835.097	24064
835.235	24152
835.373	24186
835.511	24144
835.65	23969
835.788	24053
835.926	23893
836.064	23885
836.202	23760
836.34	23999
836.478	24018
836.615	23977
836.753	24022
836.891	23992
837.029	24030
837.167	23935
837.305	23874
837.443	23916
837.58	23764
837.718	23912
837.856	23874
837.993	23786
838.131	23775
838.269	23760
838.406	23771
838.544	23764
838.681	23608
838.819	23490
838.956	23296
839.094	23277
839.231	23246
839.369	23387
839.506	23668
839.643	23577
839.781	23280
839.918	23239
840.055	23261
840.193	23185
840.33	23235
840.467	23242
840.604	23345
840.742	23387
840.879	23220
841.016	23204
841.153	23128
841.29	23307
841.427	23220
841.564	23414
841.701	23197
841.838	23136
841.975	23124
842.112	23124
842.249	23075
842.385	22957
842.522	23204
842.659	22984
842.796	22995
842.933	23060
843.069	22957
843.206	23022
843.343	23048
843.479	22984
843.616	23105
843.752	22862
843.889	22744
844.025	22911
844.162	22793
844.298	22809
844.435	22843
844.571	22759
844.708	22729
844.844	22854
844.98	22850
845.117	22927
845.253	22645
845.389	22565
845.525	22736
845.661	22607
845.798	22459
845.934	22466
846.07	22451
846.206	22611
846.342	22592
846.478	22436
846.614	22261
846.75	22135
846.886	22200
847.022	22367
847.158	22249
847.294	22253
847.429	22272
847.565	22150
847.701	22508
847.837	21991
847.972	21949
848.108	22154
848.244	22010
848.379	21903
848.515	21835
848.65	21804
848.786	21766
848.921	21888
849.057	21876
849.192	21899
849.328	21823
849.463	21899
849.598	21766
849.734	21736
849.869	21671
850.004	21587
850.14	21583
850.275	21591
850.41	21603
850.545	21523
850.68	21428
850.815	21648
850.95	21599
851.085	21679
851.22	21641
851.355	21682
851.49	21523
851.625	21519
851.76	21515
851.895	21386
852.03	21416
852.165	21511
852.299	21561
852.434	21530
852.569	21599
852.703	21667
852.838	21583
852.973	21732
853.107	21618
853.242	21340
853.376	21439
853.511	21275
853.645	21389
853.78	21519
853.914	21488
854.048	21408
854.183	21443
854.317	21515
854.451	21622
854.585	21424
854.72	21367
854.854	21496
854.988	21431
855.122	21416
855.256	21226
855.39	21397
855.524	21454
855.658	21408
855.792	21542
855.926	21488
856.06	21530
856.194	21443
856.327	21378
856.461	21260
856.595	21287
856.729	21348
856.862	21401
856.996	21553
857.13	21435
857.263	21504
857.397	21351
857.53	21397
857.664	21599
857.797	21542
857.931	21454
858.064	21408
858.197	21511
858.331	21275
858.464	21443
858.597	21294
858.731	21329
858.864	21374
858.997	21416
859.13	21367
859.263	21408
859.396	21488
859.529	21462
859.662	21355
859.795	21317
859.928	21454
860.061	21542
860.194	21652
860.327	21332
860.46	21424
860.592	21469
860.725	21507
860.858	21545
860.99	21386
861.123	21207
861.256	21275
861.388	21405
861.521	22078
861.653	21195
861.786	21287
861.918	21237
862.05	21249
862.183	21325
862.315	21348
862.447	21408
862.58	21340
862.712	21150
862.844	21005
862.976	21123
863.108	21135
863.24	21538
863.372	21058
863.504	20986
863.636	20971
863.768	21104
863.9	21093
864.032	20929
864.164	21127
864.296	21127
864.428	21249
864.559	21161
864.691	21272
864.823	21104
864.954	21161
865.086	21150
865.217	20971
865.349	20963
865.48	20982
865.612	20994
865.743	21184
865.875	20929
866.006	21096
866.137	20891
866.269	20880
866.4	21013
866.531	20948
866.662	20880
866.793	20746
866.924	20990
867.055	21028
867.186	20979
867.317	20819
867.448	20819
867.579	20895
867.71	20815
867.841	20914
867.972	20834
868.103	20941
868.233	20956
868.364	20933
868.495	21020
868.625	21173
868.756	21268
868.886	21058
869.017	21241
869.147	21325
869.278	21275
869.408	21180
869.539	21180
869.669	21382
869.799	21363
869.929	21317
870.06	21348
870.19	21519
870.32	21481
870.45	21477
870.58	21488
870.71	21667
870.84	21622
870.97	21519
871.1	21679
871.23	21770
871.36	21835
871.489	21618
871.619	21766
871.749	21804
871.879	21762
872.008	21888
872.138	21842
872.267	21819
872.397	21660
872.526	21656
872.656	21663
872.785	21694
872.915	21789
873.044	21937
873.173	21797
873.303	21949
873.432	21831
873.561	21793
873.69	21785
873.819	21854
873.948	21926
874.077	21705
874.206	21827
874.335	21816
874.464	22013
874.593	22128
874.722	22044
874.851	22002
874.979	22082
875.108	22025
875.237	21991
875.365	21873
875.494	21865
875.623	22082
875.751	21899
875.88	22051
876.008	22150
876.136	22226
876.265	22314
876.393	22603
876.521	22497
876.65	22535
876.778	22348
876.906	22405
877.034	22238
877.162	22386
877.29	22371
877.418	22455
877.546	22375
877.674	22318
877.802	22367
877.93	22474
878.058	22360
878.185	22238
878.313	22291
878.441	22500
878.568	22314
878.696	22253
878.824	22417
878.951	22466
879.079	22489
879.206	22656
879.333	22466
879.461	22333
879.588	22447
879.715	22466
879.842	22717
879.97	22402
880.097	22325
880.224	22181
880.351	22192
880.478	22185
880.605	22223
880.732	22150
880.859	22394
880.986	22166
881.112	22211
881.239	22192
881.366	21907
881.493	21876
881.619	21766
881.746	21800
881.872	21892
881.999	21789
882.125	21705
882.252	21941
882.378	21876
882.505	21774
882.631	21663
882.757	21443
882.883	21530
883.01	21576
883.136	21485
883.262	21332
883.388	21260
883.514	21485
883.64	21454
883.766	21477
883.892	21260
884.018	21336
884.143	21466
884.269	21530
884.395	21188
884.52	21074
884.646	21157
884.772	21161
884.897	21108
885.023	21062
885.148	21245
885.274	21325
885.399	21161
885.524	21169
885.65	21142
885.775	21123
885.9	21043
886.025	21131
886.15	21161
886.275	21036
886.4	20990
886.525	21142
886.65	21066
886.775	21077
886.9	21214
887.025	21344
887.149	21074
887.274	20857
887.399	20891
887.523	20872
887.648	20788
887.773	20697
887.897	20948
888.021	21013
888.146	20929
888.27	20944
888.395	21009
888.519	21093
888.643	20948
888.767	20960
888.891	20963
889.015	20689
889.139	20724
889.263	20750
889.387	20834
889.511	20792
889.635	20792
889.759	20686
889.883	20659
890.006	20701
890.13	20746
890.254	20568
890.377	20632
890.501	20438
890.624	20282
890.748	20511
890.871	20355
890.995	20282
891.118	20161
891.241	20339
891.364	20358
891.488	20313
891.611	20244
891.734	20320
891.857	20248
891.98	20168
892.103	20225
892.226	20191
892.349	20282
892.471	19970
892.594	20103
892.717	20199
892.839	20187
892.962	20126
893.085	20336
893.207	20206
893.33	20103
893.452	20073
893.575	20172
893.697	20111
893.819	20138
893.941	20275
894.064	20339
894.186	20065
894.308	20122
894.43	20240
894.552	20324
894.674	20119
894.796	20043
894.918	20119
895.04	20126
895.161	20206
895.283	20252
895.405	20081
895.526	20145
895.648	20187
895.769	20107
895.891	20240
896.012	20309
896.134	20202
896.255	20130
896.376	20084
896.498	20164
896.619	20244
896.74	20199
896.861	20069
896.982	20507
897.103	20549
897.224	20492
897.345	20336
897.466	20324
897.587	20374
897.708	20415
897.828	20339
897.949	20286
898.07	20073
898.19	20313
898.311	20511
898.431	20332
898.552	20347
898.672	20412
898.792	20393
898.913	20438
899.033	20336
899.153	20107
899.273	20126
899.393	20111
899.513	20119
899.633	20081
899.753	20172
899.873	20149
899.993	20126
900.113	20069
900.232	20111
900.352	20039
900.472	19963
900.591	19887
900.711	20005
900.83	19921
900.95	19974
901.069	19947
901.189	19795
901.308	19525
901.427	19476
901.546	19514
901.665	19518
901.784	19483
901.904	19343
902.023	19251
902.141	19072
902.26	19023
902.379	19069
902.498	19012
902.617	18932
902.735	19004
902.854	18935
902.973	18962
903.091	18620
903.21	18734
903.328	18707
903.446	18506
903.565	18475
903.683	18380
903.801	18353
903.919	18521
904.038	18418
904.156	18273
904.274	18292
904.392	18106
904.51	18235
904.627	18114
904.745	18270
904.863	18277
904.981	18034
905.098	17821
905.216	17821
905.334	17988
905.451	17935
905.569	17878
905.686	17954
905.803	17897
905.921	17623
906.038	17790
906.155	17866
906.272	17570
906.389	17600
906.506	17444
906.623	17326
906.74	17490
906.857	17429
906.974	17334
907.091	17410
907.208	17608
907.324	17471
907.441	17330
907.557	17136
907.674	17193
907.79	17086
907.907	17162
908.023	17136
908.139	17212
908.256	17105
908.372	17151
908.488	16946
908.604	16850
908.72	16881
908.836	16938
908.952	16866
909.068	16831
909.184	16942
909.3	16812
909.415	16930
909.531	16812
909.647	16679
909.762	16626
909.878	16630
909.993	16531
910.108	16672
910.224	16573
910.339	16516
910.454	16512
910.57	16356
910.685	16371
910.8	16599
910.915	16550
911.03	16421
911.145	16246
911.259	16154
911.374	16234
911.489	16173
911.604	15941
911.718	15895
911.833	15918
911.947	15835
912.062	15778
912.176	15846
912.291	15903
912.405	16025
912.519	16006
912.633	16063
912.748	15968
912.862	15865
912.976	15671
913.09	15656
913.204	15720
913.318	15812
913.431	15873
913.545	15789
913.659	15766
913.772	15622
913.886	15610
914	15591
914.113	15625
914.226	15648
914.34	15545
914.453	15336
914.566	15618
914.68	15378
914.793	15336
914.906	15157
915.019	15192
915.132	15032
915.245	15138
915.358	15180
915.47	15173
915.583	15192
915.696	15150
915.809	15298
915.921	15325
916.034	15108
916.146	15024
916.259	14986
916.371	15154
916.483	15157
916.595	14948
916.708	14956
916.82	14906
916.932	14868
917.044	14906
917.156	14921
917.268	14788
917.38	14861
917.491	14804
917.603	14811
917.715	14971
917.826	14887
917.938	14762
918.049	14621
918.161	14773
918.272	14902
918.384	14758
918.495	14777
918.606	14636
918.717	14423
918.828	14689
918.939	14610
919.05	14450
919.161	14629
919.272	14320
919.383	14347
919.494	14560
919.604	14674
919.715	14526
919.826	14389
919.936	14522
920.047	14617
920.157	14598
920.267	14769
920.378	14560
920.488	14598
920.598	14686
920.708	14853
920.818	14689
920.928	14632
921.038	14826
921.148	14720
921.258	14446
921.368	14434
921.477	14301
921.587	14294
921.697	14206
921.806	14298
921.916	14111
922.025	13986
922.134	13909
922.244	13856
922.353	13974
922.462	13818
922.571	13723
922.68	13651
922.789	13586
922.898	13636
923.007	13460
923.116	13597
923.224	13533
923.333	13464
923.442	13468
923.55	13320
923.659	13335
923.767	13499
923.876	13392
923.984	13525
924.092	13251
924.201	13362
924.309	13373
924.417	13339
924.525	13202
924.633	13213
924.741	14024
924.849	13061
924.956	13103
925.064	13000
925.172	12890
925.279	12932
925.387	12962
925.494	12932
925.602	13027
925.709	12981
925.816	12829
925.924	12798
926.031	12848
926.138	12901
926.245	12932
926.352	12837
926.459	12916
926.566	12943
926.673	12871
926.779	12711
926.886	12593
926.993	12582
927.099	12471
927.206	12475
927.312	12445
927.419	12597
927.525	12521
927.631	12593
927.737	12437
927.843	12479
927.95	12285
928.056	12315
928.162	12346
928.267	12445
928.373	12951
928.479	12330
928.585	12091
928.69	12365
928.796	12338
928.901	12178
929.007	12038
929.112	12251
929.218	12178
929.323	12098
929.428	12038
929.533	12239
929.638	11969
929.743	11988
929.848	12152
929.953	12053
930.058	11939
930.163	11783
930.267	11817
930.372	11916
930.477	11748
930.581	11901
930.685	11786
930.79	11756
930.894	11657
930.998	11630
931.103	11748
931.207	11368
931.311	11261
931.415	11174
931.519	11064
931.623	11037
