Data from test_V78500241_3405.txt Node
Date: Fri Mar 25 16:05:23 CST 2022
User: usil
Spectrometer: V785-0024
Trigger mode: 0
Integration Time (sec): 4.000000E-1
Scans to average: 1
Nonlinearity correction enabled: false
Boxcar width: 0
Storing dark spectrum: false
XAxis mode: Wavelengths
Number of Pixels in Spectrum: 1024
>>>>>Begin Spectral Data<<<<<
801.071	28805
801.214	28752
801.356	28584
801.499	28466
801.641	28367
801.783	28314
801.926	28375
802.068	28287
802.211	28265
802.353	28371
802.496	28109
802.638	28120
802.78	27972
802.923	28063
803.065	27888
803.208	28055
803.35	28082
803.492	28173
803.635	28246
803.777	28234
803.919	28352
804.061	28618
804.204	28310
804.346	28135
804.488	28246
804.63	28344
804.773	28230
804.915	28333
805.057	28550
805.199	28276
805.341	28272
805.483	28497
805.626	28405
805.768	28489
805.91	28516
806.052	28398
806.194	28299
806.336	28736
806.478	28401
806.62	28436
806.762	28569
806.904	28824
807.046	29037
807.188	28957
807.33	28812
807.472	28953
807.614	28675
807.756	28942
807.898	28778
808.04	28618
808.182	28729
808.324	28721
808.465	28744
808.607	28946
808.749	29185
808.891	29303
809.033	29277
809.174	29174
809.316	29166
809.458	29079
809.6	29193
809.741	29174
809.883	29299
810.025	29478
810.166	29322
810.308	29486
810.45	29486
810.591	29330
810.733	29200
810.875	29212
811.016	29102
811.158	29094
811.299	29307
811.441	29368
811.582	29223
811.724	29140
811.865	29105
812.007	29235
812.148	29227
812.29	29174
812.431	29387
812.573	29486
812.714	29554
812.855	29733
812.997	29767
813.138	29904
813.279	29786
813.421	29615
813.562	29604
813.703	29493
813.845	29452
813.986	29151
814.127	28980
814.268	28938
814.41	28866
814.551	28942
814.692	29014
814.833	28866
814.974	28740
815.115	29022
815.256	28847
815.397	28812
815.539	28801
815.68	28733
815.821	28607
815.962	28778
816.103	28702
816.244	28683
816.385	28500
816.526	28485
816.666	28318
816.807	28185
816.948	28253
817.089	28371
817.23	28325
817.371	28166
817.512	28192
817.653	28158
817.793	28166
817.934	28238
818.075	28196
818.216	28287
818.356	28120
818.497	28025
818.638	27983
818.778	28074
818.919	27926
819.06	27987
819.2	28147
819.341	28131
819.481	28166
819.622	28375
819.762	28679
819.903	28474
820.043	28421
820.184	28268
820.324	28394
820.465	28382
820.605	28405
820.746	28268
820.886	28147
821.026	28314
821.167	28261
821.307	28261
821.447	28234
821.588	28131
821.728	28010
821.868	27903
822.008	27656
822.149	27660
822.289	27686
822.429	27351
822.569	27363
822.709	27329
822.849	27116
822.99	27226
823.13	27154
823.27	27135
823.41	27058
823.55	26864
823.69	27157
823.83	26944
823.97	26921
824.11	26727
824.25	26842
824.389	26758
824.529	26811
824.669	26952
824.809	26929
824.949	27005
825.089	26918
825.228	26937
825.368	26689
825.508	26762
825.648	26769
825.787	26785
825.927	26830
826.067	26746
826.206	26781
826.346	26883
826.485	26830
826.625	26819
826.765	26876
826.904	26864
827.044	26587
827.183	26602
827.323	26396
827.462	26594
827.601	26613
827.741	26446
827.88	26552
828.02	26396
828.159	26476
828.298	26434
828.437	26450
828.577	26377
828.716	26492
828.855	26267
828.994	26138
829.134	26225
829.273	26199
829.412	26103
829.551	26111
829.69	26065
829.829	26309
829.968	26271
830.107	26157
830.246	26149
830.385	26096
830.524	26050
830.663	25871
830.802	25951
830.941	25746
831.08	25799
831.219	25909
831.357	25947
831.496	26142
831.635	25803
831.774	25723
831.913	25647
832.051	25658
832.19	25487
832.329	25544
832.467	25377
832.606	25308
832.744	25415
832.883	25419
833.022	25388
833.16	25384
833.299	25491
833.437	25472
833.576	25499
833.714	25506
833.852	25487
833.991	25567
834.129	25518
834.267	25597
834.406	25441
834.544	25415
834.682	25487
834.821	25430
834.959	25677
835.097	25411
835.235	25491
835.373	25468
835.511	25476
835.65	25396
835.788	25396
835.926	25225
836.064	25148
836.202	25156
836.34	25362
836.478	25388
836.615	25263
836.753	25301
836.891	25426
837.029	25468
837.167	25259
837.305	25171
837.443	25129
837.58	25194
837.718	25236
837.856	25179
837.993	25076
838.131	24920
838.269	25000
838.406	24973
838.544	24954
838.681	24806
838.819	24798
838.956	24597
839.094	24521
839.231	24738
839.369	24871
839.506	25088
839.643	25019
839.781	24559
839.918	24509
840.055	24540
840.193	24540
840.33	24505
840.467	24471
840.604	24505
840.742	24829
840.879	24384
841.016	24353
841.153	24353
841.29	24665
841.427	24452
841.564	24521
841.701	24528
841.838	24528
841.975	24319
842.112	24407
842.249	24342
842.385	24262
842.522	24547
842.659	24319
842.796	24304
842.933	24388
843.069	24319
843.206	24155
843.343	24350
843.479	24266
843.616	24327
843.752	24064
843.889	23980
844.025	24213
844.162	24030
844.298	24201
844.435	24144
844.571	24034
844.708	24007
844.844	24292
844.98	24117
845.117	24053
845.253	23969
845.389	23908
845.525	23908
845.661	23790
845.798	23805
845.934	23752
846.07	23866
846.206	23889
846.342	23760
846.478	23863
846.614	23657
846.75	23402
846.886	23452
847.022	23528
847.158	23524
847.294	23463
847.429	23535
847.565	23353
847.701	23691
847.837	23216
847.972	23189
848.108	23315
848.244	23269
848.379	23159
848.515	23128
848.65	23216
848.786	23136
848.921	23121
849.057	23273
849.192	23014
849.328	23140
849.463	23037
849.598	23010
849.734	22995
849.869	22961
850.004	22801
850.14	22801
850.275	22839
850.41	22683
850.545	22710
850.68	22752
850.815	22889
850.95	22831
851.085	23044
851.22	22923
851.355	22904
851.49	22999
851.625	22812
851.76	22812
851.895	22805
852.03	22771
852.165	22759
852.299	22858
852.434	23014
852.569	22919
852.703	22675
852.838	22873
852.973	23071
853.107	22915
853.242	22919
853.376	22790
853.511	22577
853.645	22546
853.78	22759
853.914	22793
854.048	22721
854.183	22694
854.317	22622
854.451	22831
854.585	22653
854.72	22637
854.854	22668
854.988	22603
855.122	22535
855.256	22637
855.39	22736
855.524	22759
855.658	22615
855.792	22725
855.926	22660
856.06	22752
856.194	22771
856.327	22721
856.461	22759
856.595	22615
856.729	22550
856.862	22748
856.996	22744
857.13	22755
857.263	22858
857.397	22790
857.53	22615
857.664	22767
857.797	22672
857.931	22778
858.064	22767
858.197	22816
858.331	22698
858.464	22584
858.597	22569
858.731	22596
858.864	22561
858.997	22740
859.13	22740
859.263	22649
859.396	22801
859.529	22626
859.662	22649
859.795	22573
859.928	22645
860.061	22664
860.194	22885
860.327	22713
860.46	22626
860.592	22850
860.725	22850
860.858	22778
860.99	22607
861.123	22630
861.256	22679
861.388	22535
861.521	23429
861.653	22573
861.786	22523
861.918	22523
862.05	22592
862.183	22519
862.315	22679
862.447	22672
862.58	22653
862.712	22398
862.844	22390
862.976	22394
863.108	22577
863.24	22752
863.372	22306
863.504	22451
863.636	22535
863.768	22455
863.9	22421
864.032	22413
864.164	22371
864.296	22470
864.428	22432
864.559	22470
864.691	22356
864.823	22398
864.954	22333
865.086	22398
865.217	22299
865.349	22101
865.48	22284
865.612	22219
865.743	22447
865.875	22196
866.006	22230
866.137	22265
866.269	22162
866.4	22230
866.531	22116
866.662	22051
866.793	22162
866.924	22166
867.055	22204
867.186	22200
867.317	22188
867.448	22090
867.579	22192
867.71	22067
867.841	22082
867.972	22181
868.103	22120
868.233	22143
868.364	22162
868.495	22238
868.625	22561
868.756	22489
868.886	22287
869.017	22531
869.147	22554
869.278	22402
869.408	22470
869.539	22474
869.669	22561
869.799	22508
869.929	22527
870.06	22531
870.19	22740
870.32	22736
870.45	22763
870.58	22809
870.71	22946
870.84	22919
870.97	22877
871.1	22740
871.23	23025
871.36	22972
871.489	22843
871.619	23086
871.749	23064
871.879	23044
872.008	23200
872.138	23010
872.267	22991
872.397	22961
872.526	22995
872.656	22862
872.785	22885
872.915	22980
873.044	23193
873.173	23025
873.303	23189
873.432	23056
873.561	23029
873.69	23033
873.819	22968
873.948	23105
874.077	23052
874.206	23048
874.335	23025
874.464	23132
874.593	23299
874.722	23193
874.851	23284
874.979	23311
875.108	23372
875.237	23242
875.365	23025
875.494	23216
875.623	23280
875.751	23356
875.88	23315
876.008	23318
876.136	23353
876.265	23570
876.393	23771
876.521	23733
876.65	23722
876.778	23741
876.906	23543
877.034	23482
877.162	23615
877.29	23509
877.418	23687
877.546	23585
877.674	23600
877.802	23524
877.93	23520
878.058	23634
878.185	23509
878.313	23486
878.441	23505
878.568	23387
878.696	23611
878.824	23642
878.951	23672
879.079	23790
879.206	23920
879.333	23653
879.461	23623
879.588	23745
879.715	23920
879.842	23805
879.97	23665
880.097	23448
880.224	23296
880.351	23524
880.478	23478
880.605	23417
880.732	23303
880.859	23627
880.986	23463
881.112	23372
881.239	23208
881.366	23159
881.493	22961
881.619	22927
881.746	23048
881.872	22949
881.999	22896
882.125	22930
882.252	22877
882.378	22942
882.505	23155
882.631	22809
882.757	22672
882.883	22778
883.01	22683
883.136	22637
883.262	22443
883.388	22493
883.514	22500
883.64	22554
883.766	22485
883.892	22386
884.018	22554
884.143	22565
884.269	22557
884.395	22379
884.52	22329
884.646	22310
884.772	22185
884.897	22238
885.023	22280
885.148	22314
885.274	22363
885.399	22367
885.524	22226
885.65	22272
885.775	22249
885.9	22204
886.025	22265
886.15	22440
886.275	22211
886.4	22166
886.525	22306
886.65	22207
886.775	22181
886.9	22409
887.025	22550
887.149	22124
887.274	22101
887.399	21888
887.523	21911
887.648	21983
887.773	22013
887.897	22078
888.021	22143
888.146	21960
888.27	22082
888.395	22120
888.519	22074
888.643	22093
888.767	21945
888.891	21968
889.015	21724
889.139	21823
889.263	21797
889.387	21918
889.511	21964
889.635	21987
889.759	21846
889.883	21781
890.006	21827
890.13	21953
890.254	21819
890.377	21709
890.501	21538
890.624	21492
890.748	21595
890.871	21488
890.995	21389
891.118	21332
891.241	21393
891.364	21317
891.488	21538
891.611	21458
891.734	21416
891.857	21488
891.98	21439
892.103	21458
892.226	21321
892.349	21268
892.471	21211
892.594	21279
892.717	21283
892.839	21355
892.962	21287
893.085	21389
893.207	21188
893.33	21146
893.452	21287
893.575	21363
893.697	21081
893.819	21367
893.941	21485
894.064	21397
894.186	21180
894.308	21135
894.43	21351
894.552	21382
894.674	21325
894.796	21237
894.918	21150
895.04	21188
895.161	21317
895.283	21294
895.405	21184
895.526	21173
895.648	21306
895.769	21237
895.891	21203
896.012	21313
896.134	21245
896.255	21241
896.376	21222
896.498	21199
896.619	21230
896.74	21165
896.861	21249
896.982	21469
897.103	21652
897.224	21511
897.345	21389
897.466	21325
897.587	21321
897.708	21500
897.828	21595
897.949	21408
898.07	21363
898.19	21424
898.311	21469
898.431	21393
898.552	21386
898.672	21450
898.792	21454
898.913	21477
899.033	21401
899.153	21214
899.273	21020
899.393	21131
899.513	21230
899.633	21142
899.753	21173
899.873	21047
899.993	21161
900.113	21146
900.232	21180
900.352	21131
900.472	21096
900.591	20864
900.711	21020
900.83	20933
900.95	21001
901.069	20925
901.189	20807
901.308	20564
901.427	20381
901.546	20434
901.665	20495
901.784	20541
901.904	20377
902.023	20412
902.141	20088
902.26	19997
902.379	20065
902.498	20024
902.617	19978
902.735	20008
902.854	19974
902.973	19963
903.091	19658
903.21	19738
903.328	19632
903.446	19540
903.565	19419
903.683	19540
903.801	19407
903.919	19487
904.038	19388
904.156	19251
904.274	19266
904.392	19084
904.51	19148
904.627	19156
904.745	19236
904.863	19247
904.981	19072
905.098	18973
905.216	18814
905.334	18848
905.451	18753
905.569	18878
905.686	18795
905.803	18871
905.921	18684
906.038	18715
906.155	18563
906.272	18623
906.389	18547
906.506	18384
906.623	18403
906.74	18437
906.857	18376
906.974	18273
907.091	18494
907.208	18540
907.324	18372
907.441	18346
907.557	18125
907.674	18026
907.79	18019
907.907	18125
908.023	18034
908.139	18140
908.256	18041
908.372	17954
908.488	17969
908.604	17794
908.72	17802
908.836	17843
908.952	17805
909.068	17851
909.184	17885
909.3	17798
909.415	17836
909.531	17729
909.647	17543
909.762	17551
909.878	17440
909.993	17509
910.108	17414
910.224	17414
910.339	17471
910.454	17414
910.57	17410
910.685	17254
910.8	17501
910.915	17429
911.03	17353
911.145	17197
911.259	17102
911.374	17136
911.489	17018
911.604	16908
911.718	16771
911.833	16839
911.947	16660
912.062	16740
912.176	16824
912.291	16816
912.405	16778
912.519	17060
912.633	16984
912.748	16885
912.862	16740
912.976	16577
913.09	16561
913.204	16558
913.318	16691
913.431	16622
913.545	16565
913.659	16664
913.772	16554
913.886	16421
914	16489
914.113	16554
914.226	16577
914.34	16402
914.453	16325
914.566	16432
914.68	16314
914.793	16147
914.906	16044
915.019	16025
915.132	15991
915.245	15956
915.358	15953
915.47	16021
915.583	15915
915.696	16051
915.809	16097
915.921	16063
916.034	15960
916.146	15968
916.259	15918
916.371	15968
916.483	16036
916.595	15823
916.708	15804
916.82	15751
916.932	15857
917.044	15747
917.156	15736
917.268	15564
917.38	15644
917.491	15637
917.603	15595
917.715	15717
917.826	15736
917.938	15580
918.049	15416
918.161	15591
918.272	15739
918.384	15587
918.495	15633
918.606	15344
918.717	15214
918.828	15230
918.939	15477
919.05	15256
919.161	15329
919.272	15009
919.383	15188
919.494	15435
919.604	15424
919.715	15302
919.826	15237
919.936	15272
920.047	15370
920.157	15272
920.267	15408
920.378	15230
920.488	15279
920.598	15500
920.708	15538
920.818	15412
920.928	15310
921.038	15641
921.148	15511
921.258	15211
921.368	15108
921.477	15112
921.587	15119
921.697	14979
921.806	14971
921.916	14834
922.025	14731
922.134	14708
922.244	14560
922.353	14659
922.462	14621
922.571	14522
922.68	14351
922.789	14282
922.898	14366
923.007	14252
923.116	14324
923.224	14233
923.333	14172
923.442	14233
923.55	14062
923.659	14145
923.767	14229
923.876	14065
923.984	14103
924.092	13898
924.201	14039
924.309	13944
924.417	14005
924.525	13868
924.633	13890
924.741	14967
924.849	13780
924.956	13894
925.064	13803
925.172	13590
925.279	13632
925.387	13616
925.494	13670
925.602	13780
925.709	13765
925.816	13502
925.924	13480
926.031	13712
926.138	13567
926.245	13708
926.352	13457
926.459	13662
926.566	13616
926.673	13487
926.779	13377
926.886	13354
926.993	13354
927.099	13202
927.206	13244
927.312	13190
927.419	13259
927.525	13274
927.631	13236
927.737	13088
927.843	13091
927.95	12973
928.056	13031
928.162	12996
928.267	13107
928.373	13563
928.479	13149
928.585	12924
928.69	12977
928.796	13012
928.901	12859
929.007	12692
929.112	12844
929.218	12787
929.323	12741
929.428	12696
929.533	12810
929.638	12513
929.743	12642
929.848	12673
929.953	12692
930.058	12555
930.163	12388
930.267	12441
930.372	12528
930.477	12342
930.581	12555
930.685	12399
930.79	12220
930.894	12300
930.998	12220
931.103	12357
931.207	11927
931.311	11935
931.415	11847
931.519	11672
931.623	11634
