Data from test_V78500241_1183.txt Node
Date: Fri Mar 25 15:49:59 CST 2022
User: usil
Spectrometer: V785-0024
Trigger mode: 0
Integration Time (sec): 4.000000E-1
Scans to average: 1
Nonlinearity correction enabled: false
Boxcar width: 0
Storing dark spectrum: false
XAxis mode: Wavelengths
Number of Pixels in Spectrum: 1024
>>>>>Begin Spectral Data<<<<<
801.071	28702
801.214	28550
801.356	28455
801.499	28413
801.641	28242
801.783	28188
801.926	28318
802.068	28181
802.211	28192
802.353	28074
802.496	27956
802.638	27861
802.78	27835
802.923	27873
803.065	27873
803.208	27903
803.35	27778
803.492	27945
803.635	27945
803.777	27994
803.919	28101
804.061	28478
804.204	28219
804.346	28257
804.488	28131
804.63	28078
804.773	28154
804.915	28128
805.057	28398
805.199	28097
805.341	28238
805.483	28348
805.626	28261
805.768	28257
805.91	28371
806.052	28272
806.194	28268
806.336	28428
806.478	28455
806.62	28344
806.762	28360
806.904	28675
807.046	28843
807.188	28782
807.33	28672
807.472	28767
807.614	28702
807.756	28744
807.898	28736
808.04	28683
808.182	28596
808.324	28687
808.465	28668
808.607	28786
808.749	29029
808.891	29006
809.033	29178
809.174	29018
809.316	29033
809.458	29010
809.6	29010
809.741	29025
809.883	29220
810.025	29220
810.166	29296
810.308	29299
810.45	29261
810.591	29277
810.733	28991
810.875	28904
811.016	28843
811.158	28839
811.299	29102
811.441	29212
811.582	29193
811.724	29181
811.865	28999
812.007	29044
812.148	29033
812.29	29041
812.431	29056
812.573	29440
812.714	29562
812.855	29383
812.997	29665
813.138	29805
813.279	29661
813.421	29471
813.562	29539
813.703	29345
813.845	29326
813.986	29003
814.127	28793
814.268	28729
814.41	28877
814.551	28721
814.692	28946
814.833	28653
814.974	28843
815.115	28778
815.256	28710
815.397	28698
815.539	28481
815.68	28584
815.821	28455
815.962	28527
816.103	28489
816.244	28504
816.385	28314
816.526	28348
816.666	28067
816.807	27945
816.948	28219
817.089	28150
817.23	28082
817.371	28143
817.512	27987
817.653	27903
817.793	28029
817.934	28067
818.075	27998
818.216	27968
818.356	28124
818.497	27880
818.638	27656
818.778	27869
818.919	27732
819.06	27895
819.2	27937
819.341	28086
819.481	28044
819.622	28139
819.762	28405
819.903	28261
820.043	28284
820.184	28051
820.324	28131
820.465	28192
820.605	28143
820.746	28150
820.886	28078
821.026	28253
821.167	28013
821.307	28219
821.447	28093
821.588	28055
821.728	27953
821.868	27736
822.008	27625
822.149	27618
822.289	27500
822.429	27363
822.569	27138
822.709	27348
822.849	27036
822.99	26994
823.13	27062
823.27	26994
823.41	26998
823.55	26785
823.69	26834
823.83	26804
823.97	26746
824.11	26712
824.25	26568
824.389	26868
824.529	26754
824.669	26682
824.809	26750
824.949	26788
825.089	26914
825.228	26735
825.368	26632
825.508	26613
825.648	26587
825.787	26727
825.927	26606
826.067	26450
826.206	26541
826.346	26632
826.485	26571
826.625	26678
826.765	26720
826.904	26678
827.044	26317
827.183	26415
827.323	26301
827.462	26324
827.601	26309
827.741	26343
827.88	26275
828.02	26225
828.159	26248
828.298	26275
828.437	26351
828.577	26157
828.716	26434
828.855	26214
828.994	25879
829.134	26058
829.273	25963
829.412	25925
829.551	25902
829.69	25906
829.829	26016
829.968	26096
830.107	25921
830.246	25947
830.385	25959
830.524	25845
830.663	25712
830.802	25746
830.941	25464
831.08	25620
831.219	25727
831.357	25677
831.496	25849
831.635	25635
831.774	25514
831.913	25419
832.051	25582
832.19	25396
832.329	25316
832.467	25400
832.606	25209
832.744	25126
832.883	25320
833.022	25225
833.16	25183
833.299	25377
833.437	25308
833.576	25255
833.714	25441
833.852	25388
833.991	25278
834.129	25453
834.267	25434
834.406	25244
834.544	25377
834.682	25259
834.821	25247
834.959	25422
835.097	25164
835.235	25400
835.373	25354
835.511	25308
835.65	25213
835.788	25088
835.926	25145
836.064	24989
836.202	24992
836.34	25053
836.478	25232
836.615	25164
836.753	25133
836.891	25244
837.029	25198
837.167	24973
837.305	25015
837.443	24951
837.58	24928
837.718	24989
837.856	24894
837.993	25099
838.131	25004
838.269	24916
838.406	24913
838.544	24840
838.681	24646
838.819	24646
838.956	24483
839.094	24338
839.231	24350
839.369	24544
839.506	24825
839.643	24681
839.781	24410
839.918	24380
840.055	24403
840.193	24334
840.33	24369
840.467	24350
840.604	24445
840.742	24601
840.879	24197
841.016	24426
841.153	24311
841.29	24479
841.427	24353
841.564	24403
841.701	24281
841.838	24323
841.975	24277
842.112	24262
842.249	24178
842.385	24098
842.522	24353
842.659	24171
842.796	24091
842.933	24152
843.069	24087
843.206	23969
843.343	24155
843.479	24068
843.616	23996
843.752	23863
843.889	23863
844.025	24060
844.162	23855
844.298	23893
844.435	23889
844.571	23870
844.708	23885
844.844	24205
844.98	23904
845.117	23923
845.253	23638
845.389	23737
845.525	23805
845.661	23729
845.798	23573
845.934	23585
846.07	23551
846.206	23634
846.342	23710
846.478	23524
846.614	23353
846.75	23337
846.886	23273
847.022	23429
847.158	23414
847.294	23406
847.429	23273
847.565	23250
847.701	23436
847.837	23105
847.972	23052
848.108	23098
848.244	23151
848.379	22847
848.515	22862
848.65	22862
848.786	22873
848.921	22957
849.057	22946
849.192	22965
849.328	22896
849.463	22938
849.598	22790
849.734	22691
849.869	22744
850.004	22721
850.14	22626
850.275	22736
850.41	22546
850.545	22637
850.68	22577
850.815	22725
850.95	22713
851.085	22957
851.22	22698
851.355	22645
851.49	22634
851.625	22618
851.76	22535
851.895	22497
852.03	22588
852.165	22710
852.299	22641
852.434	22752
852.569	22717
852.703	22523
852.838	22656
852.973	22835
853.107	22767
853.242	22679
853.376	22634
853.511	22375
853.645	22573
853.78	22584
853.914	22478
854.048	22516
854.183	22451
854.317	22554
854.451	22675
854.585	22428
854.72	22500
854.854	22618
854.988	22459
855.122	22424
855.256	22230
855.39	22402
855.524	22626
855.658	22474
855.792	22447
855.926	22542
856.06	22519
856.194	22565
856.327	22394
856.461	22421
856.595	22432
856.729	22386
856.862	22542
856.996	22569
857.13	22497
857.263	22451
857.397	22603
857.53	22462
857.664	22478
857.797	22421
857.931	22736
858.064	22447
858.197	22653
858.331	22440
858.464	22459
858.597	22421
858.731	22405
858.864	22500
858.997	22516
859.13	22645
859.263	22481
859.396	22554
859.529	22573
859.662	22421
859.795	22432
859.928	22428
860.061	22672
860.194	22527
860.327	22588
860.46	22497
860.592	22519
860.725	22771
860.858	22569
860.99	22470
861.123	22291
861.256	22481
861.388	22497
861.521	23166
861.653	22341
861.786	22238
861.918	22280
862.05	22440
862.183	22196
862.315	22341
862.447	22478
862.58	22421
862.712	22147
862.844	22192
862.976	22310
863.108	22215
863.24	22664
863.372	22173
863.504	22181
863.636	22150
863.768	22154
863.9	22204
864.032	22128
864.164	22048
864.296	22147
864.428	22325
864.559	22303
864.691	22204
864.823	22131
864.954	22105
865.086	22097
865.217	22032
865.349	22048
865.48	22063
865.612	22044
865.743	22223
865.875	22086
866.006	22036
866.137	22082
866.269	22082
866.4	22200
866.531	22002
866.662	22010
866.793	21903
866.924	22070
867.055	21964
867.186	22002
867.317	22055
867.448	21865
867.579	21850
867.71	21903
867.841	21861
867.972	22002
868.103	21987
868.233	21987
868.364	22025
868.495	22101
868.625	22253
868.756	22363
868.886	22192
869.017	22169
869.147	22272
869.278	22249
869.408	22219
869.539	22268
869.669	22276
869.799	22287
869.929	22432
870.06	22291
870.19	22656
870.32	22626
870.45	22527
870.58	22645
870.71	22698
870.84	22702
870.97	22542
871.1	22630
871.23	22675
871.36	22866
871.489	22755
871.619	22892
871.749	22782
871.879	22786
872.008	22934
872.138	22767
872.267	22866
872.397	22687
872.526	22584
872.656	22637
872.785	22573
872.915	22835
873.044	22790
873.173	22877
873.303	22919
873.432	22858
873.561	22980
873.69	22816
873.819	22793
873.948	22828
874.077	22854
874.206	22721
874.335	22885
874.464	22980
874.593	23193
874.722	23029
874.851	22957
874.979	23025
875.108	23025
875.237	23010
875.365	22987
875.494	23052
875.623	23044
875.751	22927
875.88	23105
876.008	23117
876.136	23235
876.265	23433
876.393	23509
876.521	23486
876.65	23539
876.778	23364
876.906	23463
877.034	23463
877.162	23368
877.29	23429
877.418	23356
877.546	23524
877.674	23330
877.802	23455
877.93	23391
878.058	23387
878.185	23318
878.313	23360
878.441	23334
878.568	23166
878.696	23372
878.824	23387
878.951	23524
879.079	23535
879.206	23718
879.333	23592
879.461	23440
879.588	23436
879.715	23493
879.842	23634
879.97	23501
880.097	23098
880.224	23193
880.351	23258
880.478	23147
880.605	23162
880.732	23136
880.859	23452
880.986	23200
881.112	23231
881.239	23102
881.366	22991
881.493	22831
881.619	22812
881.746	22854
881.872	22706
881.999	22546
882.125	22755
882.252	22816
882.378	22786
882.505	22820
882.631	22656
882.757	22481
882.883	22626
883.01	22344
883.136	22390
883.262	22265
883.388	22211
883.514	22390
883.64	22485
883.766	22379
883.892	22207
884.018	22230
884.143	22329
884.269	22504
884.395	22268
884.52	21998
884.646	22128
884.772	22150
884.897	21968
885.023	22090
885.148	22082
885.274	22226
885.399	22086
885.524	22051
885.65	22139
885.775	22063
885.9	21979
886.025	22162
886.15	22055
886.275	22101
886.4	21918
886.525	21983
886.65	21983
886.775	22143
886.9	22128
887.025	22295
887.149	21903
887.274	21854
887.399	21774
887.523	21865
887.648	21854
887.773	21743
887.897	21945
888.021	21892
888.146	21755
888.27	21983
888.395	21930
888.519	21918
888.643	21899
888.767	21873
888.891	21679
889.015	21671
889.139	21724
889.263	21622
889.387	21884
889.511	21766
889.635	21762
889.759	21515
889.883	21736
890.006	21519
890.13	21724
890.254	21469
890.377	21519
890.501	21416
890.624	21355
890.748	21439
890.871	21268
890.995	21188
891.118	21013
891.241	21070
891.364	21020
891.488	21321
891.611	21180
891.734	21127
891.857	21291
891.98	21218
892.103	21226
892.226	21222
892.349	21173
892.471	20986
892.594	21104
892.717	21112
892.839	20998
892.962	21165
893.085	21096
893.207	20998
893.33	20792
893.452	20883
893.575	20971
893.697	21051
893.819	21184
893.941	21252
894.064	21119
894.186	21043
894.308	21085
894.43	21119
894.552	21195
894.674	21077
894.796	20842
894.918	21051
895.04	20937
895.161	21028
895.283	21169
895.405	21024
895.526	20948
895.648	20899
895.769	21055
895.891	21108
896.012	21161
896.134	21051
896.255	21024
896.376	20963
896.498	20982
896.619	21104
896.74	20979
896.861	21024
896.982	21359
897.103	21359
897.224	21382
897.345	21294
897.466	21138
897.587	21264
897.708	21363
897.828	21439
897.949	21066
898.07	21055
898.19	21192
898.311	21279
898.431	21218
898.552	21211
898.672	21313
898.792	21454
898.913	21241
899.033	21096
899.153	21024
899.273	21062
899.393	20990
899.513	21077
899.633	21017
899.753	20918
899.873	20842
899.993	21028
900.113	20857
900.232	21032
900.352	20804
900.472	20838
900.591	20663
900.711	20743
900.83	20655
900.95	20724
901.069	20716
901.189	20659
901.308	20400
901.427	20298
901.546	20221
901.665	20278
901.784	20408
901.904	20138
902.023	19986
902.141	19986
902.26	19841
902.379	19849
902.498	19811
902.617	19776
902.735	19841
902.854	19761
902.973	19704
903.091	19464
903.21	19506
903.328	19544
903.446	19308
903.565	19179
903.683	19168
903.801	19137
903.919	19228
904.038	19156
904.156	18993
904.274	19031
904.392	18993
904.51	18993
904.627	19095
904.745	19118
904.863	19080
904.981	18795
905.098	18650
905.216	18623
905.334	18810
905.451	18669
905.569	18593
905.686	18700
905.803	18783
905.921	18357
906.038	18521
906.155	18509
906.272	18365
906.389	18403
906.506	18243
906.623	18201
906.74	18224
906.857	18019
906.974	18110
907.091	18273
907.208	18395
907.324	18174
907.441	18163
907.557	17939
907.674	17939
907.79	17798
907.907	17927
908.023	17828
908.139	17798
908.256	17897
908.372	17771
908.488	17843
908.604	17726
908.72	17573
908.836	17630
908.952	17589
909.068	17623
909.184	17783
909.3	17608
909.415	17653
909.531	17657
909.647	17383
909.762	17261
909.878	17277
909.993	17341
910.108	17193
910.224	17254
910.339	17315
910.454	17185
910.57	17227
910.685	17045
910.8	17288
910.915	17307
911.03	17170
911.145	16972
911.259	16961
911.374	16896
911.489	16889
911.604	16850
911.718	16706
911.833	16611
911.947	16596
912.062	16493
912.176	16565
912.291	16717
912.405	16592
912.519	16908
912.633	16790
912.748	16668
912.862	16660
912.976	16424
913.09	16371
913.204	16382
913.318	16470
913.431	16618
913.545	16432
913.659	16519
913.772	16436
913.886	16280
914	16177
914.113	16238
914.226	16363
914.34	16238
914.453	16139
914.566	16280
914.68	16128
914.793	16204
914.906	15915
915.019	15759
915.132	15842
915.245	15842
915.358	15812
915.47	15808
915.583	15797
915.696	15865
915.809	15899
915.921	15926
916.034	15778
916.146	15713
916.259	15675
916.371	15751
916.483	15743
916.595	15694
916.708	15610
916.82	15564
916.932	15591
917.044	15606
917.156	15492
917.268	15462
917.38	15488
917.491	15515
917.603	15462
917.715	15561
917.826	15580
917.938	15416
918.049	15283
918.161	15397
918.272	15561
918.384	15507
918.495	15401
918.606	15279
918.717	15245
918.828	15165
918.939	15321
919.05	15180
919.161	15150
919.272	15009
919.383	15093
919.494	15222
919.604	15408
919.715	15249
919.826	15047
919.936	15123
920.047	15214
920.157	15127
920.267	15344
920.378	15138
920.488	15093
920.598	15298
920.708	15363
920.818	15272
920.928	15275
921.038	15355
921.148	15405
921.258	15001
921.368	14979
921.477	14918
921.587	14880
921.697	14705
921.806	14826
921.916	14762
922.025	14579
922.134	14518
922.244	14484
922.353	14492
922.462	14320
922.571	14370
922.68	14153
922.789	14065
922.898	14210
923.007	14111
923.116	14164
923.224	14202
923.333	14084
923.442	14012
923.55	13986
923.659	13932
923.767	14103
923.876	13974
923.984	13963
924.092	13811
924.201	13849
924.309	13860
924.417	13944
924.525	13696
924.633	13769
924.741	14488
924.849	13636
924.956	13772
925.064	13613
925.172	13460
925.279	13449
925.387	13499
925.494	13499
925.602	13597
925.709	13464
925.816	13373
925.924	13434
926.031	13544
926.138	13388
926.245	13480
926.352	13259
926.459	13499
926.566	13567
926.673	13396
926.779	13278
926.886	13365
926.993	13168
927.099	13122
927.206	12973
927.312	12951
927.419	13122
927.525	13129
927.631	13038
927.737	12932
927.843	12894
927.95	12821
928.056	12768
928.162	12886
928.267	12924
928.373	13544
928.479	12916
928.585	12810
928.69	12802
928.796	12871
928.901	12703
929.007	12517
929.112	12719
929.218	12684
929.323	12635
929.428	12612
929.533	12715
929.638	12517
929.743	12547
929.848	12635
929.953	12593
930.058	12509
930.163	12300
930.267	12323
930.372	12441
930.477	12224
930.581	12452
930.685	12239
930.79	12228
930.894	12152
930.998	12034
931.103	12235
931.207	11847
931.311	11824
931.415	11691
931.519	11486
931.623	11505
