Data from test_V78500241_2358.txt Node
Date: Fri Mar 25 15:58:08 CST 2022
User: usil
Spectrometer: V785-0024
Trigger mode: 0
Integration Time (sec): 4.000000E-1
Scans to average: 1
Nonlinearity correction enabled: false
Boxcar width: 0
Storing dark spectrum: false
XAxis mode: Wavelengths
Number of Pixels in Spectrum: 1024
>>>>>Begin Spectral Data<<<<<
801.071	28991
801.214	28991
801.356	28710
801.499	28561
801.641	28622
801.783	28542
801.926	28577
802.068	28538
802.211	28504
802.353	28367
802.496	28382
802.638	28284
802.78	28268
802.923	28150
803.065	28181
803.208	28234
803.35	28363
803.492	28462
803.635	28630
803.777	28421
803.919	28459
804.061	28858
804.204	28557
804.346	28386
804.488	28436
804.63	28390
804.773	28607
804.915	28584
805.057	28653
805.199	28554
805.341	28580
805.483	28888
805.626	28824
805.768	28672
805.91	28767
806.052	28809
806.194	28683
806.336	28763
806.478	28835
806.62	28729
806.762	28790
806.904	29003
807.046	29151
807.188	29090
807.33	29174
807.472	29307
807.614	29143
807.756	29147
807.898	28976
808.04	28965
808.182	28984
808.324	29052
808.465	29102
808.607	29356
808.749	29493
808.891	29509
809.033	29653
809.174	29520
809.316	29429
809.458	29391
809.6	29398
809.741	29512
809.883	29570
810.025	29615
810.166	29805
810.308	29699
810.45	29608
810.591	29657
810.733	29528
810.875	29482
811.016	29341
811.158	29402
811.299	29516
811.441	29600
811.582	29566
811.724	29421
811.865	29379
812.007	29520
812.148	29566
812.29	29535
812.431	29566
812.573	29855
812.714	29935
812.855	30049
812.997	29950
813.138	30045
813.279	30053
813.421	29973
813.562	30007
813.703	29699
813.845	29714
813.986	29444
814.127	29345
814.268	29056
814.41	29105
814.551	29140
814.692	29197
814.833	29060
814.974	29102
815.115	29220
815.256	29166
815.397	29003
815.539	29075
815.68	28908
815.821	28885
815.962	28911
816.103	28835
816.244	28854
816.385	28767
816.526	28698
816.666	28653
816.807	28542
816.948	28455
817.089	28516
817.23	28557
817.371	28512
817.512	28371
817.653	28493
817.793	28375
817.934	28584
818.075	28535
818.216	28489
818.356	28398
818.497	28375
818.638	28162
818.778	28284
818.919	28238
819.06	28249
819.2	28409
819.341	28432
819.481	28413
819.622	28649
819.762	28820
819.903	28850
820.043	28698
820.184	28645
820.324	28569
820.465	28713
820.605	28603
820.746	28550
820.886	28474
821.026	28588
821.167	28618
821.307	28622
821.447	28523
821.588	28447
821.728	28234
821.868	28147
822.008	28010
822.149	27983
822.289	28055
822.429	27838
822.569	27690
822.709	27583
822.849	27496
822.99	27469
823.13	27420
823.27	27359
823.41	27302
823.55	27260
823.69	27367
823.83	27298
823.97	27214
824.11	27150
824.25	27020
824.389	27116
824.529	27161
824.669	27127
824.809	27199
824.949	27135
825.089	27245
825.228	27207
825.368	26887
825.508	26940
825.648	26861
825.787	27047
825.927	27070
826.067	27047
826.206	26960
826.346	26929
826.485	27127
826.625	26925
826.765	27100
826.904	27085
827.044	26739
827.183	26762
827.323	26838
827.462	26823
827.601	26861
827.741	26708
827.88	26659
828.02	26606
828.159	26579
828.298	26731
828.437	26857
828.577	26731
828.716	26830
828.855	26590
828.994	26400
829.134	26442
829.273	26488
829.412	26294
829.551	26396
829.69	26301
829.829	26396
829.968	26495
830.107	26503
830.246	26381
830.385	26465
830.524	26343
830.663	26263
830.802	26081
830.941	25917
831.08	25784
831.219	26096
831.357	25974
831.496	26191
831.635	26012
831.774	25989
831.913	25944
832.051	25769
832.19	25738
832.329	25769
832.467	25776
832.606	25635
832.744	25571
832.883	25658
833.022	25643
833.16	25662
833.299	25624
833.437	25677
833.576	25727
833.714	25674
833.852	25700
833.991	25822
834.129	25769
834.267	25849
834.406	25609
834.544	25723
834.682	25822
834.821	25685
834.959	25883
835.097	25803
835.235	25849
835.373	25826
835.511	25658
835.65	25616
835.788	25567
835.926	25419
836.064	25434
836.202	25487
836.34	25441
836.478	25731
836.615	25514
836.753	25476
836.891	25674
837.029	25506
837.167	25479
837.305	25495
837.443	25339
837.58	25403
837.718	25529
837.856	25419
837.993	25335
838.131	25460
838.269	25213
838.406	25384
838.544	25148
838.681	24966
838.819	24977
838.956	24783
839.094	24966
839.231	24894
839.369	25088
839.506	25354
839.643	25168
839.781	24787
839.918	24703
840.055	24738
840.193	24722
840.33	24753
840.467	24795
840.604	24886
840.742	25031
840.879	24684
841.016	24749
841.153	24620
841.29	24875
841.427	24661
841.564	24875
841.701	24677
841.838	24726
841.975	24623
842.112	24665
842.249	24532
842.385	24566
842.522	24669
842.659	24642
842.796	24509
842.933	24445
843.069	24479
843.206	24513
843.343	24593
843.479	24448
843.616	24471
843.752	24361
843.889	24281
844.025	24422
844.162	24190
844.298	24258
844.435	24243
844.571	24011
844.708	24426
844.844	24460
844.98	24479
845.117	24479
845.253	24152
845.389	24167
845.525	24159
845.661	24174
845.798	24064
845.934	24026
846.07	23923
846.206	23984
846.342	24117
846.478	23866
846.614	23775
846.75	23775
846.886	23748
847.022	23813
847.158	23684
847.294	23707
847.429	23710
847.565	23623
847.701	23813
847.837	23425
847.972	23341
848.108	23535
848.244	23493
848.379	23288
848.515	23296
848.65	23292
848.786	23326
848.921	23326
849.057	23326
849.192	23368
849.328	23459
849.463	23334
849.598	23254
849.734	23254
849.869	23067
850.004	22976
850.14	23121
850.275	23014
850.41	22991
850.545	23136
850.68	23162
850.815	23178
850.95	23041
851.085	23231
851.22	23098
851.355	23113
851.49	23003
851.625	23029
851.76	23121
851.895	22946
852.03	23044
852.165	23090
852.299	23109
852.434	23250
852.569	23140
852.703	23197
852.838	23273
852.973	23193
853.107	23231
853.242	22877
853.376	22911
853.511	22816
853.645	22793
853.78	22873
853.914	22987
854.048	22767
854.183	22771
854.317	22896
854.451	23178
854.585	22850
854.72	22908
854.854	22889
854.988	22877
855.122	22839
855.256	22725
855.39	22843
855.524	22995
855.658	22873
855.792	22847
855.926	22946
856.06	22968
856.194	23102
856.327	22961
856.461	22835
856.595	22923
856.729	22915
856.862	23003
856.996	23029
857.13	22999
857.263	22934
857.397	22957
857.53	22809
857.664	22847
857.797	23025
857.931	23060
858.064	22911
858.197	22934
858.331	22889
858.464	22755
858.597	22850
858.731	22793
858.864	22831
858.997	22885
859.13	22927
859.263	22850
859.396	22885
859.529	22767
859.662	22877
859.795	22809
859.928	22835
860.061	22995
860.194	23102
860.327	23018
860.46	22850
860.592	23075
860.725	23162
860.858	23109
860.99	22896
861.123	22809
861.256	22763
861.388	22930
861.521	23604
861.653	22725
861.786	22626
861.918	22641
862.05	22820
862.183	22698
862.315	22717
862.447	22767
862.58	22771
862.712	22744
862.844	22565
862.976	22683
863.108	22622
863.24	23124
863.372	22554
863.504	22630
863.636	22634
863.768	22573
863.9	22649
864.032	22470
864.164	22519
864.296	22630
864.428	22683
864.559	22797
864.691	22698
864.823	22561
864.954	22645
865.086	22535
865.217	22470
865.349	22432
865.48	22432
865.612	22459
865.743	22622
865.875	22424
866.006	22508
866.137	22466
866.269	22500
866.4	22447
866.531	22451
866.662	22382
866.793	22322
866.924	22348
867.055	22234
867.186	22360
867.317	22356
867.448	22333
867.579	22386
867.71	22299
867.841	22303
867.972	22485
868.103	22226
868.233	22329
868.364	22409
868.495	22535
868.625	22500
868.756	22778
868.886	22599
869.017	22516
869.147	22778
869.278	22831
869.408	22618
869.539	22691
869.669	22721
869.799	22615
869.929	22733
870.06	22664
870.19	22976
870.32	22889
870.45	22915
870.58	22942
870.71	23079
870.84	23155
870.97	23143
871.1	23018
871.23	23223
871.36	23216
871.489	23109
871.619	23341
871.749	23220
871.879	23288
872.008	23303
872.138	23151
872.267	23235
872.397	23090
872.526	22991
872.656	23064
872.785	23006
872.915	23322
873.044	23231
873.173	23239
873.303	23307
873.432	23341
873.561	23391
873.69	23334
873.819	23368
873.948	23326
874.077	23303
874.206	23189
874.335	23121
874.464	23303
874.593	23478
874.722	23433
874.851	23501
874.979	23471
875.108	23410
875.237	23463
875.365	23341
875.494	23421
875.623	23512
875.751	23436
875.88	23398
876.008	23596
876.136	23653
876.265	23805
876.393	23980
876.521	23745
876.65	23950
876.778	23828
876.906	23745
877.034	23627
877.162	23813
877.29	23714
877.418	23870
877.546	23832
877.674	23733
877.802	23726
877.93	23790
878.058	23691
878.185	23707
878.313	23668
878.441	23627
878.568	23741
878.696	23528
878.824	23737
878.951	23935
879.079	23973
879.206	24053
879.333	23958
879.461	23783
879.588	23965
879.715	23893
879.842	24136
879.97	23843
880.097	23505
880.224	23581
880.351	23573
880.478	23551
880.605	23410
880.732	23604
880.859	23775
880.986	23653
881.112	23581
881.239	23455
881.366	23261
881.493	23170
881.619	23231
881.746	23235
881.872	23216
881.999	22957
882.125	23083
882.252	23170
882.378	23121
882.505	23223
882.631	23018
882.757	22774
882.883	22839
883.01	22828
883.136	22828
883.262	22653
883.388	22645
883.514	22793
883.64	22847
883.766	22820
883.892	22637
884.018	22710
884.143	22774
884.269	22824
884.395	22554
884.52	22322
884.646	22500
884.772	22382
884.897	22363
885.023	22405
885.148	22516
885.274	22599
885.399	22538
885.524	22478
885.65	22466
885.775	22447
885.9	22493
886.025	22538
886.15	22504
886.275	22474
886.4	22295
886.525	22352
886.65	22363
886.775	22390
886.9	22580
887.025	22478
887.149	22455
887.274	22280
887.399	22150
887.523	22188
887.648	22128
887.773	22196
887.897	22188
888.021	22158
888.146	22147
888.27	22242
888.395	22215
888.519	22162
888.643	22207
888.767	22249
888.891	22086
889.015	21987
889.139	22059
889.263	21998
889.387	22147
889.511	22120
889.635	22055
889.759	22013
889.883	22021
890.006	21972
890.13	22074
890.254	21911
890.377	22006
890.501	21728
890.624	21800
890.748	21778
890.871	21591
890.995	21523
891.118	21500
891.241	21549
891.364	21564
891.488	21580
891.611	21542
891.734	21481
891.857	21591
891.98	21507
892.103	21629
892.226	21576
892.349	21412
892.471	21287
892.594	21504
892.717	21553
892.839	21378
892.962	21595
893.085	21428
893.207	21237
893.33	21321
893.452	21428
893.575	21462
893.697	21393
893.819	21603
893.941	21576
894.064	21561
894.186	21264
894.308	21306
894.43	21637
894.552	21568
894.674	21439
894.796	21230
894.918	21424
895.04	21408
895.161	21504
895.283	21481
895.405	21306
895.526	21431
895.648	21443
895.769	21420
895.891	21363
896.012	21504
896.134	21439
896.255	21507
896.376	21329
896.498	21382
896.619	21416
896.74	21405
896.861	21450
896.982	21610
897.103	21911
897.224	21720
897.345	21557
897.466	21618
897.587	21549
897.708	21728
897.828	21591
897.949	21545
898.07	21416
898.19	21603
898.311	21660
898.431	21564
898.552	21488
898.672	21466
898.792	21629
898.913	21534
899.033	21488
899.153	21428
899.273	21203
899.393	21397
899.513	21302
899.633	21332
899.753	21291
899.873	21283
899.993	21275
900.113	21272
900.232	21241
900.352	21203
900.472	21188
900.591	21108
900.711	21142
900.83	21135
900.95	21287
901.069	21150
901.189	20990
901.308	20724
901.427	20579
901.546	20670
901.665	20617
901.784	20724
901.904	20492
902.023	20415
902.141	20298
902.26	20195
902.379	20267
902.498	20119
902.617	20164
902.735	20225
902.854	20058
902.973	20065
903.091	19917
903.21	19811
903.328	19704
903.446	19723
903.565	19689
903.683	19590
903.801	19499
903.919	19605
904.038	19457
904.156	19308
904.274	19464
904.392	19381
904.51	19289
904.627	19339
904.745	19297
904.863	19293
904.981	19175
905.098	19107
905.216	19031
905.334	19095
905.451	19008
905.569	18901
905.686	19080
905.803	18970
905.921	18753
906.038	18932
906.155	18871
906.272	18597
906.389	18776
906.506	18471
906.623	18525
906.74	18490
906.857	18399
906.974	18502
907.091	18681
907.208	18692
907.324	18555
907.441	18395
907.557	18304
907.674	18228
907.79	18247
907.907	18201
908.023	18342
908.139	18262
908.256	18194
908.372	18136
908.488	18155
908.604	18019
908.72	17965
908.836	17935
908.952	18030
909.068	17969
909.184	17992
909.3	17946
909.415	17965
909.531	17836
909.647	17604
909.762	17722
909.878	17653
909.993	17718
910.108	17653
910.224	17589
910.339	17562
910.454	17490
910.57	17482
910.685	17250
910.8	17623
910.915	17733
911.03	17341
911.145	17356
911.259	17170
911.374	17174
911.489	17143
911.604	17124
911.718	16995
911.833	17056
911.947	16919
912.062	16873
912.176	16995
912.291	17022
912.405	16949
912.519	17128
912.633	17079
912.748	16999
912.862	16991
912.976	16850
913.09	16622
913.204	16752
913.318	16736
913.431	16881
913.545	16847
913.659	16778
913.772	16710
913.886	16607
914	16603
914.113	16588
914.226	16626
914.34	16626
914.453	16424
914.566	16573
914.68	16417
914.793	16417
914.906	16223
915.019	16166
915.132	16112
915.245	16021
915.358	16116
915.47	16150
915.583	16048
915.696	16185
915.809	16200
915.921	16280
916.034	16128
916.146	15991
916.259	15987
916.371	16112
916.483	16025
916.595	15987
916.708	16010
916.82	15823
916.932	15823
917.044	15831
917.156	15884
917.268	15755
917.38	15762
917.491	15686
917.603	15713
917.715	15762
917.826	15736
917.938	15663
918.049	15568
918.161	15732
918.272	15793
918.384	15694
918.495	15705
918.606	15603
918.717	15405
918.828	15485
918.939	15534
919.05	15389
919.161	15477
919.272	15264
919.383	15268
919.494	15549
919.604	15637
919.715	15435
919.826	15389
919.936	15370
920.047	15488
920.157	15530
920.267	15564
920.378	15428
920.488	15378
920.598	15568
920.708	15618
920.818	15504
920.928	15500
921.038	15736
921.148	15656
921.258	15344
921.368	15260
921.477	15195
921.587	15055
921.697	14975
921.806	15146
921.916	15104
922.025	14842
922.134	14750
922.244	14682
922.353	14819
922.462	14689
922.571	14590
922.68	14461
922.789	14461
922.898	14396
923.007	14358
923.116	14476
923.224	14282
923.333	14278
923.442	14278
923.55	14111
923.659	14225
923.767	14298
923.876	14119
923.984	14199
924.092	14164
924.201	14115
924.309	14176
924.417	14100
924.525	14005
924.633	14043
924.741	15085
924.849	13807
924.956	14020
925.064	13811
925.172	13715
925.279	13715
925.387	13826
925.494	13738
925.602	13887
925.709	13723
925.816	13643
925.924	13700
926.031	13818
926.138	13780
926.245	13727
926.352	13613
926.459	13666
926.566	13746
926.673	13601
926.779	13487
926.886	13495
926.993	13419
927.099	13350
927.206	13221
927.312	13354
927.419	13312
927.525	13384
927.631	13335
927.737	13217
927.843	13088
927.95	13103
928.056	13129
928.162	13103
928.267	13103
928.373	13765
928.479	13270
928.585	12886
928.69	13053
928.796	13061
928.901	13057
929.007	12848
929.112	13023
929.218	12894
929.323	12871
929.428	12768
929.533	12863
929.638	12741
929.743	12745
929.848	12783
929.953	12688
930.058	12654
930.163	12365
930.267	12570
930.372	12616
930.477	12494
930.581	12642
930.685	12521
930.79	12330
930.894	12486
930.998	12315
931.103	12429
931.207	12121
931.311	12015
931.415	11870
931.519	11684
931.623	11707
