Data from test_V78500241_1116.txt Node
Date: Fri Mar 25 15:49:31 CST 2022
User: usil
Spectrometer: V785-0024
Trigger mode: 0
Integration Time (sec): 4.000000E-1
Scans to average: 1
Nonlinearity correction enabled: false
Boxcar width: 0
Storing dark spectrum: false
XAxis mode: Wavelengths
Number of Pixels in Spectrum: 1024
>>>>>Begin Spectral Data<<<<<
801.071	28637
801.214	28436
801.356	28489
801.499	28188
801.641	28101
801.783	28295
801.926	28318
802.068	28223
802.211	28143
802.353	28097
802.496	27907
802.638	27785
802.78	27789
802.923	27861
803.065	27766
803.208	27720
803.35	27713
803.492	27964
803.635	28021
803.777	27987
803.919	28032
804.061	28329
804.204	28226
804.346	28025
804.488	27914
804.63	28059
804.773	27914
804.915	27998
805.057	28143
805.199	28017
805.341	28226
805.483	28192
805.626	28257
805.768	28116
805.91	28382
806.052	28325
806.194	28109
806.336	28531
806.478	28272
806.62	28253
806.762	28379
806.904	28424
807.046	28824
807.188	28664
807.33	28710
807.472	28835
807.614	28626
807.756	28698
807.898	28611
808.04	28428
808.182	28466
808.324	28481
808.465	28561
808.607	28713
808.749	28984
808.891	28968
809.033	28995
809.174	28869
809.316	28919
809.458	28991
809.6	28869
809.741	29041
809.883	28972
810.025	29200
810.166	29360
810.308	29307
810.45	29124
810.591	29235
810.733	29041
810.875	28957
811.016	28809
811.158	28915
811.299	29071
811.441	29003
811.582	29204
811.724	28946
811.865	28850
812.007	28900
812.148	28904
812.29	28984
812.431	29079
812.573	29258
812.714	29364
812.855	29349
812.997	29406
813.138	29638
813.279	29577
813.421	29406
813.562	29349
813.703	29147
813.845	29269
813.986	28995
814.127	28710
814.268	28710
814.41	28835
814.551	28698
814.692	28850
814.833	28656
814.974	28626
815.115	28717
815.256	28424
815.397	28573
815.539	28455
815.68	28535
815.821	28481
815.962	28599
816.103	28440
816.244	28371
816.385	28436
816.526	28200
816.666	28116
816.807	27956
816.948	27991
817.089	28192
817.23	28006
817.371	27983
817.512	27941
817.653	27968
817.793	27945
817.934	28082
818.075	27991
818.216	27812
818.356	27911
818.497	27850
818.638	27781
818.778	27785
818.919	27911
819.06	27857
819.2	27808
819.341	27994
819.481	28112
819.622	28010
819.762	28310
819.903	28276
820.043	28093
820.184	27983
820.324	28002
820.465	28101
820.605	28017
820.746	28036
820.886	28025
821.026	28036
821.167	28230
821.307	28032
821.447	28048
821.588	27968
821.728	27880
821.868	27610
822.008	27519
822.149	27507
822.289	27561
822.429	27245
822.569	27135
822.709	27218
822.849	26899
822.99	27036
823.13	27009
823.27	27119
823.41	26754
823.55	26750
823.69	26857
823.83	26781
823.97	26716
824.11	26678
824.25	26598
824.389	26689
824.529	26575
824.669	26750
824.809	26739
824.949	26693
825.089	26644
825.228	26731
825.368	26343
825.508	26518
825.648	26393
825.787	26552
825.927	26621
826.067	26526
826.206	26385
826.346	26549
826.485	26545
826.625	26446
826.765	26663
826.904	26480
827.044	26408
827.183	26240
827.323	26294
827.462	26389
827.601	26176
827.741	26138
827.88	26267
828.02	26122
828.159	26145
828.298	26218
828.437	26267
828.577	26134
828.716	26324
828.855	26130
828.994	26062
829.134	25868
829.273	26020
829.412	25959
829.551	25989
829.69	26054
829.829	25875
829.968	26058
830.107	25974
830.246	26058
830.385	25849
830.524	25898
830.663	25677
830.802	25613
830.941	25540
831.08	25533
831.219	25601
831.357	25662
831.496	25795
831.635	25552
831.774	25548
831.913	25510
832.051	25449
832.19	25365
832.329	25362
832.467	25350
832.606	25103
832.744	25168
832.883	25251
833.022	25080
833.16	25274
833.299	25339
833.437	25339
833.576	25346
833.714	25506
833.852	25396
833.991	25236
834.129	25339
834.267	25304
834.406	25381
834.544	25324
834.682	25289
834.821	25392
834.959	25373
835.097	25202
835.235	25369
835.373	25285
835.511	25202
835.65	25084
835.788	25126
835.926	25012
836.064	24833
836.202	25080
836.34	25042
836.478	25297
836.615	24958
836.753	24973
836.891	25148
837.029	25091
837.167	25015
837.305	25004
837.443	24905
837.58	24901
837.718	25012
837.856	24951
837.993	24951
838.131	24970
838.269	24829
838.406	24852
838.544	24772
838.681	24604
838.819	24722
838.956	24426
839.094	24388
839.231	24467
839.369	24612
839.506	24894
839.643	24703
839.781	24391
839.918	24251
840.055	24338
840.193	24273
840.33	24281
840.467	24251
840.604	24350
840.742	24429
840.879	24232
841.016	24308
841.153	24201
841.29	24342
841.427	24285
841.564	24273
841.701	24334
841.838	24239
841.975	24163
842.112	24076
842.249	24190
842.385	24121
842.522	24277
842.659	24057
842.796	23980
842.933	24034
843.069	24007
843.206	23908
843.343	24114
843.479	24064
843.616	24018
843.752	23790
843.889	23836
844.025	23931
844.162	23859
844.298	23863
844.435	23813
844.571	23813
844.708	23916
844.844	23912
844.98	23977
845.117	24038
845.253	23707
845.389	23737
845.525	23619
845.661	23741
845.798	23699
845.934	23687
846.07	23520
846.206	23520
846.342	23760
846.478	23467
846.614	23455
846.75	23231
846.886	23140
847.022	23353
847.158	23250
847.294	23299
847.429	23269
847.565	23273
847.701	23520
847.837	23010
847.972	23067
848.108	22995
848.244	23037
848.379	22927
848.515	22831
848.65	22850
848.786	22885
848.921	22866
849.057	22984
849.192	22934
849.328	22839
849.463	22900
849.598	22782
849.734	22801
849.869	22679
850.004	22626
850.14	22713
850.275	22630
850.41	22466
850.545	22542
850.68	22603
850.815	22607
850.95	22767
851.085	22675
851.22	22736
851.355	22603
851.49	22645
851.625	22527
851.76	22634
851.895	22447
852.03	22493
852.165	22557
852.299	22717
852.434	22702
852.569	22683
852.703	22634
852.838	22755
852.973	22721
853.107	22752
853.242	22721
853.376	22535
853.511	22360
853.645	22344
853.78	22485
853.914	22402
854.048	22443
854.183	22443
854.317	22481
854.451	22611
854.585	22466
854.72	22405
854.854	22421
854.988	22356
855.122	22455
855.256	22398
855.39	22310
855.524	22470
855.658	22542
855.792	22322
855.926	22630
856.06	22523
856.194	22538
856.327	22367
856.461	22284
856.595	22402
856.729	22462
856.862	22557
856.996	22451
857.13	22485
857.263	22561
857.397	22432
857.53	22455
857.664	22432
857.797	22538
857.931	22546
858.064	22478
858.197	22565
858.331	22344
858.464	22443
858.597	22367
858.731	22554
858.864	22451
858.997	22428
859.13	22462
859.263	22417
859.396	22603
859.529	22371
859.662	22360
859.795	22428
859.928	22455
860.061	22485
860.194	22725
860.327	22447
860.46	22402
860.592	22432
860.725	22573
860.858	22432
860.99	22314
861.123	22325
861.256	22421
861.388	22333
861.521	23102
861.653	22310
861.786	22162
861.918	22276
862.05	22226
862.183	22386
862.315	22394
862.447	22253
862.58	22325
862.712	22204
862.844	22040
862.976	22284
863.108	22185
863.24	22611
863.372	22067
863.504	22128
863.636	22211
863.768	22051
863.9	22120
864.032	22010
864.164	22116
864.296	22196
864.428	22234
864.559	22223
864.691	22253
864.823	22036
864.954	22139
865.086	22051
865.217	22105
865.349	21918
865.48	21998
865.612	22093
865.743	22150
865.875	22074
866.006	22074
866.137	22063
866.269	21945
866.4	22025
866.531	22093
866.662	21918
866.793	21903
866.924	22036
867.055	21956
867.186	22059
867.317	21899
867.448	21842
867.579	22025
867.71	21922
867.841	21846
867.972	21846
868.103	21926
868.233	21922
868.364	22017
868.495	22059
868.625	22196
868.756	22265
868.886	22162
869.017	22196
869.147	22333
869.278	22348
869.408	22128
869.539	22135
869.669	22291
869.799	22299
869.929	22154
870.06	22329
870.19	22497
870.32	22413
870.45	22546
870.58	22554
870.71	22733
870.84	22691
870.97	22481
871.1	22694
871.23	22847
871.36	22869
871.489	22736
871.619	22786
871.749	22801
871.879	22831
872.008	22930
872.138	22736
872.267	22759
872.397	22679
872.526	22656
872.656	22599
872.785	22774
872.915	22637
873.044	22828
873.173	22755
873.303	22881
873.432	22892
873.561	22976
873.69	22843
873.819	22889
873.948	22839
874.077	22854
874.206	22733
874.335	22885
874.464	22755
874.593	23090
874.722	23029
874.851	23060
874.979	22980
875.108	23083
875.237	23010
875.365	22915
875.494	22896
875.623	22987
875.751	22927
875.88	22942
876.008	23155
876.136	23166
876.265	23360
876.393	23539
876.521	23364
876.65	23486
876.778	23497
876.906	23315
877.034	23269
877.162	23444
877.29	23170
877.418	23299
877.546	23341
877.674	23353
877.802	23299
877.93	23455
878.058	23330
878.185	23159
878.313	23345
878.441	23250
878.568	23280
878.696	23265
878.824	23353
878.951	23376
879.079	23493
879.206	23646
879.333	23509
879.461	23383
879.588	23501
879.715	23444
879.842	23573
879.97	23387
880.097	23075
880.224	23242
880.351	23197
880.478	23140
880.605	23147
880.732	23162
880.859	23410
880.986	23102
881.112	23246
881.239	22984
881.366	22885
881.493	22790
881.619	22729
881.746	22672
881.872	22793
881.999	22687
882.125	22698
882.252	22793
882.378	22675
882.505	22736
882.631	22516
882.757	22413
882.883	22402
883.01	22440
883.136	22306
883.262	22348
883.388	22154
883.514	22462
883.64	22489
883.766	22261
883.892	22169
884.018	22314
884.143	22341
884.269	22360
884.395	22086
884.52	22101
884.646	22032
884.772	22097
884.897	21873
885.023	22074
885.148	22147
885.274	22105
885.399	22093
885.524	21930
885.65	21949
885.775	22013
885.9	21972
886.025	22154
886.15	22097
886.275	21850
886.4	22025
886.525	21949
886.65	22105
886.775	22010
886.9	21964
887.025	22246
887.149	22010
887.274	21918
887.399	21660
887.523	21785
887.648	21766
887.773	21641
887.897	21903
888.021	21793
888.146	21816
888.27	21884
888.395	21838
888.519	21827
888.643	21861
888.767	21835
888.891	21629
889.015	21599
889.139	21610
889.263	21641
889.387	21686
889.511	21842
889.635	21698
889.759	21549
889.883	21488
890.006	21625
890.13	21648
890.254	21519
890.377	21412
890.501	21370
890.624	21237
890.748	21310
890.871	21207
890.995	21203
891.118	21085
891.241	21119
891.364	21017
891.488	21226
891.611	21104
891.734	21184
891.857	21146
891.98	21195
892.103	21226
892.226	21135
892.349	21085
892.471	20925
892.594	21077
892.717	21085
892.839	21077
892.962	21123
893.085	21020
893.207	21013
893.33	20967
893.452	20963
893.575	21066
893.697	21017
893.819	21222
893.941	21104
894.064	21138
894.186	20982
894.308	20933
894.43	21055
894.552	21131
894.674	21047
894.796	20990
894.918	20990
895.04	20990
895.161	21085
895.283	21047
895.405	20933
895.526	21055
895.648	21062
895.769	20982
895.891	21028
896.012	21176
896.134	21047
896.255	20998
896.376	21039
896.498	21116
896.619	21142
896.74	21032
896.861	21058
896.982	21416
897.103	21428
897.224	21233
897.345	21275
897.466	21188
897.587	21157
897.708	21344
897.828	21169
897.949	21108
898.07	21096
898.19	21089
898.311	21237
898.431	21135
898.552	21138
898.672	21389
898.792	21245
898.913	21256
899.033	20963
899.153	21077
899.273	20849
899.393	21119
899.513	20982
899.633	20845
899.753	20963
899.873	20819
899.993	20967
900.113	20838
900.232	20872
900.352	20792
900.472	20697
900.591	20701
900.711	20689
900.83	20697
900.95	20781
901.069	20758
901.189	20564
901.308	20275
901.427	20362
901.546	20145
901.665	20214
901.784	20218
901.904	20214
902.023	20069
902.141	19814
902.26	19890
902.379	19868
902.498	19750
902.617	19772
902.735	19837
902.854	19689
902.973	19833
903.091	19506
903.21	19445
903.328	19563
903.446	19255
903.565	19301
903.683	19266
903.801	19084
903.919	19141
904.038	19251
904.156	19004
904.274	19023
904.392	18916
904.51	18966
904.627	18970
904.745	19114
904.863	19008
904.981	18798
905.098	18608
905.216	18673
905.334	18639
905.451	18570
905.569	18578
905.686	18791
905.803	18589
905.921	18456
906.038	18589
906.155	18528
906.272	18266
906.389	18410
906.506	18201
906.623	18270
906.74	18171
906.857	18072
906.974	18125
907.091	18239
907.208	18346
907.324	18190
907.441	18053
907.557	17912
907.674	17882
907.79	17889
907.907	17855
908.023	18072
908.139	17904
908.256	17855
908.372	17733
908.488	17783
908.604	17756
908.72	17668
908.836	17642
908.952	17532
909.068	17608
909.184	17726
909.3	17570
909.415	17680
909.531	17592
909.647	17433
909.762	17299
909.878	17307
909.993	17318
910.108	17265
910.224	17246
910.339	17208
910.454	17147
910.57	17041
910.685	16999
910.8	17318
910.915	17288
911.03	17090
911.145	16957
911.259	16927
911.374	16923
911.489	16797
911.604	16771
911.718	16698
911.833	16599
911.947	16558
912.062	16554
912.176	16611
912.291	16679
912.405	16622
912.519	16771
912.633	16786
912.748	16694
912.862	16542
912.976	16466
913.09	16356
913.204	16386
913.318	16447
913.431	16577
913.545	16497
913.659	16596
913.772	16432
913.886	16230
914	16246
914.113	16265
914.226	16375
914.34	16284
914.453	16131
914.566	16226
914.68	16105
914.793	16029
914.906	15903
915.019	15739
915.132	15781
915.245	15732
915.358	15827
915.47	15827
915.583	15804
915.696	15835
915.809	15934
915.921	16013
916.034	15743
916.146	15717
916.259	15709
916.371	15751
916.483	15739
916.595	15557
916.708	15599
916.82	15561
916.932	15663
917.044	15652
917.156	15584
917.268	15477
917.38	15386
917.491	15401
917.603	15389
917.715	15458
917.826	15496
917.938	15408
918.049	15294
918.161	15336
918.272	15500
918.384	15496
918.495	15382
918.606	15245
918.717	15138
918.828	15112
918.939	15256
919.05	15093
919.161	15108
919.272	15077
919.383	15055
919.494	15195
919.604	15340
919.715	15077
919.826	15055
919.936	15180
920.047	15169
920.157	15195
920.267	15363
920.378	15146
920.488	15138
920.598	15332
920.708	15416
920.818	15188
920.928	15279
921.038	15420
921.148	15359
921.258	15154
921.368	15020
921.477	14967
921.587	14765
921.697	14720
921.806	14910
921.916	14659
922.025	14518
922.134	14457
922.244	14393
922.353	14552
922.462	14336
922.571	14324
922.68	14138
922.789	14084
922.898	14195
923.007	14092
923.116	14153
923.224	14077
923.333	14100
923.442	13909
923.55	13830
923.659	14020
923.767	14069
923.876	13936
923.984	13913
924.092	13833
924.201	13849
924.309	13887
924.417	13761
924.525	13849
924.633	13750
924.741	14590
924.849	13575
924.956	13719
925.064	13548
925.172	13480
925.279	13548
925.387	13510
925.494	13502
925.602	13620
925.709	13521
925.816	13403
925.924	13445
926.031	13556
926.138	13438
926.245	13445
926.352	13369
926.459	13548
926.566	13571
926.673	13453
926.779	13263
926.886	13202
926.993	13175
927.099	13095
927.206	13023
927.312	12943
927.419	13179
927.525	13004
927.631	13015
927.737	12935
927.843	12863
927.95	12730
928.056	12844
928.162	12920
928.267	12913
928.373	13422
928.479	12993
928.585	12681
928.69	12909
928.796	12856
928.901	12783
929.007	12547
929.112	12688
929.218	12654
929.323	12711
929.428	12563
929.533	12669
929.638	12563
929.743	12532
929.848	12585
929.953	12532
930.058	12369
930.163	12273
930.267	12323
930.372	12308
930.477	12140
930.581	12384
930.685	12327
930.79	12098
930.894	12136
930.998	12114
931.103	12243
931.207	11901
931.311	11783
931.415	11691
931.519	11478
931.623	11421
