Data from test_V78500241_1018.txt Node
Date: Fri Mar 25 15:48:51 CST 2022
User: usil
Spectrometer: V785-0024
Trigger mode: 0
Integration Time (sec): 4.000000E-1
Scans to average: 1
Nonlinearity correction enabled: false
Boxcar width: 0
Storing dark spectrum: false
XAxis mode: Wavelengths
Number of Pixels in Spectrum: 1024
>>>>>Begin Spectral Data<<<<<
801.071	28025
801.214	27941
801.356	27633
801.499	27549
801.641	27492
801.783	27447
801.926	27545
802.068	27485
802.211	27469
802.353	27412
802.496	27275
802.638	27188
802.78	27055
802.923	27123
803.065	27047
803.208	27199
803.35	27188
803.492	27302
803.635	27332
803.777	27237
803.919	27481
804.061	27652
804.204	27294
804.346	27359
804.488	27218
804.63	27226
804.773	27363
804.915	27363
805.057	27583
805.199	27317
805.341	27511
805.483	27580
805.626	27431
805.768	27355
805.91	27519
806.052	27466
806.194	27211
806.336	27675
806.478	27641
806.62	27450
806.762	27622
806.904	27724
807.046	27945
807.188	27945
807.33	27884
807.472	28070
807.614	27895
807.756	27865
807.898	27819
808.04	27797
808.182	27781
808.324	27774
808.465	27831
808.607	28017
808.749	28116
808.891	28261
809.033	28451
809.174	28173
809.316	28090
809.458	28124
809.6	28124
809.741	28207
809.883	28310
810.025	28485
810.166	28371
810.308	28447
810.45	28443
810.591	28314
810.733	28230
810.875	28166
811.016	27972
811.158	28120
811.299	28261
811.441	28443
811.582	28352
811.724	28249
811.865	28139
812.007	28162
812.148	28344
812.29	28253
812.431	28390
812.573	28459
812.714	28546
812.855	28740
812.997	28725
813.138	28915
813.279	28801
813.421	28634
813.562	28615
813.703	28615
813.845	28462
813.986	28029
814.127	28017
814.268	27785
814.41	27934
814.551	27850
814.692	27861
814.833	27797
814.974	27778
815.115	27907
815.256	27701
815.397	27800
815.539	27728
815.68	27599
815.821	27667
815.962	27675
816.103	27633
816.244	27572
816.385	27606
816.526	27378
816.666	27329
816.807	27131
816.948	27317
817.089	27192
817.23	27329
817.371	27252
817.512	27123
817.653	27195
817.793	27150
817.934	27165
818.075	27211
818.216	27207
818.356	27085
818.497	27051
818.638	26788
818.778	26975
818.919	26861
819.06	26914
819.2	27222
819.341	27150
819.481	27085
819.622	27306
819.762	27492
819.903	27378
820.043	27298
820.184	27287
820.324	27211
820.465	27435
820.605	27408
820.746	27370
820.886	27135
821.026	27192
821.167	27230
821.307	27344
821.447	27146
821.588	26975
821.728	27024
821.868	26826
822.008	26762
822.149	26659
822.289	26583
822.429	26431
822.569	26336
822.709	26442
822.849	26294
822.99	26164
823.13	26058
823.27	26176
823.41	25898
823.55	25986
823.69	25974
823.83	25856
823.97	25928
824.11	25788
824.25	25704
824.389	25601
824.529	25826
824.669	25757
824.809	25856
824.949	25974
825.089	25963
825.228	25814
825.368	25609
825.508	25769
825.648	25597
825.787	25597
825.927	25811
826.067	25628
826.206	25704
826.346	25738
826.485	25837
826.625	25715
826.765	25841
826.904	25704
827.044	25544
827.183	25495
827.323	25369
827.462	25403
827.601	25320
827.741	25335
827.88	25419
828.02	25362
828.159	25396
828.298	25365
828.437	25472
828.577	25228
828.716	25529
828.855	25266
828.994	25053
829.134	25057
829.273	25103
829.412	24939
829.551	25034
829.69	25046
829.829	25114
829.968	25080
830.107	25160
830.246	25034
830.385	24985
830.524	24894
830.663	24966
830.802	24817
830.941	24749
831.08	24673
831.219	24654
831.357	24814
831.496	24897
831.635	24688
831.774	24688
831.913	24547
832.051	24483
832.19	24490
832.329	24483
832.467	24342
832.606	24350
832.744	24334
832.883	24319
833.022	24224
833.16	24361
833.299	24380
833.437	24403
833.576	24547
833.714	24403
833.852	24490
833.991	24494
834.129	24471
834.267	24441
834.406	24357
834.544	24517
834.682	24475
834.821	24315
834.959	24471
835.097	24220
835.235	24311
835.373	24399
835.511	24281
835.65	24273
835.788	24281
835.926	24159
836.064	24034
836.202	23984
836.34	24182
836.478	24380
836.615	24251
836.753	24163
836.891	24311
837.029	24148
837.167	24277
837.305	24057
837.443	24216
837.58	24045
837.718	24167
837.856	23999
837.993	23984
838.131	24102
838.269	23893
838.406	24030
838.544	23836
838.681	23786
838.819	23798
838.956	23524
839.094	23493
839.231	23638
839.369	23710
839.506	23946
839.643	23733
839.781	23589
839.918	23608
840.055	23634
840.193	23600
840.33	23452
840.467	23490
840.604	23490
840.742	23805
840.879	23303
841.016	23421
841.153	23360
841.29	23551
841.427	23429
841.564	23501
841.701	23330
841.838	23368
841.975	23353
842.112	23474
842.249	23109
842.385	23227
842.522	23353
842.659	23326
842.796	23174
842.933	23292
843.069	23166
843.206	23140
843.343	23288
843.479	23121
843.616	23090
843.752	22980
843.889	22991
844.025	23041
844.162	22831
844.298	23124
844.435	23044
844.571	22965
844.708	22999
844.844	23117
844.98	23048
845.117	23124
845.253	22831
845.389	22911
845.525	22877
845.661	22824
845.798	22752
845.934	22812
846.07	22915
846.206	22740
846.342	22828
846.478	22687
846.614	22478
846.75	22462
846.886	22424
847.022	22569
847.158	22481
847.294	22432
847.429	22516
847.565	22451
847.701	22717
847.837	22116
847.972	22112
848.108	22253
848.244	22280
848.379	22105
848.515	22029
848.65	22010
848.786	22112
848.921	22128
849.057	22154
849.192	22070
849.328	22135
849.463	21941
849.598	21972
849.734	21926
849.869	21956
850.004	21793
850.14	21778
850.275	21766
850.41	21743
850.545	21808
850.68	21781
850.815	21850
850.95	21812
851.085	21956
851.22	21960
851.355	21770
851.49	21770
851.625	21732
851.76	21778
851.895	21614
852.03	21743
852.165	21728
852.299	21846
852.434	21850
852.569	21949
852.703	21720
852.838	21835
852.973	21964
853.107	21956
853.242	21766
853.376	21618
853.511	21492
853.645	21797
853.78	21766
853.914	21644
854.048	21614
854.183	21629
854.317	21644
854.451	21728
854.585	21614
854.72	21610
854.854	21675
854.988	21580
855.122	21530
855.256	21530
855.39	21762
855.524	21663
855.658	21709
855.792	21694
855.926	21504
856.06	21625
856.194	21705
856.327	21660
856.461	21583
856.595	21515
856.729	21583
856.862	21686
856.996	21701
857.13	21709
857.263	21732
857.397	21660
857.53	21549
857.664	21751
857.797	21675
857.931	21717
858.064	21819
858.197	21698
858.331	21637
858.464	21641
858.597	21656
858.731	21576
858.864	21603
858.997	21610
859.13	21694
859.263	21530
859.396	21759
859.529	21519
859.662	21595
859.795	21675
859.928	21545
860.061	21770
860.194	21762
860.327	21694
860.46	21545
860.592	21785
860.725	21819
860.858	21854
860.99	21603
861.123	21572
861.256	21622
861.388	21682
861.521	22329
861.653	21477
861.786	21389
861.918	21454
862.05	21538
862.183	21466
862.315	21481
862.447	21698
862.58	21462
862.712	21378
862.844	21317
862.976	21462
863.108	21408
863.24	21812
863.372	21268
863.504	21378
863.636	21260
863.768	21386
863.9	21351
864.032	21374
864.164	21249
864.296	21351
864.428	21454
864.559	21302
864.691	21412
864.823	21450
864.954	21298
865.086	21473
865.217	21325
865.349	21157
865.48	21283
865.612	21203
865.743	21127
865.875	21195
866.006	21180
866.137	21161
866.269	21275
866.4	21154
866.531	21154
866.662	21169
866.793	21184
866.924	21138
867.055	21211
867.186	21169
867.317	21089
867.448	20994
867.579	20994
867.71	21005
867.841	21142
867.972	21142
868.103	21154
868.233	21135
868.364	21150
868.495	21275
868.625	21454
868.756	21530
868.886	21374
869.017	21367
869.147	21329
869.278	21511
869.408	21367
869.539	21428
869.669	21500
869.799	21412
869.929	21530
870.06	21542
870.19	21648
870.32	21705
870.45	21698
870.58	21819
870.71	21770
870.84	21964
870.97	21717
871.1	21873
871.23	21991
871.36	21991
871.489	21918
871.619	21941
871.749	21991
871.879	22010
872.008	22169
872.138	21964
872.267	21918
872.397	21842
872.526	21854
872.656	21842
872.785	21762
872.915	22010
873.044	22192
873.173	21998
873.303	22116
873.432	22059
873.561	22112
873.69	22109
873.819	22010
873.948	22112
874.077	21991
874.206	21975
874.335	22013
874.464	22044
874.593	22287
874.722	22154
874.851	22287
874.979	22192
875.108	22337
875.237	22143
875.365	22139
875.494	22211
875.623	22158
875.751	22238
875.88	22303
876.008	22341
876.136	22451
876.265	22580
876.393	22774
876.521	22493
876.65	22786
876.778	22656
876.906	22573
877.034	22538
877.162	22615
877.29	22569
877.418	22573
877.546	22577
877.674	22615
877.802	22504
877.93	22653
878.058	22573
878.185	22398
878.313	22531
878.441	22626
878.568	22421
878.696	22542
878.824	22588
878.951	22649
879.079	22831
879.206	22934
879.333	22675
879.461	22535
879.588	22641
879.715	22759
879.842	22900
879.97	22561
880.097	22451
880.224	22375
880.351	22394
880.478	22402
880.605	22257
880.732	22398
880.859	22687
880.986	22519
881.112	22394
881.239	22238
881.366	22105
881.493	21941
881.619	22021
881.746	21983
881.872	21994
881.999	22063
882.125	21876
882.252	22112
882.378	21766
882.505	22090
882.631	21869
882.757	21614
882.883	21781
883.01	21648
883.136	21606
883.262	21576
883.388	21519
883.514	21587
883.64	21644
883.766	21599
883.892	21401
884.018	21454
884.143	21694
884.269	21667
884.395	21348
884.52	21302
884.646	21321
884.772	21260
884.897	21233
885.023	21222
885.148	21416
885.274	21458
885.399	21401
885.524	21291
885.65	21317
885.775	21272
885.9	21325
886.025	21363
886.15	21458
886.275	21302
886.4	21275
886.525	21291
886.65	21184
886.775	21260
886.9	21458
887.025	21416
887.149	21306
887.274	21218
887.399	21142
887.523	21013
887.648	21024
887.773	20914
887.897	21252
888.021	21192
888.146	20986
888.27	21104
888.395	21150
888.519	21070
888.643	21093
888.767	21081
888.891	20925
889.015	20807
889.139	20986
889.263	20807
889.387	20921
889.511	21036
889.635	21055
889.759	20838
889.883	20853
890.006	20838
890.13	20941
890.254	20804
890.377	20670
890.501	20781
890.624	20625
890.748	20621
890.871	20541
890.995	20469
891.118	20389
891.241	20427
891.364	20457
891.488	20625
891.611	20370
891.734	20431
891.857	20431
891.98	20385
892.103	20484
892.226	20526
892.349	20389
892.471	20248
892.594	20259
892.717	20434
892.839	20328
892.962	20446
893.085	20355
893.207	20282
893.33	20370
893.452	20256
893.575	20320
893.697	20240
893.819	20465
893.941	20655
894.064	20484
894.186	20347
894.308	20206
894.43	20396
894.552	20419
894.674	20412
894.796	20263
894.918	20370
895.04	20218
895.161	20396
895.283	20290
895.405	20408
895.526	20393
895.648	20244
895.769	20457
895.891	20366
896.012	20320
896.134	20366
896.255	20446
896.376	20408
896.498	20301
896.619	20427
896.74	20305
896.861	20465
896.982	20743
897.103	20686
897.224	20651
897.345	20552
897.466	20495
897.587	20499
897.708	20670
897.828	20708
897.949	20560
898.07	20347
898.19	20442
898.311	20560
898.431	20434
898.552	20499
898.672	20568
898.792	20564
898.913	20564
899.033	20438
899.153	20309
899.273	20385
899.393	20343
899.513	20240
899.633	20366
899.753	20381
899.873	20233
899.993	20282
900.113	20161
900.232	20256
900.352	20210
900.472	20062
900.591	20073
900.711	20180
900.83	19940
900.95	20145
901.069	20050
901.189	20077
901.308	19746
901.427	19590
901.546	19651
901.665	19540
901.784	19594
901.904	19464
902.023	19441
902.141	19369
902.26	19312
902.379	19324
902.498	19099
902.617	19171
902.735	19244
902.854	19110
902.973	19057
903.091	18829
903.21	18882
903.328	18821
903.446	18616
903.565	18654
903.683	18654
903.801	18635
903.919	18540
904.038	18513
904.156	18319
904.274	18391
904.392	18407
904.51	18399
904.627	18380
904.745	18536
904.863	18395
904.981	18281
905.098	18133
905.216	17996
905.334	18083
905.451	18053
905.569	18038
905.686	18034
905.803	18152
905.921	17809
906.038	18007
906.155	17920
906.272	17790
906.389	17737
906.506	17668
906.623	17585
906.74	17623
906.857	17421
906.974	17486
907.091	17729
907.208	17767
907.324	17570
907.441	17532
907.557	17360
907.674	17288
907.79	17181
907.907	17246
908.023	17383
908.139	17261
908.256	17265
908.372	17159
908.488	17170
908.604	17075
908.72	16987
908.836	17075
908.952	17033
909.068	17064
909.184	17147
909.3	17041
909.415	17025
909.531	16942
909.647	16630
909.762	16679
909.878	16672
909.993	16702
910.108	16668
910.224	16641
910.339	16748
910.454	16637
910.57	16546
910.685	16508
910.8	16733
910.915	16664
911.03	16588
911.145	16394
911.259	16363
911.374	16386
911.489	16268
911.604	16211
911.718	16105
911.833	16090
911.947	15911
912.062	16006
912.176	15975
912.291	16097
912.405	16158
912.519	16196
912.633	16238
912.748	16120
912.862	16002
912.976	15934
913.09	15713
913.204	15835
913.318	15972
913.431	16021
913.545	15918
913.659	15941
913.772	15846
913.886	15694
914	15686
914.113	15732
914.226	15808
914.34	15679
914.453	15542
914.566	15682
914.68	15488
914.793	15481
914.906	15336
915.019	15344
915.132	15233
915.245	15256
915.358	15363
915.47	15302
915.583	15195
915.696	15260
915.809	15313
915.921	15393
916.034	15336
916.146	15150
916.259	15146
916.371	15260
916.483	15146
916.595	15093
916.708	15150
916.82	15081
916.932	15047
917.044	15055
917.156	15108
917.268	14952
917.38	14975
917.491	14906
917.603	14887
917.715	14982
917.826	14925
917.938	14914
918.049	14838
918.161	14705
918.272	14963
918.384	14944
918.495	14788
918.606	14815
918.717	14590
918.828	14781
918.939	14724
919.05	14583
919.161	14667
919.272	14484
919.383	14518
919.494	14750
919.604	14918
919.715	14758
919.826	14571
919.936	14590
920.047	14750
920.157	14644
920.267	14781
920.378	14689
920.488	14686
920.598	14823
920.708	14868
920.818	14785
920.928	14682
921.038	14944
921.148	14868
921.258	14537
921.368	14480
921.477	14415
921.587	14294
921.697	14237
921.806	14374
921.916	14278
922.025	14103
922.134	14043
922.244	13959
922.353	14012
922.462	13947
922.571	13833
922.68	13746
922.789	13655
922.898	13624
923.007	13651
923.116	13731
923.224	13674
923.333	13609
923.442	13445
923.55	13548
923.659	13525
923.767	13605
923.876	13426
923.984	13449
924.092	13464
924.201	13411
924.309	13373
924.417	13400
924.525	13411
924.633	13392
924.741	14050
924.849	13156
924.956	13259
925.064	13129
925.172	12989
925.279	13023
925.387	13149
925.494	12970
925.602	13175
925.709	13137
925.816	13076
925.924	12977
926.031	13088
926.138	12996
926.245	12989
926.352	12840
926.459	13061
926.566	13114
926.673	12954
926.779	12753
926.886	12814
926.993	12734
927.099	12711
927.206	12532
927.312	12604
927.419	12673
927.525	12696
927.631	12654
927.737	12517
927.843	12414
927.95	12346
928.056	12445
928.162	12490
928.267	12399
928.373	13031
928.479	12494
928.585	12342
928.69	12361
928.796	12441
928.901	12296
929.007	12266
929.112	12323
929.218	12289
929.323	12224
929.428	12273
929.533	12391
929.638	12117
929.743	12129
929.848	12129
929.953	12159
930.058	12102
930.163	11946
930.267	11942
930.372	12136
930.477	11843
930.581	12079
930.685	12007
930.79	11775
930.894	11893
930.998	11786
931.103	11901
931.207	11551
931.311	11467
931.415	11353
931.519	11162
931.623	11140
