Data from test_V78500241_819.txt Node
Date: Fri Mar 25 15:47:28 CST 2022
User: usil
Spectrometer: V785-0024
Trigger mode: 0
Integration Time (sec): 4.000000E-1
Scans to average: 1
Nonlinearity correction enabled: false
Boxcar width: 0
Storing dark spectrum: false
XAxis mode: Wavelengths
Number of Pixels in Spectrum: 1024
>>>>>Begin Spectral Data<<<<<
801.071	28063
801.214	27762
801.356	27538
801.499	27511
801.641	27473
801.783	27431
801.926	27500
802.068	27302
802.211	27317
802.353	27279
802.496	27138
802.638	27096
802.78	27119
802.923	27028
803.065	26982
803.208	27020
803.35	27017
803.492	27085
803.635	27241
803.777	27233
803.919	27268
804.061	27583
804.204	27420
804.346	27298
804.488	27169
804.63	27230
804.773	27036
804.915	27332
805.057	27435
805.199	27233
805.341	27424
805.483	27610
805.626	27370
805.768	27340
805.91	27268
806.052	27450
806.194	27306
806.336	27530
806.478	27389
806.62	27485
806.762	27488
806.904	27781
807.046	28029
807.188	27899
807.33	27865
807.472	27861
807.614	27888
807.756	27785
807.898	27755
808.04	27717
808.182	27648
808.324	27739
808.465	27675
808.607	27846
808.749	28078
808.891	28135
809.033	28185
809.174	28051
809.316	28188
809.458	28086
809.6	28135
809.741	28234
809.883	28257
810.025	28287
810.166	28413
810.308	28363
810.45	28261
810.591	28295
810.733	28276
810.875	28154
811.016	28025
811.158	27941
811.299	28185
811.441	28322
811.582	28303
811.724	28116
811.865	28086
812.007	28090
812.148	27956
812.29	28226
812.431	28325
812.573	28493
812.714	28523
812.855	28546
812.997	28653
813.138	28713
813.279	28786
813.421	28744
813.562	28592
813.703	28341
813.845	28280
813.986	28150
814.127	27895
814.268	27808
814.41	27660
814.551	27717
814.692	27880
814.833	27789
814.974	27717
815.115	27785
815.256	27698
815.397	27538
815.539	27606
815.68	27481
815.821	27587
815.962	27660
816.103	27667
816.244	27473
816.385	27386
816.526	27348
816.666	27264
816.807	27055
816.948	27096
817.089	27188
817.23	27077
817.371	27127
817.512	26975
817.653	26937
817.793	27017
817.934	27039
818.075	27150
818.216	27241
818.356	26967
818.497	26826
818.638	26788
818.778	26777
818.919	26811
819.06	26823
819.2	26963
819.341	27081
819.481	27161
819.622	27310
819.762	27443
819.903	27351
820.043	27340
820.184	27195
820.324	27207
820.465	27176
820.605	27306
820.746	27093
820.886	26952
821.026	27180
821.167	26998
821.307	27222
821.447	27020
821.588	26864
821.728	26948
821.868	26720
822.008	26594
822.149	26492
822.289	26480
822.429	26271
822.569	26149
822.709	26294
822.849	26027
822.99	26039
823.13	26084
823.27	26001
823.41	26016
823.55	25742
823.69	25944
823.83	25837
823.97	25856
824.11	25750
824.25	25651
824.389	25647
824.529	25753
824.669	25700
824.809	25830
824.949	25822
825.089	25837
825.228	25700
825.368	25624
825.508	25559
825.648	25495
825.787	25559
825.927	25586
826.067	25518
826.206	25540
826.346	25700
826.485	25704
826.625	25499
826.765	25670
826.904	25552
827.044	25304
827.183	25270
827.323	25244
827.462	25293
827.601	25312
827.741	25240
827.88	25247
828.02	25099
828.159	25103
828.298	25297
828.437	25335
828.577	25164
828.716	25244
828.855	25160
828.994	25019
829.134	24916
829.273	25019
829.412	24928
829.551	24882
829.69	24875
829.829	24973
829.968	24958
830.107	25080
830.246	24954
830.385	24905
830.524	24772
830.663	24753
830.802	24688
830.941	24536
831.08	24570
831.219	24566
831.357	24604
831.496	24726
831.635	24612
831.774	24498
831.913	24589
832.051	24243
832.19	24311
832.329	24361
832.467	24247
832.606	24251
832.744	24327
832.883	24243
833.022	24053
833.16	24152
833.299	24254
833.437	24186
833.576	24289
833.714	24350
833.852	24330
833.991	24319
834.129	24437
834.267	24254
834.406	24334
834.544	24330
834.682	24342
834.821	24239
834.959	24399
835.097	24224
835.235	24330
835.373	24327
835.511	24369
835.65	24038
835.788	24129
835.926	24003
836.064	23973
836.202	24076
836.34	24007
836.478	24216
836.615	24079
836.753	24163
836.891	24209
837.029	24140
837.167	24155
837.305	24018
837.443	23965
837.58	23961
837.718	24049
837.856	23912
837.993	23916
838.131	24053
838.269	23958
838.406	23813
838.544	23813
838.681	23623
838.819	23611
838.956	23398
839.094	23360
839.231	23592
839.369	23600
839.506	23714
839.643	23684
839.781	23482
839.918	23277
840.055	23406
840.193	23406
840.33	23360
840.467	23334
840.604	23497
840.742	23684
840.879	23143
841.016	23337
841.153	23235
841.29	23360
841.427	23341
841.564	23414
841.701	23280
841.838	23265
841.975	23200
842.112	23246
842.249	23151
842.385	23132
842.522	23307
842.659	23159
842.796	23094
842.933	23204
843.069	23075
843.206	23064
843.343	23079
843.479	23113
843.616	23105
843.752	22873
843.889	22774
844.025	23041
844.162	22885
844.298	23022
844.435	22809
844.571	22965
844.708	22938
844.844	23090
844.98	23052
845.117	22980
845.253	22938
845.389	22725
845.525	22790
845.661	22748
845.798	22523
845.934	22721
846.07	22573
846.206	22546
846.342	22691
846.478	22603
846.614	22443
846.75	22382
846.886	22329
847.022	22432
847.158	22379
847.294	22356
847.429	22333
847.565	22230
847.701	22675
847.837	22070
847.972	22120
848.108	22204
848.244	22162
848.379	22051
848.515	22002
848.65	21793
848.786	22017
848.921	21945
849.057	21979
849.192	21994
849.328	22044
849.463	22006
849.598	22010
849.734	21861
849.869	21850
850.004	21614
850.14	21785
850.275	21713
850.41	21667
850.545	21747
850.68	21622
850.815	21842
850.95	21660
851.085	21857
851.22	21755
851.355	21720
851.49	21724
851.625	21656
851.76	21713
851.895	21637
852.03	21675
852.165	21690
852.299	21686
852.434	21679
852.569	21774
852.703	21667
852.838	21861
852.973	21838
853.107	21857
853.242	21671
853.376	21481
853.511	21450
853.645	21580
853.78	21629
853.914	21424
854.048	21534
854.183	21492
854.317	21462
854.451	21770
854.585	21485
854.72	21454
854.854	21564
854.988	21488
855.122	21526
855.256	21386
855.39	21458
855.524	21530
855.658	21610
855.792	21564
855.926	21519
856.06	21576
856.194	21599
856.327	21511
856.461	21408
856.595	21397
856.729	21504
856.862	21663
856.996	21576
857.13	21698
857.263	21583
857.397	21663
857.53	21534
857.664	21629
857.797	21576
857.931	21576
858.064	21576
858.197	21603
858.331	21538
858.464	21504
858.597	21492
858.731	21462
858.864	21431
858.997	21450
859.13	21629
859.263	21504
859.396	21534
859.529	21526
859.662	21511
859.795	21500
859.928	21576
860.061	21648
860.194	21701
860.327	21431
860.46	21595
860.592	21675
860.725	21667
860.858	21667
860.99	21580
861.123	21511
861.256	21492
861.388	21614
861.521	22025
861.653	21405
861.786	21298
861.918	21348
862.05	21393
862.183	21431
862.315	21492
862.447	21549
862.58	21469
862.712	21256
862.844	21192
862.976	21348
863.108	21306
863.24	21698
863.372	21184
863.504	21275
863.636	21184
863.768	21374
863.9	21214
864.032	21150
864.164	21161
864.296	21230
864.428	21306
864.559	21382
864.691	21298
864.823	21233
864.954	21298
865.086	21256
865.217	21237
865.349	21032
865.48	21093
865.612	21169
865.743	21321
865.875	21245
866.006	21127
866.137	21211
866.269	21173
866.4	21203
866.531	21100
866.662	21055
866.793	21020
866.924	21203
867.055	21119
867.186	20933
867.317	21081
867.448	20994
867.579	21062
867.71	21013
867.841	20861
867.972	21096
868.103	20982
868.233	21142
868.364	21032
868.495	21161
868.625	21313
868.756	21389
868.886	21199
869.017	21214
869.147	21241
869.278	21485
869.408	21378
869.539	21279
869.669	21348
869.799	21367
869.929	21332
870.06	21370
870.19	21606
870.32	21675
870.45	21751
870.58	21686
870.71	21717
870.84	21945
870.97	21724
871.1	21663
871.23	21827
871.36	21876
871.489	21728
871.619	21857
871.749	21861
871.879	21964
872.008	22128
872.138	21998
872.267	21850
872.397	21732
872.526	21823
872.656	21759
872.785	21743
872.915	21884
873.044	21895
873.173	21865
873.303	21895
873.432	21873
873.561	22010
873.69	22006
873.819	21956
873.948	22029
874.077	21880
874.206	22070
874.335	21876
874.464	22029
874.593	22211
874.722	22067
874.851	22223
874.979	22116
875.108	22219
875.237	22109
875.365	22082
875.494	22093
875.623	22109
875.751	22105
875.88	22169
876.008	22246
876.136	22325
876.265	22622
876.393	22691
876.521	22615
876.65	22508
876.778	22626
876.906	22379
877.034	22398
877.162	22542
877.29	22405
877.418	22535
877.546	22554
877.674	22531
877.802	22550
877.93	22554
878.058	22386
878.185	22322
878.313	22390
878.441	22577
878.568	22360
878.696	22428
878.824	22577
878.951	22489
879.079	22759
879.206	22710
879.333	22527
879.461	22481
879.588	22535
879.715	22611
879.842	22683
879.97	22557
880.097	22322
880.224	22303
880.351	22333
880.478	22440
880.605	22322
880.732	22459
880.859	22645
880.986	22443
881.112	22360
881.239	22181
881.366	22063
881.493	22006
881.619	21804
881.746	21987
881.872	21797
881.999	21831
882.125	21827
882.252	21934
882.378	21850
882.505	22013
882.631	21713
882.757	21526
882.883	21637
883.01	21629
883.136	21599
883.262	21454
883.388	21443
883.514	21629
883.64	21667
883.766	21549
883.892	21393
884.018	21416
884.143	21561
884.269	21618
884.395	21275
884.52	21237
884.646	21256
884.772	21127
884.897	21112
885.023	21233
885.148	21344
885.274	21431
885.399	21386
885.524	21192
885.65	21192
885.775	21237
885.9	21264
886.025	21443
886.15	21313
886.275	21256
886.4	21116
886.525	21207
886.65	21211
886.775	21150
886.9	21325
887.025	21332
887.149	21268
887.274	21146
887.399	20956
887.523	20960
887.648	20899
887.773	20914
887.897	21077
888.021	21180
888.146	20899
888.27	21146
888.395	20994
888.519	20941
888.643	20963
888.767	20986
888.891	20895
889.015	20937
889.139	20823
889.263	20739
889.387	21051
889.511	21001
889.635	20880
889.759	20781
889.883	20731
890.006	20845
890.13	20785
890.254	20731
890.377	20804
890.501	20514
890.624	20507
890.748	20590
890.871	20431
890.995	20347
891.118	20343
891.241	20358
891.364	20457
891.488	20473
891.611	20446
891.734	20381
891.857	20412
891.98	20332
892.103	20389
892.226	20320
892.349	20336
892.471	20240
892.594	20305
892.717	20343
892.839	20180
892.962	20164
893.085	20355
893.207	20278
893.33	20206
893.452	20221
893.575	20271
893.697	20332
893.819	20377
893.941	20480
894.064	20347
894.186	20153
894.308	20237
894.43	20278
894.552	20328
894.674	20400
894.796	20149
894.918	20157
895.04	20240
895.161	20229
895.283	20370
895.405	20225
895.526	20229
895.648	20298
895.769	20309
895.891	20320
896.012	20324
896.134	20389
896.255	20298
896.376	20248
896.498	20191
896.619	20210
896.74	20233
896.861	20366
896.982	20693
897.103	20735
897.224	20526
897.345	20450
897.466	20434
897.587	20469
897.708	20617
897.828	20503
897.949	20476
898.07	20343
898.19	20374
898.311	20560
898.431	20351
898.552	20511
898.672	20492
898.792	20533
898.913	20549
899.033	20377
899.153	20313
899.273	20111
899.393	20229
899.513	20282
899.633	20187
899.753	20187
899.873	20320
899.993	20324
900.113	20210
900.232	20164
900.352	20191
900.472	20073
900.591	19921
900.711	20001
900.83	19860
900.95	20046
901.069	20176
901.189	19894
901.308	19712
901.427	19582
901.546	19544
901.665	19537
901.784	19601
901.904	19396
902.023	19434
902.141	19164
902.26	19126
902.379	19289
902.498	19137
902.617	19019
902.735	19095
902.854	18920
902.973	19053
903.091	18829
903.21	18791
903.328	18688
903.446	18601
903.565	18528
903.683	18547
903.801	18350
903.919	18418
904.038	18536
904.156	18300
904.274	18414
904.392	18380
904.51	18319
904.627	18292
904.745	18327
904.863	18330
904.981	18121
905.098	18049
905.216	17939
905.334	18068
905.451	17973
905.569	17904
905.686	18022
905.803	17942
905.921	17764
906.038	17824
906.155	17805
906.272	17661
906.389	17630
906.506	17589
906.623	17600
906.74	17528
906.857	17311
906.974	17478
907.091	17642
907.208	17657
907.324	17581
907.441	17482
907.557	17296
907.674	17261
907.79	17197
907.907	17258
908.023	17231
908.139	17292
908.256	17204
908.372	17098
908.488	17052
908.604	16957
908.72	17010
908.836	16953
908.952	16900
909.068	17045
909.184	17006
909.3	16949
909.415	16976
909.531	16995
909.647	16717
909.762	16729
909.878	16736
909.993	16801
910.108	16706
910.224	16611
910.339	16546
910.454	16603
910.57	16535
910.685	16519
910.8	16607
910.915	16493
911.03	16447
911.145	16371
911.259	16219
911.374	16344
911.489	16196
911.604	16211
911.718	16074
911.833	16051
911.947	15983
912.062	15785
912.176	16036
912.291	16109
912.405	15960
912.519	16223
912.633	16242
912.748	16036
912.862	15972
912.976	15766
913.09	15690
913.204	15827
913.318	15861
913.431	15816
913.545	15884
913.659	15823
913.772	15705
913.886	15713
914	15511
914.113	15755
914.226	15671
914.34	15682
914.453	15519
914.566	15717
914.68	15580
914.793	15504
914.906	15310
915.019	15351
915.132	15207
915.245	15275
915.358	15230
915.47	15097
915.583	15214
915.696	15214
915.809	15249
915.921	15325
916.034	15150
916.146	15104
916.259	15108
916.371	15233
916.483	15119
916.595	14998
916.708	15013
916.82	14982
916.932	14967
917.044	15108
917.156	15020
917.268	14899
917.38	14899
917.491	14887
917.603	14887
917.715	14998
917.826	14956
917.938	14849
918.049	14697
918.161	14800
918.272	14952
918.384	14982
918.495	14845
918.606	14648
918.717	14651
918.828	14674
918.939	14697
919.05	14568
919.161	14648
919.272	14370
919.383	14526
919.494	14674
919.604	14796
919.715	14571
919.826	14476
919.936	14533
920.047	14655
920.157	14632
920.267	14845
920.378	14537
920.488	14590
920.598	14667
920.708	14910
920.818	14716
920.928	14739
921.038	14918
921.148	14861
921.258	14564
921.368	14377
921.477	14389
921.587	14358
921.697	14210
921.806	14362
921.916	14138
922.025	14012
922.134	14008
922.244	13890
922.353	13974
922.462	13871
922.571	13708
922.68	13677
922.789	13651
922.898	13601
923.007	13506
923.116	13597
923.224	13613
923.333	13601
923.442	13495
923.55	13472
923.659	13491
923.767	13594
923.876	13308
923.984	13510
924.092	13236
924.201	13312
924.309	13312
924.417	13369
924.525	13236
924.633	13297
924.741	14168
924.849	13133
924.956	13263
925.064	13141
925.172	13038
925.279	12989
925.387	13019
925.494	13019
925.602	13129
925.709	13015
925.816	12913
925.924	12962
926.031	13114
926.138	12928
926.245	13008
926.352	12920
926.459	13004
926.566	13008
926.673	12840
926.779	12772
926.886	12825
926.993	12612
927.099	12551
927.206	12521
927.312	12433
927.419	12658
927.525	12658
927.631	12612
927.737	12536
927.843	12483
927.95	12273
928.056	12418
928.162	12426
928.267	12395
928.373	13118
928.479	12521
928.585	12205
928.69	12372
928.796	12464
928.901	12251
929.007	12148
929.112	12235
929.218	12365
929.323	12171
929.428	12251
929.533	12232
929.638	12049
929.743	12144
929.848	12125
929.953	12117
930.058	11984
930.163	11786
930.267	11904
930.372	12049
930.477	11821
930.581	12095
930.685	11863
930.79	11714
930.894	11809
930.998	11668
931.103	11942
931.207	11486
931.311	11455
931.415	11307
931.519	11159
931.623	11185
