Data from test_V78500241_328.txt Node
Date: Fri Mar 25 15:44:04 CST 2022
User: usil
Spectrometer: V785-0024
Trigger mode: 0
Integration Time (sec): 4.000000E-1
Scans to average: 1
Nonlinearity correction enabled: false
Boxcar width: 0
Storing dark spectrum: false
XAxis mode: Wavelengths
Number of Pixels in Spectrum: 1024
>>>>>Begin Spectral Data<<<<<
801.071	29847
801.214	29809
801.356	29630
801.499	29577
801.641	29429
801.783	29448
801.926	29509
802.068	29372
802.211	29417
802.353	29296
802.496	29105
802.638	29162
802.78	28968
802.923	29018
803.065	29094
803.208	28927
803.35	29060
803.492	29239
803.635	29303
803.777	29220
803.919	29299
804.061	29619
804.204	29406
804.346	29227
804.488	29166
804.63	29132
804.773	29151
804.915	29307
805.057	29345
805.199	29307
805.341	29364
805.483	29277
805.626	29258
805.768	29337
805.91	29337
806.052	29478
806.194	29208
806.336	29672
806.478	29391
806.62	29452
806.762	29509
806.904	29832
807.046	30072
807.188	29885
807.33	29965
807.472	29885
807.614	29923
807.756	29798
807.898	29680
808.04	29623
808.182	29741
808.324	29596
808.465	29741
808.607	29904
808.749	30060
808.891	30167
809.033	30152
809.174	30083
809.316	30018
809.458	30129
809.6	29980
809.741	30174
809.883	30289
810.025	30349
810.166	30338
810.308	30475
810.45	30327
810.591	30429
810.733	30125
810.875	30041
811.016	29942
811.158	30110
811.299	30285
811.441	30277
811.582	30376
811.724	30155
811.865	30072
812.007	29969
812.148	30041
812.29	30300
812.431	30315
812.573	30296
812.714	30540
812.855	30635
812.997	30833
813.138	30932
813.279	30601
813.421	30604
813.562	30525
813.703	30410
813.845	30319
813.986	29920
814.127	29870
814.268	29680
814.41	29726
814.551	29653
814.692	29935
814.833	29611
814.974	29672
815.115	29714
815.256	29619
815.397	29752
815.539	29531
815.68	29600
815.821	29528
815.962	29440
816.103	29372
816.244	29444
816.385	29303
816.526	29292
816.666	29098
816.807	28915
816.948	29162
817.089	29162
817.23	29102
817.371	29109
817.512	29105
817.653	28923
817.793	28752
817.934	29044
818.075	29041
818.216	29113
818.356	28957
818.497	28820
818.638	28710
818.778	28820
818.919	28733
819.06	28782
819.2	28873
819.341	29151
819.481	29037
819.622	29136
819.762	29372
819.903	29147
820.043	29197
820.184	28999
820.324	28938
820.465	29102
820.605	29056
820.746	29113
820.886	28946
821.026	28915
821.167	28915
821.307	29155
821.447	28923
821.588	28835
821.728	28805
821.868	28645
822.008	28485
822.149	28478
822.289	28337
822.429	28044
822.569	28120
822.709	28006
822.849	27930
822.99	27854
823.13	27914
823.27	27888
823.41	27747
823.55	27564
823.69	27591
823.83	27652
823.97	27648
824.11	27507
824.25	27500
824.389	27557
824.529	27587
824.669	27644
824.809	27538
824.949	27519
825.089	27526
825.228	27447
825.368	27291
825.508	27462
825.648	27408
825.787	27473
825.927	27443
826.067	27218
826.206	27317
826.346	27473
826.485	27298
826.625	27188
826.765	27488
826.904	27496
827.044	27127
827.183	27135
827.323	26876
827.462	27028
827.601	26990
827.741	27070
827.88	27013
828.02	26933
828.159	26998
828.298	26921
828.437	27036
828.577	26830
828.716	27135
828.855	26754
828.994	26792
829.134	26739
829.273	26575
829.412	26686
829.551	26621
829.69	26712
829.829	26693
829.968	26731
830.107	26769
830.246	26575
830.385	26629
830.524	26522
830.663	26594
830.802	26453
830.941	26244
831.08	26248
831.219	26450
831.357	26427
831.496	26453
831.635	26191
831.774	26119
831.913	26191
832.051	25997
832.19	25970
832.329	26187
832.467	26050
832.606	25993
832.744	25822
832.883	25864
833.022	25875
833.16	25890
833.299	26012
833.437	25928
833.576	25940
833.714	25959
833.852	26012
833.991	25959
834.129	25928
834.267	25906
834.406	25791
834.544	25883
834.682	25826
834.821	25776
834.959	26172
835.097	25849
835.235	25837
835.373	25890
835.511	25772
835.65	25769
835.788	25780
835.926	25514
836.064	25499
836.202	25616
836.34	25696
836.478	25833
836.615	25704
836.753	25651
836.891	25807
837.029	25575
837.167	25651
837.305	25674
837.443	25597
837.58	25601
837.718	25685
837.856	25533
837.993	25499
838.131	25586
838.269	25540
838.406	25377
838.544	25445
838.681	25190
838.819	25129
838.956	25114
839.094	25012
839.231	24977
839.369	25141
839.506	25221
839.643	25217
839.781	24985
839.918	25008
840.055	24951
840.193	24867
840.33	24920
840.467	24905
840.604	24894
840.742	25236
840.879	24684
841.016	24848
841.153	24722
841.29	24985
841.427	24871
841.564	24935
841.701	24707
841.838	24658
841.975	24684
842.112	24825
842.249	24646
842.385	24517
842.522	24852
842.659	24642
842.796	24559
842.933	24479
843.069	24471
843.206	24612
843.343	24555
843.479	24490
843.616	24456
843.752	24334
843.889	24391
844.025	24467
844.162	24277
844.298	24418
844.435	24376
844.571	24251
844.708	24388
844.844	24547
844.98	24483
845.117	24422
845.253	24270
845.389	24136
845.525	24232
845.661	24167
845.798	23980
845.934	24125
846.07	24015
846.206	23942
846.342	24144
846.478	23996
846.614	23813
846.75	23726
846.886	23611
847.022	23786
847.158	23718
847.294	23737
847.429	23745
847.565	23661
847.701	23931
847.837	23452
847.972	23425
848.108	23486
848.244	23551
848.379	23261
848.515	23387
848.65	23220
848.786	23391
848.921	23459
849.057	23425
849.192	23349
849.328	23345
849.463	23231
849.598	23200
849.734	23170
849.869	23094
850.004	22961
850.14	23090
850.275	23071
850.41	23025
850.545	23014
850.68	22957
850.815	22923
850.95	23006
851.085	23147
851.22	23105
851.355	23041
851.49	23029
851.625	22965
851.76	23151
851.895	22949
852.03	22938
852.165	23056
852.299	23079
852.434	23079
852.569	23109
852.703	23006
852.838	23010
852.973	23185
853.107	23018
853.242	22984
853.376	22748
853.511	22691
853.645	22831
853.78	22862
853.914	22869
854.048	22615
854.183	22778
854.317	22835
854.451	23067
854.585	22763
854.72	22820
854.854	22790
854.988	22858
855.122	22873
855.256	22801
855.39	22725
855.524	22790
855.658	22812
855.792	22911
855.926	22694
856.06	22866
856.194	23014
856.327	22801
856.461	22702
856.595	22816
856.729	22885
856.862	22869
856.996	22847
857.13	22866
857.263	22972
857.397	22843
857.53	22847
857.664	22744
857.797	22793
857.931	22923
858.064	22843
858.197	22908
858.331	22740
858.464	22717
858.597	22668
858.731	22626
858.864	22637
858.997	22710
859.13	22771
859.263	22854
859.396	22820
859.529	22668
859.662	22717
859.795	22649
859.928	22767
860.061	22934
860.194	22892
860.327	22767
860.46	22778
860.592	22797
860.725	22839
860.858	22809
860.99	22797
861.123	22778
861.256	22816
861.388	22759
861.521	23535
861.653	22634
861.786	22615
861.918	22554
862.05	22683
862.183	22820
862.315	22694
862.447	22820
862.58	22782
862.712	22508
862.844	22481
862.976	22615
863.108	22500
863.24	22847
863.372	22432
863.504	22508
863.636	22363
863.768	22512
863.9	22424
864.032	22276
864.164	22291
864.296	22421
864.428	22592
864.559	22402
864.691	22478
864.823	22440
864.954	22295
865.086	22356
865.217	22428
865.349	22280
865.48	22268
865.612	22276
865.743	22443
865.875	22360
866.006	22234
866.137	22382
866.269	22348
866.4	22257
866.531	22379
866.662	22303
866.793	22200
866.924	22139
867.055	22314
867.186	22158
867.317	22192
867.448	22257
867.579	22253
867.71	21994
867.841	22116
867.972	22204
868.103	22154
868.233	22253
868.364	22131
868.495	22333
868.625	22367
868.756	22527
868.886	22402
869.017	22382
869.147	22611
869.278	22607
869.408	22371
869.539	22432
869.669	22382
869.799	22615
869.929	22679
870.06	22675
870.19	22725
870.32	22733
870.45	22725
870.58	22881
870.71	22987
870.84	22904
870.97	22930
871.1	22831
871.23	23048
871.36	23162
871.489	22862
871.619	22972
871.749	23075
871.879	23071
872.008	23056
872.138	23094
872.267	23064
872.397	22854
872.526	22824
872.656	22934
872.785	22824
872.915	23041
873.044	23102
873.173	23010
873.303	23128
873.432	23117
873.561	23147
873.69	23010
873.819	23151
873.948	23056
874.077	23086
874.206	22999
874.335	23109
874.464	23075
874.593	23322
874.722	23288
874.851	23220
874.979	23356
875.108	23433
875.237	23185
875.365	23124
875.494	23322
875.623	23349
875.751	23197
875.88	23155
876.008	23436
876.136	23467
876.265	23570
876.393	23847
876.521	23836
876.65	23722
876.778	23646
876.906	23676
877.034	23592
877.162	23604
877.29	23490
877.418	23570
877.546	23726
877.674	23615
877.802	23570
877.93	23714
878.058	23543
878.185	23611
878.313	23459
878.441	23649
878.568	23330
878.696	23554
878.824	23653
878.951	23642
879.079	23805
879.206	23874
879.333	23802
879.461	23581
879.588	23672
879.715	23802
879.842	23904
879.97	23592
880.097	23425
880.224	23543
880.351	23414
880.478	23421
880.605	23414
880.732	23463
880.859	23661
880.986	23440
881.112	23543
881.239	23311
881.366	23200
881.493	23185
881.619	23029
881.746	22980
881.872	22991
881.999	22991
882.125	22927
882.252	23094
882.378	23052
882.505	23048
882.631	22786
882.757	22694
882.883	22805
883.01	22771
883.136	22611
883.262	22577
883.388	22599
883.514	22710
883.64	22702
883.766	22584
883.892	22565
884.018	22580
884.143	22603
884.269	22721
884.395	22367
884.52	22325
884.646	22284
884.772	22246
884.897	22166
885.023	22238
885.148	22322
885.274	22485
885.399	22367
885.524	22325
885.65	22325
885.775	22268
885.9	22394
886.025	22440
886.15	22508
886.275	22238
886.4	22295
886.525	22265
886.65	22371
886.775	22207
886.9	22451
887.025	22379
887.149	22363
887.274	22185
887.399	22128
887.523	22032
887.648	22093
887.773	21899
887.897	22181
888.021	22078
888.146	22074
888.27	22196
888.395	22143
888.519	22128
888.643	22086
888.767	22150
888.891	21903
889.015	21915
889.139	21888
889.263	21846
889.387	21949
889.511	22055
889.635	21960
889.759	21926
889.883	21648
890.006	21766
890.13	21956
890.254	21743
890.377	21580
890.501	21667
890.624	21504
890.748	21625
890.871	21488
890.995	21268
891.118	21321
891.241	21359
891.364	21389
891.488	21466
891.611	21378
891.734	21488
891.857	21405
891.98	21492
892.103	21473
892.226	21439
892.349	21329
892.471	21154
892.594	21287
892.717	21230
892.839	21116
892.962	21230
893.085	21287
893.207	21344
893.33	21173
893.452	21150
893.575	21237
893.697	21241
893.819	21355
893.941	21431
894.064	21412
894.186	21226
894.308	21138
894.43	21310
894.552	21450
894.674	21370
894.796	21112
894.918	21230
895.04	21131
895.161	21241
895.283	21260
895.405	21222
895.526	21310
895.648	21310
895.769	21291
895.891	21302
896.012	21260
896.134	21310
896.255	21211
896.376	21180
896.498	21180
896.619	21275
896.74	21317
896.861	21325
896.982	21492
897.103	21759
897.224	21538
897.345	21492
897.466	21382
897.587	21530
897.708	21504
897.828	21416
897.949	21454
898.07	21287
898.19	21435
898.311	21458
898.431	21310
898.552	21393
898.672	21405
898.792	21568
898.913	21580
899.033	21313
899.153	21184
899.273	20990
899.393	21085
899.513	21180
899.633	21176
899.753	21077
899.873	21096
899.993	21112
900.113	21055
900.232	21051
900.352	20998
900.472	20933
900.591	20872
900.711	20925
900.83	20819
900.95	20971
901.069	21024
901.189	20750
901.308	20545
901.427	20480
901.546	20461
901.665	20381
901.784	20476
901.904	20290
902.023	20237
902.141	20012
902.26	20054
902.379	20130
902.498	19997
902.617	19875
902.735	20024
902.854	19909
902.973	19879
903.091	19643
903.21	19601
903.328	19552
903.446	19529
903.565	19480
903.683	19449
903.801	19377
903.919	19343
904.038	19377
904.156	19171
904.274	19225
904.392	19179
904.51	19053
904.627	19232
904.745	19202
904.863	19194
904.981	19057
905.098	18825
905.216	18764
905.334	18894
905.451	18856
905.569	18757
905.686	18890
905.803	18791
905.921	18597
906.038	18783
906.155	18589
906.272	18570
906.389	18456
906.506	18327
906.623	18327
906.74	18304
906.857	18247
906.974	18281
907.091	18338
907.208	18486
907.324	18365
907.441	18315
907.557	18114
907.674	18057
907.79	17977
907.907	17977
908.023	18079
908.139	18034
908.256	17935
908.372	17977
908.488	17840
908.604	17794
908.72	17680
908.836	17638
908.952	17687
909.068	17840
909.184	17741
909.3	17608
909.415	17775
909.531	17608
909.647	17452
909.762	17463
909.878	17387
909.993	17398
910.108	17368
910.224	17258
910.339	17410
910.454	17223
910.57	17239
910.685	17124
910.8	17402
910.915	17421
911.03	17212
911.145	16919
911.259	16915
911.374	16911
911.489	16919
911.604	16854
911.718	16755
911.833	16797
911.947	16694
912.062	16626
912.176	16744
912.291	16694
912.405	16694
912.519	16877
912.633	16927
912.748	16599
912.862	16634
912.976	16466
913.09	16382
913.204	16436
913.318	16542
913.431	16653
913.545	16561
913.659	16592
913.772	16504
913.886	16318
914	16284
914.113	16360
914.226	16386
914.34	16428
914.453	16173
914.566	16246
914.68	16226
914.793	16135
914.906	16029
915.019	15960
915.132	15789
915.245	15850
915.358	15907
915.47	15911
915.583	15838
915.696	15876
915.809	15945
915.921	16029
916.034	15797
916.146	15766
916.259	15770
916.371	15850
916.483	15804
916.595	15743
916.708	15774
916.82	15739
916.932	15603
917.044	15610
917.156	15534
917.268	15542
917.38	15538
917.491	15523
917.603	15530
917.715	15701
917.826	15538
917.938	15424
918.049	15329
918.161	15447
918.272	15553
918.384	15553
918.495	15424
918.606	15336
918.717	15157
918.828	15317
918.939	15241
919.05	15165
919.161	15188
919.272	15062
919.383	15077
919.494	15298
919.604	15462
919.715	15237
919.826	15176
919.936	15176
920.047	15233
920.157	15142
920.267	15382
920.378	15203
920.488	15150
920.598	15348
920.708	15488
920.818	15268
920.928	15317
921.038	15515
921.148	15344
921.258	15077
921.368	14956
921.477	14895
921.587	14895
921.697	14815
921.806	14937
921.916	14648
922.025	14469
922.134	14556
922.244	14492
922.353	14602
922.462	14351
922.571	14328
922.68	14210
922.789	14138
922.898	14176
923.007	14100
923.116	14035
923.224	14180
923.333	13982
923.442	14039
923.55	13997
923.659	14005
923.767	14024
923.876	13917
923.984	13989
924.092	13852
924.201	13860
924.309	13833
924.417	13811
924.525	13780
924.633	13826
924.741	14568
924.849	13552
924.956	13704
925.064	13533
925.172	13544
925.279	13624
925.387	13499
925.494	13464
925.602	13639
925.709	13567
925.816	13460
925.924	13571
926.031	13445
926.138	13480
926.245	13548
926.352	13388
926.459	13480
926.566	13567
926.673	13407
926.779	13316
926.886	13160
926.993	13168
927.099	13076
927.206	13000
927.312	12939
927.419	13080
927.525	13084
927.631	13012
927.737	12924
927.843	12863
927.95	12871
928.056	12905
928.162	12951
928.267	12928
928.373	13540
928.479	12920
928.585	12684
928.69	12806
928.796	12825
928.901	12646
929.007	12608
929.112	12738
929.218	12593
929.323	12597
929.428	12604
929.533	12726
929.638	12441
929.743	12456
929.848	12566
929.953	12540
930.058	12327
930.163	12194
930.267	12197
930.372	12334
930.477	12186
930.581	12464
930.685	12346
930.79	12136
930.894	12102
930.998	12121
931.103	12300
931.207	11813
931.311	11752
931.415	11661
931.519	11452
931.623	11459
