Data from test_V78500241_2801.txt Node
Date: Fri Mar 25 16:01:12 CST 2022
User: usil
Spectrometer: V785-0024
Trigger mode: 0
Integration Time (sec): 4.000000E-1
Scans to average: 1
Nonlinearity correction enabled: false
Boxcar width: 0
Storing dark spectrum: false
XAxis mode: Wavelengths
Number of Pixels in Spectrum: 1024
>>>>>Begin Spectral Data<<<<<
801.071	29018
801.214	28976
801.356	28691
801.499	28645
801.641	28660
801.783	28561
801.926	28687
802.068	28694
802.211	28485
802.353	28451
802.496	28493
802.638	28287
802.78	28333
802.923	28230
803.065	28257
803.208	28116
803.35	28314
803.492	28485
803.635	28519
803.777	28352
803.919	28516
804.061	28904
804.204	28599
804.346	28516
804.488	28504
804.63	28554
804.773	28440
804.915	28584
805.057	28675
805.199	28580
805.341	28683
805.483	28679
805.626	28774
805.768	28470
805.91	28653
806.052	28683
806.194	28531
806.336	28904
806.478	28752
806.62	28801
806.762	28778
806.904	29033
807.046	29151
807.188	29166
807.33	29231
807.472	29124
807.614	29197
807.756	29098
807.898	29075
808.04	29060
808.182	29083
808.324	28957
808.465	29109
808.607	29159
808.749	29528
808.891	29539
809.033	29646
809.174	29490
809.316	29429
809.458	29478
809.6	29372
809.741	29395
809.883	29570
810.025	29642
810.166	29665
810.308	29752
810.45	29608
810.591	29611
810.733	29368
810.875	29402
811.016	29208
811.158	29303
811.299	29608
811.441	29551
811.582	29562
811.724	29467
811.865	29387
812.007	29486
812.148	29421
812.29	29482
812.431	29783
812.573	29840
812.714	29946
812.855	30015
812.997	29828
813.138	30045
813.279	30190
813.421	29980
813.562	29927
813.703	29779
813.845	29627
813.986	29520
814.127	29250
814.268	29185
814.41	29349
814.551	29094
814.692	29193
814.833	29174
814.974	29014
815.115	29071
815.256	28999
815.397	28980
815.539	29246
815.68	28934
815.821	28782
815.962	28999
816.103	28987
816.244	28778
816.385	28771
816.526	28820
816.666	28569
816.807	28371
816.948	28523
817.089	28535
817.23	28626
817.371	28447
817.512	28481
817.653	28481
817.793	28333
817.934	28634
818.075	28386
818.216	28367
818.356	28462
818.497	28424
818.638	28105
818.778	28219
818.919	28363
819.06	28367
819.2	28436
819.341	28489
819.481	28546
819.622	28653
819.762	28805
819.903	28660
820.043	28717
820.184	28577
820.324	28683
820.465	28641
820.605	28694
820.746	28508
820.886	28318
821.026	28706
821.167	28512
821.307	28519
821.447	28440
821.588	28405
821.728	28280
821.868	28116
822.008	27964
822.149	27956
822.289	27941
822.429	27747
822.569	27504
822.709	27694
822.849	27416
822.99	27416
823.13	27424
823.27	27427
823.41	27291
823.55	27184
823.69	27279
823.83	27370
823.97	27317
824.11	27222
824.25	26944
824.389	27077
824.529	27165
824.669	27135
824.809	27302
824.949	27188
825.089	27123
825.228	27218
825.368	26967
825.508	26979
825.648	27157
825.787	26982
825.927	27032
826.067	26963
826.206	27089
826.346	27123
826.485	27096
826.625	26979
826.765	27135
826.904	27150
827.044	26727
827.183	26804
827.323	26781
827.462	26693
827.601	26712
827.741	26724
827.88	26819
828.02	26781
828.159	26781
828.298	26773
828.437	26853
828.577	26541
828.716	26864
828.855	26518
828.994	26389
829.134	26377
829.273	26514
829.412	26377
829.551	26332
829.69	26461
829.829	26423
829.968	26541
830.107	26450
830.246	26298
830.385	26488
830.524	26149
830.663	26298
830.802	26142
830.941	26149
831.08	25982
831.219	26092
831.357	26145
831.496	26282
831.635	26016
831.774	25974
831.913	25845
832.051	25925
832.19	25921
832.329	25868
832.467	25750
832.606	25613
832.744	25700
832.883	25677
833.022	25696
833.16	25605
833.299	25704
833.437	25681
833.576	25784
833.714	25731
833.852	25746
833.991	25788
834.129	25993
834.267	25887
834.406	25769
834.544	25769
834.682	25731
834.821	25746
834.959	25890
835.097	25632
835.235	25822
835.373	25738
835.511	25658
835.65	25544
835.788	25578
835.926	25434
836.064	25324
836.202	25377
836.34	25537
836.478	25765
836.615	25594
836.753	25635
836.891	25575
837.029	25643
837.167	25415
837.305	25521
837.443	25422
837.58	25495
837.718	25381
837.856	25434
837.993	25293
838.131	25453
838.269	25190
838.406	25255
838.544	25145
838.681	25107
838.819	24977
838.956	24878
839.094	24837
839.231	24882
839.369	25012
839.506	25190
839.643	25095
839.781	24886
839.918	24684
840.055	24707
840.193	24810
840.33	24661
840.467	24802
840.604	24829
840.742	25012
840.879	24738
841.016	24730
841.153	24528
841.29	24802
841.427	24829
841.564	24844
841.701	24753
841.838	24787
841.975	24711
842.112	24719
842.249	24555
842.385	24502
842.522	24738
842.659	24479
842.796	24456
842.933	24479
843.069	24342
843.206	24540
843.343	24601
843.479	24525
843.616	24498
843.752	24323
843.889	24323
844.025	24372
844.162	24243
844.298	24395
844.435	24251
844.571	24213
844.708	24273
844.844	24445
844.98	24418
845.117	24441
845.253	24247
845.389	24235
845.525	24106
845.661	24102
845.798	24057
845.934	24117
846.07	24038
846.206	23897
846.342	24110
846.478	24057
846.614	23657
846.75	23661
846.886	23661
847.022	23916
847.158	23794
847.294	23509
847.429	23901
847.565	23558
847.701	23904
847.837	23490
847.972	23512
848.108	23634
848.244	23570
848.379	23474
848.515	23284
848.65	23132
848.786	23387
848.921	23379
849.057	23478
849.192	23353
849.328	23497
849.463	23318
849.598	23414
849.734	23265
849.869	23140
850.004	23056
850.14	23132
850.275	23090
850.41	23033
850.545	23121
850.68	22949
850.815	23151
850.95	23086
851.085	23254
851.22	23162
851.355	23178
851.49	23033
851.625	23159
851.76	22991
851.895	23079
852.03	23044
852.165	23094
852.299	23181
852.434	23254
852.569	23048
852.703	23067
852.838	23143
852.973	23193
853.107	23197
853.242	23044
853.376	22972
853.511	22706
853.645	22831
853.78	23006
853.914	22885
854.048	22961
854.183	22873
854.317	22938
854.451	23178
854.585	23022
854.72	22828
854.854	22953
854.988	22831
855.122	22866
855.256	22675
855.39	22873
855.524	22946
855.658	22987
855.792	22862
855.926	22908
856.06	22748
856.194	22881
856.327	22835
856.461	22919
856.595	22892
856.729	22828
856.862	22972
856.996	22953
857.13	22934
857.263	22930
857.397	22953
857.53	22877
857.664	22889
857.797	22961
857.931	22968
858.064	22961
858.197	23022
858.331	22915
858.464	22797
858.597	22763
858.731	22828
858.864	22805
858.997	22900
859.13	22866
859.263	22942
859.396	23033
859.529	22812
859.662	22755
859.795	22717
859.928	22976
860.061	23056
860.194	23143
860.327	22949
860.46	22824
860.592	23056
860.725	22934
860.858	22957
860.99	22927
861.123	22805
861.256	22873
861.388	22923
861.521	23630
861.653	22774
861.786	22611
861.918	22733
862.05	22805
862.183	22759
862.315	22771
862.447	22946
862.58	22847
862.712	22752
862.844	22691
862.976	22637
863.108	22759
863.24	22968
863.372	22584
863.504	22618
863.636	22618
863.768	22554
863.9	22451
864.032	22531
864.164	22565
864.296	22611
864.428	22702
864.559	22569
864.691	22668
864.823	22546
864.954	22531
865.086	22637
865.217	22660
865.349	22417
865.48	22478
865.612	22466
865.743	22459
865.875	22535
866.006	22375
866.137	22405
866.269	22580
866.4	22462
866.531	22481
866.662	22394
866.793	22333
866.924	22363
867.055	22459
867.186	22341
867.317	22554
867.448	22367
867.579	22402
867.71	22352
867.841	22352
867.972	22424
868.103	22402
868.233	22379
868.364	22390
868.495	22504
868.625	22535
868.756	22626
868.886	22493
869.017	22531
869.147	22828
869.278	22687
869.408	22763
869.539	22744
869.669	22596
869.799	22752
869.929	22793
870.06	22717
870.19	22946
870.32	22896
870.45	22900
870.58	22980
870.71	23109
870.84	23109
870.97	23048
871.1	23094
871.23	23200
871.36	23159
871.489	23018
871.619	23162
871.749	23162
871.879	23239
872.008	23353
872.138	23128
872.267	23277
872.397	23090
872.526	23140
872.656	23041
872.785	23052
872.915	23277
873.044	23246
873.173	23311
873.303	23318
873.432	23261
873.561	23452
873.69	23311
873.819	23330
873.948	23452
874.077	23307
874.206	23231
874.335	23356
874.464	23539
874.593	23474
874.722	23459
874.851	23547
874.979	23398
875.108	23421
875.237	23528
875.365	23509
875.494	23414
875.623	23459
875.751	23444
875.88	23334
876.008	23493
876.136	23767
876.265	23794
876.393	24057
876.521	23950
876.65	24007
876.778	23764
876.906	23665
877.034	23855
877.162	23843
877.29	23832
877.418	23779
877.546	23832
877.674	23676
877.802	23745
877.93	23783
878.058	23722
878.185	23680
878.313	23733
878.441	23726
878.568	23680
878.696	23767
878.824	23824
878.951	23988
879.079	23939
879.206	24152
879.333	23931
879.461	23767
879.588	23950
879.715	23961
879.842	24026
879.97	23771
880.097	23589
880.224	23604
880.351	23634
880.478	23687
880.605	23680
880.732	23596
880.859	23843
880.986	23665
881.112	23608
881.239	23543
881.366	23356
881.493	23265
881.619	23159
881.746	23269
881.872	23166
881.999	23094
882.125	23151
882.252	23197
882.378	23159
882.505	23166
882.631	23067
882.757	22930
882.883	23056
883.01	22949
883.136	22744
883.262	22637
883.388	22710
883.514	22759
883.64	22721
883.766	22801
883.892	22622
884.018	22542
884.143	22854
884.269	22900
884.395	22557
884.52	22504
884.646	22504
884.772	22382
884.897	22344
885.023	22481
885.148	22653
885.274	22592
885.399	22531
885.524	22462
885.65	22603
885.775	22398
885.9	22481
886.025	22466
886.15	22523
886.275	22379
886.4	22455
886.525	22459
886.65	22417
886.775	22413
886.9	22561
887.025	22622
887.149	22348
887.274	22265
887.399	22219
887.523	22192
887.648	22268
887.773	22128
887.897	22306
888.021	22158
888.146	22204
888.27	22211
888.395	22306
888.519	22249
888.643	22284
888.767	22196
888.891	22124
889.015	22135
889.139	22093
889.263	21956
889.387	22196
889.511	22158
889.635	22154
889.759	22063
889.883	22013
890.006	21964
890.13	22109
890.254	21934
890.377	21926
890.501	21663
890.624	21850
890.748	21759
890.871	21610
890.995	21595
891.118	21545
891.241	21545
891.364	21648
891.488	21595
891.611	21652
891.734	21580
891.857	21663
891.98	21526
892.103	21682
892.226	21553
892.349	21420
892.471	21412
892.594	21431
892.717	21534
892.839	21397
892.962	21428
893.085	21515
893.207	21458
893.33	21207
893.452	21397
893.575	21496
893.697	21382
893.819	21515
893.941	21591
894.064	21481
894.186	21492
894.308	21405
894.43	21557
894.552	21564
894.674	21599
894.796	21363
894.918	21466
895.04	21447
895.161	21492
895.283	21424
895.405	21412
895.526	21519
895.648	21214
895.769	21370
895.891	21530
896.012	21530
896.134	21488
896.255	21382
896.376	21397
896.498	21447
896.619	21450
896.74	21329
896.861	21462
896.982	21789
897.103	21816
897.224	21686
897.345	21530
897.466	21523
897.587	21637
897.708	21595
897.828	21614
897.949	21568
898.07	21447
898.19	21481
898.311	21599
898.431	21568
898.552	21660
898.672	21751
898.792	21572
898.913	21568
899.033	21382
899.153	21443
899.273	21279
899.393	21382
899.513	21363
899.633	21359
899.753	21291
899.873	21237
899.993	21317
900.113	21306
900.232	21241
900.352	21214
900.472	21195
900.591	21169
900.711	21089
900.83	21066
900.95	21184
901.069	21146
901.189	21081
901.308	20701
901.427	20743
901.546	20720
901.665	20644
901.784	20640
901.904	20522
902.023	20526
902.141	20332
902.26	20062
902.379	20263
902.498	20149
902.617	20058
902.735	20282
902.854	20183
902.973	20092
903.091	19830
903.21	19845
903.328	19807
903.446	19814
903.565	19567
903.683	19594
903.801	19559
903.919	19597
904.038	19514
904.156	19373
904.274	19419
904.392	19365
904.51	19293
904.627	19293
904.745	19297
904.863	19453
904.981	19278
905.098	19228
905.216	19053
905.334	19091
905.451	19065
905.569	19027
905.686	19091
905.803	19133
905.921	18787
906.038	18920
906.155	18795
906.272	18833
906.389	18715
906.506	18509
906.623	18517
906.74	18551
906.857	18540
906.974	18350
907.091	18650
907.208	18700
907.324	18544
907.441	18460
907.557	18239
907.674	18311
907.79	18201
907.907	18209
908.023	18239
908.139	18304
908.256	18209
908.372	18159
908.488	18197
908.604	17992
908.72	17973
908.836	18041
908.952	18022
909.068	18030
909.184	18133
909.3	17977
909.415	17969
909.531	18034
909.647	17840
909.762	17699
909.878	17623
909.993	17554
910.108	17623
910.224	17623
910.339	17615
910.454	17570
910.57	17387
910.685	17417
910.8	17653
910.915	17596
911.03	17478
911.145	17368
911.259	17220
911.374	17280
911.489	17185
911.604	16995
911.718	16900
911.833	16987
911.947	16949
912.062	16866
912.176	16991
912.291	16984
912.405	16980
912.519	17143
912.633	17151
912.748	16927
912.862	16881
912.976	16869
913.09	16713
913.204	16744
913.318	16839
913.431	16923
913.545	16831
913.659	16923
913.772	16653
913.886	16641
914	16527
914.113	16542
914.226	16805
914.34	16649
914.453	16428
914.566	16561
914.68	16478
914.793	16432
914.906	16166
915.019	16143
915.132	16093
915.245	16135
915.358	16169
915.47	16048
915.583	16124
915.696	16318
915.809	16135
915.921	16192
916.034	16063
916.146	16055
916.259	16044
916.371	16055
916.483	15983
916.595	15922
916.708	15865
916.82	15949
916.932	15922
917.044	15911
917.156	15831
917.268	15720
917.38	15880
917.491	15751
917.603	15850
917.715	15823
917.826	15907
917.938	15770
918.049	15633
918.161	15747
918.272	15759
918.384	15842
918.495	15732
918.606	15462
918.717	15500
918.828	15515
918.939	15580
919.05	15382
919.161	15367
919.272	15294
919.383	15275
919.494	15648
919.604	15625
919.715	15393
919.826	15329
919.936	15348
920.047	15473
920.157	15481
920.267	15500
920.378	15443
920.488	15298
920.598	15618
920.708	15728
920.818	15500
920.928	15580
921.038	15675
921.148	15713
921.258	15359
921.368	15363
921.477	15192
921.587	15157
921.697	14963
921.806	15123
921.916	15047
922.025	14769
922.134	14842
922.244	14701
922.353	14902
922.462	14594
922.571	14613
922.68	14473
922.789	14404
922.898	14484
923.007	14362
923.116	14374
923.224	14389
923.333	14366
923.442	14240
923.55	14259
923.659	14233
923.767	14229
923.876	14221
923.984	14278
924.092	14111
924.201	14176
924.309	14130
924.417	14149
924.525	14119
924.633	14073
924.741	14994
924.849	13811
924.956	13955
925.064	13780
925.172	13807
925.279	13742
925.387	13772
925.494	13780
925.602	13890
925.709	13784
925.816	13662
925.924	13620
926.031	13799
926.138	13746
926.245	13849
926.352	13704
926.459	13727
926.566	13689
926.673	13601
926.779	13441
926.886	13544
926.993	13373
927.099	13441
927.206	13339
927.312	13240
927.419	13282
927.525	13282
927.631	13388
927.737	13168
927.843	13110
927.95	12973
928.056	13133
928.162	13179
928.267	13141
928.373	13696
928.479	13114
928.585	13019
928.69	13012
928.796	13038
928.901	12989
929.007	12897
929.112	12932
929.218	12993
929.323	12810
929.428	12825
929.533	12966
929.638	12726
929.743	12757
929.848	12821
929.953	12783
930.058	12681
930.163	12536
930.267	12593
930.372	12601
930.477	12414
930.581	12597
930.685	12563
930.79	12448
930.894	12418
930.998	12281
931.103	12448
931.207	12034
931.311	12003
931.415	12007
931.519	11710
931.623	11695
