Data from test_V78500241_2126.txt Node
Date: Fri Mar 25 15:56:31 CST 2022
User: usil
Spectrometer: V785-0024
Trigger mode: 0
Integration Time (sec): 4.000000E-1
Scans to average: 1
Nonlinearity correction enabled: false
Boxcar width: 0
Storing dark spectrum: false
XAxis mode: Wavelengths
Number of Pixels in Spectrum: 1024
>>>>>Begin Spectral Data<<<<<
801.071	29071
801.214	29006
801.356	28607
801.499	28588
801.641	28599
801.783	28443
801.926	28641
802.068	28459
802.211	28577
802.353	28455
802.496	28230
802.638	28299
802.78	28162
802.923	28181
803.065	28074
803.208	28249
803.35	28219
803.492	28333
803.635	28459
803.777	28360
803.919	28432
804.061	28847
804.204	28421
804.346	28436
804.488	28428
804.63	28611
804.773	28580
804.915	28497
805.057	28656
805.199	28432
805.341	28721
805.483	28653
805.626	28546
805.768	28447
805.91	28736
806.052	28713
806.194	28607
806.336	28672
806.478	28561
806.62	28774
806.762	28626
806.904	29014
807.046	29147
807.188	29022
807.33	29113
807.472	29041
807.614	29189
807.756	29071
807.898	28991
808.04	28923
808.182	28873
808.324	29037
808.465	29056
808.607	29220
808.749	29299
808.891	29398
809.033	29463
809.174	29292
809.316	29379
809.458	29398
809.6	29349
809.741	29417
809.883	29440
810.025	29531
810.166	29718
810.308	29665
810.45	29570
810.591	29452
810.733	29486
810.875	29204
811.016	29151
811.158	29159
811.299	29497
811.441	29531
811.582	29551
811.724	29490
811.865	29330
812.007	29440
812.148	29356
812.29	29402
812.431	29531
812.573	29463
812.714	29771
812.855	29703
812.997	29904
813.138	30041
813.279	29973
813.421	29977
813.562	29882
813.703	29775
813.845	29471
813.986	29334
814.127	29143
814.268	29083
814.41	29018
814.551	29052
814.692	29132
814.833	28991
814.974	29048
815.115	29006
815.256	28885
815.397	28968
815.539	29010
815.68	28843
815.821	28908
815.962	28843
816.103	28892
816.244	28805
816.385	28740
816.526	28630
816.666	28565
816.807	28341
816.948	28428
817.089	28580
817.23	28432
817.371	28401
817.512	28436
817.653	28348
817.793	28284
817.934	28299
818.075	28219
818.216	28390
818.356	28249
818.497	28242
818.638	28078
818.778	28078
818.919	28055
819.06	28238
819.2	28280
819.341	28360
819.481	28459
819.622	28508
819.762	28797
819.903	28687
820.043	28664
820.184	28424
820.324	28592
820.465	28519
820.605	28527
820.746	28459
820.886	28512
821.026	28481
821.167	28504
821.307	28664
821.447	28489
821.588	28284
821.728	28120
821.868	28093
822.008	27956
822.149	27876
822.289	27762
822.429	27663
822.569	27641
822.709	27523
822.849	27477
822.99	27378
823.13	27256
823.27	27412
823.41	27214
823.55	27150
823.69	27203
823.83	27180
823.97	27142
824.11	26956
824.25	27055
824.389	27062
824.529	27135
824.669	26982
824.809	27306
824.949	27214
825.089	27150
825.228	27058
825.368	26792
825.508	26899
825.648	26986
825.787	27039
825.927	27024
826.067	26906
826.206	27017
826.346	26853
826.485	26960
826.625	26872
826.765	27058
826.904	27074
827.044	26613
827.183	26579
827.323	26598
827.462	26693
827.601	26602
827.741	26625
827.88	26594
828.02	26621
828.159	26507
828.298	26826
828.437	26746
828.577	26568
828.716	26670
828.855	26484
828.994	26385
829.134	26400
829.273	26362
829.412	26358
829.551	26343
829.69	26271
829.829	26389
829.968	26320
830.107	26396
830.246	26461
830.385	26301
830.524	26191
830.663	26100
830.802	26081
830.941	25959
831.08	25769
831.219	26115
831.357	26062
831.496	26130
831.635	25925
831.774	25807
831.913	25887
832.051	25696
832.19	25742
832.329	25822
832.467	25658
832.606	25529
832.744	25635
832.883	25537
833.022	25582
833.16	25655
833.299	25685
833.437	25746
833.576	25704
833.714	25643
833.852	25761
833.991	25723
834.129	25719
834.267	25727
834.406	25681
834.544	25639
834.682	25681
834.821	25586
834.959	25894
835.097	25514
835.235	25620
835.373	25616
835.511	25715
835.65	25426
835.788	25575
835.926	25373
836.064	25430
836.202	25343
836.34	25472
836.478	25597
836.615	25396
836.753	25457
836.891	25521
837.029	25449
837.167	25354
837.305	25381
837.443	25187
837.58	25263
837.718	25438
837.856	25362
837.993	25282
838.131	25259
838.269	25164
838.406	25179
838.544	25004
838.681	25042
838.819	24954
838.956	24810
839.094	24825
839.231	24764
839.369	24928
839.506	25050
839.643	25069
839.781	24722
839.918	24757
840.055	24730
840.193	24661
840.33	24703
840.467	24738
840.604	24810
840.742	24947
840.879	24426
841.016	24517
841.153	24502
841.29	24867
841.427	24639
841.564	24589
841.701	24574
841.838	24692
841.975	24563
842.112	24479
842.249	24445
842.385	24502
842.522	24620
842.659	24452
842.796	24460
842.933	24357
843.069	24323
843.206	24357
843.343	24433
843.479	24304
843.616	24464
843.752	24346
843.889	24273
844.025	24327
844.162	24129
844.298	24357
844.435	24117
844.571	24235
844.708	24197
844.844	24437
844.98	24334
845.117	24292
845.253	24133
845.389	24007
845.525	24140
845.661	24026
845.798	23946
845.934	23908
846.07	23969
846.206	23916
846.342	24053
846.478	23912
846.614	23775
846.75	23604
846.886	23642
847.022	23691
847.158	23668
847.294	23630
847.429	23703
847.565	23566
847.701	23863
847.837	23273
847.972	23471
848.108	23265
848.244	23562
848.379	23048
848.515	23189
848.65	23231
848.786	23178
848.921	23349
849.057	23349
849.192	23360
849.328	23296
849.463	23113
849.598	23181
849.734	23041
849.869	23151
850.004	22991
850.14	23010
850.275	22999
850.41	23022
850.545	22938
850.68	22991
850.815	23060
850.95	22908
851.085	23193
851.22	23044
851.355	22999
851.49	23083
851.625	23067
851.76	22938
851.895	22881
852.03	22809
852.165	22949
852.299	23166
852.434	23109
852.569	22961
852.703	23006
852.838	23014
852.973	23136
853.107	23098
853.242	22927
853.376	22847
853.511	22656
853.645	22656
853.78	22949
853.914	22885
854.048	22771
854.183	22774
854.317	22911
854.451	23113
854.585	22801
854.72	22801
854.854	22911
854.988	22759
855.122	22866
855.256	22649
855.39	22725
855.524	22843
855.658	22869
855.792	22828
855.926	22839
856.06	22816
856.194	22809
856.327	22786
856.461	22729
856.595	22698
856.729	22786
856.862	22892
856.996	22767
857.13	22843
857.263	22900
857.397	22934
857.53	22641
857.664	22702
857.797	22949
857.931	22869
858.064	22904
858.197	22744
858.331	22858
858.464	22683
858.597	22656
858.731	22675
858.864	22618
858.997	22767
859.13	22801
859.263	22790
859.396	22858
859.529	22930
859.662	22752
859.795	22885
859.928	22717
860.061	22984
860.194	23029
860.327	22889
860.46	22873
860.592	22847
860.725	22885
860.858	22828
860.99	22782
861.123	22736
861.256	22782
861.388	22721
861.521	23448
861.653	22516
861.786	22637
861.918	22580
862.05	22637
862.183	22782
862.315	22744
862.447	22721
862.58	22622
862.712	22569
862.844	22531
862.976	22603
863.108	22569
863.24	22904
863.372	22405
863.504	22413
863.636	22577
863.768	22554
863.9	22432
864.032	22455
864.164	22375
864.296	22516
864.428	22584
864.559	22531
864.691	22527
864.823	22455
864.954	22436
865.086	22550
865.217	22436
865.349	22348
865.48	22310
865.612	22367
865.743	22497
865.875	22440
866.006	22303
866.137	22424
866.269	22402
866.4	22360
866.531	22436
866.662	22325
866.793	22219
866.924	22287
867.055	22382
867.186	22280
867.317	22253
867.448	22318
867.579	22173
867.71	22097
867.841	22226
867.972	22318
868.103	22246
868.233	22249
868.364	22200
868.495	22405
868.625	22577
868.756	22592
868.886	22538
869.017	22504
869.147	22584
869.278	22664
869.408	22573
869.539	22535
869.669	22592
869.799	22637
869.929	22660
870.06	22725
870.19	22908
870.32	22904
870.45	22835
870.58	22927
870.71	23041
870.84	22984
870.97	22858
871.1	22923
871.23	23022
871.36	23022
871.489	22991
871.619	23174
871.749	23014
871.879	23151
872.008	23162
872.138	23113
872.267	23143
872.397	22991
872.526	22923
872.656	22908
872.785	22866
872.915	23140
873.044	23239
873.173	22946
873.303	23132
873.432	23181
873.561	23212
873.69	23143
873.819	23086
873.948	23231
874.077	23227
874.206	23231
874.335	23246
874.464	23364
874.593	23395
874.722	23307
874.851	23398
874.979	23315
875.108	23497
875.237	23334
875.365	23246
875.494	23337
875.623	23395
875.751	23227
875.88	23387
876.008	23528
876.136	23455
876.265	23668
876.393	23897
876.521	23790
876.65	23824
876.778	23927
876.906	23703
877.034	23741
877.162	23718
877.29	23668
877.418	23680
877.546	23760
877.674	23657
877.802	23809
877.93	23657
878.058	23714
878.185	23535
878.313	23566
878.441	23653
878.568	23630
878.696	23714
878.824	23809
878.951	23707
879.079	23828
879.206	24045
879.333	23904
879.461	23764
879.588	23794
879.715	23847
879.842	23916
879.97	23718
880.097	23471
880.224	23623
880.351	23531
880.478	23490
880.605	23547
880.732	23608
880.859	23783
880.986	23520
881.112	23463
881.239	23292
881.366	23178
881.493	23200
881.619	23189
881.746	23136
881.872	23086
881.999	23010
882.125	22976
882.252	23109
882.378	23098
882.505	23212
882.631	22930
882.757	22771
882.883	22748
883.01	22759
883.136	22771
883.262	22706
883.388	22603
883.514	22778
883.64	22748
883.766	22641
883.892	22356
884.018	22470
884.143	22679
884.269	22847
884.395	22455
884.52	22417
884.646	22360
884.772	22348
884.897	22200
885.023	22481
885.148	22557
885.274	22538
885.399	22432
885.524	22409
885.65	22367
885.775	22325
885.9	22325
886.025	22584
886.15	22462
886.275	22360
886.4	22284
886.525	22371
886.65	22375
886.775	22325
886.9	22519
887.025	22577
887.149	22424
887.274	22162
887.399	22048
887.523	22154
887.648	22112
887.773	21926
887.897	22086
888.021	22158
888.146	21972
888.27	22219
888.395	22200
888.519	22226
888.643	22253
888.767	22101
888.891	21991
889.015	21918
889.139	22006
889.263	21972
889.387	22051
889.511	22188
889.635	22063
889.759	21945
889.883	21987
890.006	21968
890.13	22055
890.254	21865
890.377	21915
890.501	21717
890.624	21583
890.748	21686
890.871	21599
890.995	21458
891.118	21458
891.241	21359
891.364	21462
891.488	21675
891.611	21378
891.734	21561
891.857	21610
891.98	21526
892.103	21439
892.226	21481
892.349	21408
892.471	21233
892.594	21310
892.717	21332
892.839	21317
892.962	21447
893.085	21447
893.207	21317
893.33	21058
893.452	21287
893.575	21420
893.697	21363
893.819	21618
893.941	21523
894.064	21462
894.186	21332
894.308	21249
894.43	21389
894.552	21534
894.674	21386
894.796	21203
894.918	21291
895.04	21374
895.161	21313
895.283	21488
895.405	21336
895.526	21382
895.648	21317
895.769	21336
895.891	21359
896.012	21382
896.134	21458
896.255	21306
896.376	21260
896.498	21321
896.619	21268
896.74	21340
896.861	21386
896.982	21587
897.103	22002
897.224	21542
897.345	21538
897.466	21310
897.587	21591
897.708	21606
897.828	21568
897.949	21382
898.07	21272
898.19	21469
898.311	21523
898.431	21523
898.552	21526
898.672	21504
898.792	21458
898.913	21618
899.033	21355
899.153	21397
899.273	21226
899.393	21211
899.513	21287
899.633	21211
899.753	21332
899.873	21165
899.993	21218
900.113	21138
900.232	21230
900.352	20990
900.472	20998
900.591	21074
900.711	20971
900.83	20933
900.95	21074
901.069	21055
901.189	20872
901.308	20609
901.427	20625
901.546	20575
901.665	20613
901.784	20575
901.904	20358
902.023	20347
902.141	20233
902.26	20126
902.379	20103
902.498	20058
902.617	20111
902.735	20119
902.854	20016
902.973	19963
903.091	19712
903.21	19719
903.328	19670
903.446	19601
903.565	19563
903.683	19518
903.801	19407
903.919	19518
904.038	19426
904.156	19179
904.274	19373
904.392	19270
904.51	19255
904.627	19251
904.745	19202
904.863	19335
904.981	19103
905.098	18882
905.216	19023
905.334	18947
905.451	18996
905.569	18905
905.686	18993
905.803	18878
905.921	18707
906.038	18856
906.155	18749
906.272	18593
906.389	18673
906.506	18414
906.623	18467
906.74	18525
906.857	18388
906.974	18350
907.091	18570
907.208	18540
907.324	18460
907.441	18365
907.557	18197
907.674	18327
907.79	18174
907.907	18201
908.023	18186
908.139	18194
908.256	18026
908.372	18072
908.488	18079
908.604	17946
908.72	17714
908.836	17950
908.952	17946
909.068	17942
909.184	17958
909.3	17798
909.415	17977
909.531	17840
909.647	17615
909.762	17600
909.878	17570
909.993	17627
910.108	17558
910.224	17577
910.339	17634
910.454	17452
910.57	17459
910.685	17299
910.8	17611
910.915	17433
911.03	17478
911.145	17113
911.259	17102
911.374	17132
911.489	17041
911.604	16987
911.718	16889
911.833	16923
911.947	16809
912.062	16763
912.176	16873
912.291	16835
912.405	16858
912.519	17128
912.633	17132
912.748	16957
912.862	16824
912.976	16782
913.09	16656
913.204	16694
913.318	16664
913.431	16740
913.545	16759
913.659	16877
913.772	16691
913.886	16535
914	16508
914.113	16554
914.226	16565
914.34	16565
914.453	16413
914.566	16550
914.68	16303
914.793	16310
914.906	16177
915.019	16044
915.132	16044
915.245	16078
915.358	16006
915.47	16112
915.583	16029
915.696	16048
915.809	16177
915.921	16139
916.034	16169
916.146	15892
916.259	15960
916.371	16017
916.483	16017
916.595	15930
916.708	15892
916.82	15797
916.932	15873
917.044	15816
917.156	15838
917.268	15736
917.38	15751
917.491	15690
917.603	15717
917.715	15762
917.826	15770
917.938	15705
918.049	15485
918.161	15660
918.272	15812
918.384	15724
918.495	15705
918.606	15549
918.717	15359
918.828	15458
918.939	15443
919.05	15298
919.161	15481
919.272	15161
919.383	15298
919.494	15397
919.604	15584
919.715	15564
919.826	15367
919.936	15393
920.047	15405
920.157	15386
920.267	15603
920.378	15382
920.488	15317
920.598	15462
920.708	15682
920.818	15545
920.928	15424
921.038	15739
921.148	15667
921.258	15351
921.368	15222
921.477	15214
921.587	15062
921.697	15058
921.806	15047
921.916	14899
922.025	14853
922.134	14830
922.244	14739
922.353	14720
922.462	14708
922.571	14613
922.68	14385
922.789	14377
922.898	14438
923.007	14400
923.116	14408
923.224	14400
923.333	14332
923.442	14286
923.55	14172
923.659	14290
923.767	14210
923.876	14138
923.984	14282
924.092	14054
924.201	14123
924.309	14256
924.417	14092
924.525	13974
924.633	13974
924.741	14838
924.849	13826
924.956	13951
925.064	13761
925.172	13795
925.279	13700
925.387	13738
925.494	13738
925.602	13837
925.709	13814
925.816	13639
925.924	13636
926.031	13841
926.138	13620
926.245	13795
926.352	13567
926.459	13723
926.566	13795
926.673	13624
926.779	13533
926.886	13453
926.993	13289
927.099	13324
927.206	13156
927.312	13331
927.419	13266
927.525	13278
927.631	13236
927.737	13145
927.843	13126
927.95	12951
928.056	13069
928.162	13156
928.267	13095
928.373	13727
928.479	13088
928.585	12882
928.69	13137
928.796	13080
928.901	12962
929.007	12791
929.112	12913
929.218	12848
929.323	12798
929.428	12821
929.533	12878
929.638	12772
929.743	12707
929.848	12726
929.953	12745
930.058	12570
930.163	12388
930.267	12513
930.372	12525
930.477	12380
930.581	12620
930.685	12483
930.79	12342
930.894	12418
930.998	12330
931.103	12410
931.207	12038
931.311	12053
931.415	11897
931.519	11748
931.623	11668
