Data from test_V78500241_345.txt Node
Date: Fri Mar 25 15:44:11 CST 2022
User: usil
Spectrometer: V785-0024
Trigger mode: 0
Integration Time (sec): 4.000000E-1
Scans to average: 1
Nonlinearity correction enabled: false
Boxcar width: 0
Storing dark spectrum: false
XAxis mode: Wavelengths
Number of Pixels in Spectrum: 1024
>>>>>Begin Spectral Data<<<<<
801.071	29737
801.214	29729
801.356	29547
801.499	29448
801.641	29474
801.783	29375
801.926	29398
802.068	29455
802.211	29242
802.353	29136
802.496	29223
802.638	29022
802.78	29075
802.923	28934
803.065	28915
803.208	29006
803.35	29204
803.492	29200
803.635	29258
803.777	29075
803.919	29235
804.061	29627
804.204	29220
804.346	29162
804.488	29296
804.63	29178
804.773	29083
804.915	29307
805.057	29231
805.199	29216
805.341	29303
805.483	29379
805.626	29292
805.768	29193
805.91	29455
806.052	29265
806.194	29341
806.336	29459
806.478	29288
806.62	29296
806.762	29444
806.904	29634
807.046	29901
807.188	29832
807.33	29786
807.472	29767
807.614	29790
807.756	29752
807.898	29543
808.04	29619
808.182	29592
808.324	29672
808.465	29547
808.607	29802
808.749	29958
808.891	30068
809.033	30216
809.174	30110
809.316	30174
809.458	29996
809.6	29923
809.741	30018
809.883	30213
810.025	30247
810.166	30292
810.308	30273
810.45	30167
810.591	30182
810.733	29912
810.875	29992
811.016	30018
811.158	29961
811.299	30205
811.441	30102
811.582	30304
811.724	30072
811.865	29977
812.007	29859
812.148	29920
812.29	29973
812.431	30129
812.573	30300
812.714	30460
812.855	30471
812.997	30658
813.138	30783
813.279	30547
813.421	30479
813.562	30418
813.703	30505
813.845	30209
813.986	29882
814.127	29710
814.268	29722
814.41	29767
814.551	29646
814.692	29802
814.833	29657
814.974	29672
815.115	29764
815.256	29577
815.397	29585
815.539	29653
815.68	29448
815.821	29356
815.962	29448
816.103	29490
816.244	29391
816.385	29109
816.526	29185
816.666	29006
816.807	28843
816.948	28957
817.089	28980
817.23	28850
817.371	29037
817.512	28965
817.653	28835
817.793	28824
817.934	29003
818.075	28767
818.216	28892
818.356	28892
818.497	28946
818.638	28679
818.778	28733
818.919	28710
819.06	28790
819.2	28729
819.341	28866
819.481	29029
819.622	28965
819.762	29174
819.903	29117
820.043	29083
820.184	29025
820.324	29044
820.465	28957
820.605	29136
820.746	29018
820.886	28847
821.026	29003
821.167	28946
821.307	29025
821.447	28942
821.588	28812
821.728	28774
821.868	28546
822.008	28367
822.149	28344
822.289	28265
822.429	27987
822.569	27911
822.709	27945
822.849	27892
822.99	27930
823.13	27778
823.27	27778
823.41	27595
823.55	27610
823.69	27580
823.83	27701
823.97	27675
824.11	27340
824.25	27443
824.389	27466
824.529	27450
824.669	27447
824.809	27469
824.949	27439
825.089	27618
825.228	27447
825.368	27214
825.508	27351
825.648	27291
825.787	27245
825.927	27302
826.067	27302
826.206	27283
826.346	27424
826.485	27378
826.625	27389
826.765	27298
826.904	27260
827.044	27005
827.183	27017
827.323	26975
827.462	26937
827.601	26940
827.741	27028
827.88	26921
828.02	26868
828.159	26868
828.298	26914
828.437	27043
828.577	26845
828.716	27009
828.855	26834
828.994	26625
829.134	26609
829.273	26602
829.412	26537
829.551	26663
829.69	26575
829.829	26705
829.968	26689
830.107	26579
830.246	26613
830.385	26541
830.524	26522
830.663	26461
830.802	26278
830.941	26199
831.08	26157
831.219	26305
831.357	26328
831.496	26370
831.635	26183
831.774	26046
831.913	25982
832.051	25955
832.19	25982
832.329	26012
832.467	26001
832.606	25784
832.744	25780
832.883	25841
833.022	25902
833.16	25784
833.299	25875
833.437	25909
833.576	25826
833.714	25837
833.852	26027
833.991	25925
834.129	25959
834.267	25997
834.406	25833
834.544	25833
834.682	25894
834.821	25799
834.959	26043
835.097	25734
835.235	25917
835.373	25837
835.511	25837
835.65	25639
835.788	25753
835.926	25525
836.064	25506
836.202	25468
836.34	25658
836.478	25765
836.615	25651
836.753	25624
836.891	25803
837.029	25708
837.167	25753
837.305	25540
837.443	25632
837.58	25594
837.718	25491
837.856	25464
837.993	25411
838.131	25529
838.269	25343
838.406	25324
838.544	25354
838.681	25129
838.819	25061
838.956	24924
839.094	24814
839.231	24909
839.369	25076
839.506	25365
839.643	25095
839.781	24992
839.918	24768
840.055	24913
840.193	25004
840.33	24734
840.467	24730
840.604	24821
840.742	25084
840.879	24730
841.016	24825
841.153	24654
841.29	24840
841.427	24753
841.564	24882
841.701	24779
841.838	24646
841.975	24688
842.112	24669
842.249	24601
842.385	24517
842.522	24764
842.659	24555
842.796	24525
842.933	24566
843.069	24452
843.206	24327
843.343	24650
843.479	24445
843.616	24475
843.752	24304
843.889	24342
844.025	24319
844.162	24190
844.298	24376
844.435	24365
844.571	24083
844.708	24426
844.844	24471
844.98	24502
845.117	24327
845.253	24098
845.389	24102
845.525	24220
845.661	24163
845.798	23988
845.934	24022
846.07	23920
846.206	24133
846.342	24079
846.478	23859
846.614	23722
846.75	23543
846.886	23665
847.022	23691
847.158	23684
847.294	23638
847.429	23729
847.565	23665
847.701	23840
847.837	23330
847.972	23330
848.108	23570
848.244	23425
848.379	23235
848.515	23197
848.65	23265
848.786	23261
848.921	23223
849.057	23292
849.192	23303
849.328	23341
849.463	23124
849.598	23261
849.734	23140
849.869	23174
850.004	22923
850.14	22995
850.275	22957
850.41	22877
850.545	22923
850.68	22805
850.815	23022
850.95	22995
851.085	23033
851.22	22972
851.355	23044
851.49	22896
851.625	22919
851.76	22968
851.895	22889
852.03	22942
852.165	22900
852.299	23044
852.434	23018
852.569	22904
852.703	22984
852.838	22965
852.973	23147
853.107	22938
853.242	22793
853.376	22801
853.511	22755
853.645	22656
853.78	22938
853.914	22752
854.048	22763
854.183	22797
854.317	22843
854.451	22976
854.585	22915
854.72	22828
854.854	22877
854.988	22611
855.122	22687
855.256	22618
855.39	22641
855.524	22793
855.658	22820
855.792	22759
855.926	22763
856.06	22831
856.194	22858
856.327	22706
856.461	22668
856.595	22626
856.729	22740
856.862	22729
856.996	22847
857.13	22782
857.263	22820
857.397	22797
857.53	22786
857.664	22694
857.797	22763
857.931	22812
858.064	22805
858.197	22892
858.331	22801
858.464	22706
858.597	22573
858.731	22748
858.864	22687
858.997	22577
859.13	22672
859.263	22717
859.396	22774
859.529	22702
859.662	22664
859.795	22577
859.928	22653
860.061	22919
860.194	22900
860.327	22774
860.46	22771
860.592	22866
860.725	22968
860.858	23041
860.99	22710
861.123	22641
861.256	22637
861.388	22557
861.521	23509
861.653	22622
861.786	22592
861.918	22565
862.05	22573
862.183	22649
862.315	22828
862.447	22740
862.58	22649
862.712	22523
862.844	22527
862.976	22474
863.108	22405
863.24	22831
863.372	22367
863.504	22386
863.636	22318
863.768	22398
863.9	22497
864.032	22344
864.164	22402
864.296	22470
864.428	22451
864.559	22478
864.691	22474
864.823	22489
864.954	22360
865.086	22291
865.217	22249
865.349	22181
865.48	22272
865.612	22249
865.743	22295
865.875	22299
866.006	22295
866.137	22234
866.269	22230
866.4	22268
866.531	22226
866.662	22082
866.793	22162
866.924	22147
867.055	22261
867.186	22280
867.317	22173
867.448	21964
867.579	22219
867.71	22139
867.841	22086
867.972	22154
868.103	22177
868.233	22070
868.364	22101
868.495	22333
868.625	22363
868.756	22504
868.886	22390
869.017	22462
869.147	22428
869.278	22512
869.408	22405
869.539	22314
869.669	22516
869.799	22447
869.929	22462
870.06	22497
870.19	22672
870.32	22713
870.45	22702
870.58	22889
870.71	22938
870.84	22866
870.97	22835
871.1	22858
871.23	22927
871.36	23060
871.489	22934
871.619	22923
871.749	23025
871.879	23003
872.008	23067
872.138	23010
872.267	23060
872.397	22866
872.526	22790
872.656	22778
872.785	22911
872.915	22949
873.044	23273
873.173	23037
873.303	23052
873.432	23098
873.561	23064
873.69	23128
873.819	23018
873.948	23174
874.077	22991
874.206	22987
874.335	22965
874.464	23109
874.593	23193
874.722	23227
874.851	23280
874.979	23113
875.108	23284
875.237	23193
875.365	23197
875.494	23170
875.623	23269
875.751	23143
875.88	23303
876.008	23387
876.136	23463
876.265	23653
876.393	23771
876.521	23741
876.65	23794
876.778	23611
876.906	23474
877.034	23535
877.162	23634
877.29	23570
877.418	23623
877.546	23486
877.674	23672
877.802	23638
877.93	23661
878.058	23463
878.185	23452
878.313	23551
878.441	23478
878.568	23398
878.696	23425
878.824	23649
878.951	23589
879.079	23703
879.206	23798
879.333	23707
879.461	23790
879.588	23695
879.715	23756
879.842	23904
879.97	23627
880.097	23402
880.224	23383
880.351	23395
880.478	23330
880.605	23303
880.732	23440
880.859	23657
880.986	23368
881.112	23296
881.239	23254
881.366	23029
881.493	23048
881.619	23010
881.746	23037
881.872	22987
881.999	22854
882.125	22911
882.252	22854
882.378	22885
882.505	23105
882.631	22763
882.757	22645
882.883	22938
883.01	22767
883.136	22641
883.262	22637
883.388	22405
883.514	22573
883.64	22618
883.766	22653
883.892	22348
884.018	22481
884.143	22512
884.269	22569
884.395	22360
884.52	22318
884.646	22265
884.772	22265
884.897	22192
885.023	22436
885.148	22352
885.274	22421
885.399	22348
885.524	22188
885.65	22226
885.775	22371
885.9	22215
886.025	22489
886.15	22257
886.275	22169
886.4	22128
886.525	22128
886.65	22124
886.775	22162
886.9	22295
887.025	22413
887.149	22234
887.274	22207
887.399	22051
887.523	21994
887.648	21968
887.773	22082
887.897	22029
888.021	22116
888.146	21972
888.27	22078
888.395	22120
888.519	22025
888.643	22124
888.767	22196
888.891	21926
889.015	21793
889.139	21713
889.263	21739
889.387	21953
889.511	21960
889.635	21907
889.759	21751
889.883	21819
890.006	21785
890.13	21816
890.254	21747
890.377	21599
890.501	21606
890.624	21458
890.748	21538
890.871	21389
890.995	21416
891.118	21146
891.241	21306
891.364	21431
891.488	21386
891.611	21340
891.734	21230
891.857	21466
891.98	21279
892.103	21275
892.226	21313
892.349	21310
892.471	21123
892.594	21252
892.717	21252
892.839	21268
892.962	21218
893.085	21466
893.207	21203
893.33	21127
893.452	21119
893.575	21268
893.697	21093
893.819	21355
893.941	21492
894.064	21351
894.186	21089
894.308	21146
894.43	21241
894.552	21294
894.674	21367
894.796	21020
894.918	21233
895.04	21207
895.161	21291
895.283	21218
895.405	21112
895.526	21249
895.648	21005
895.769	21275
895.891	21169
896.012	21252
896.134	21222
896.255	21222
896.376	21211
896.498	21249
896.619	21245
896.74	21283
896.861	21382
896.982	21572
897.103	21614
897.224	21462
897.345	21363
897.466	21401
897.587	21450
897.708	21523
897.828	21382
897.949	21439
898.07	21291
898.19	21386
898.311	21378
898.431	21313
898.552	21450
898.672	21412
898.792	21370
898.913	21416
899.033	21207
899.153	21260
899.273	21081
899.393	21131
899.513	21146
899.633	21222
899.753	21028
899.873	20994
899.993	21138
900.113	21093
900.232	20960
900.352	20998
900.472	20918
900.591	20804
900.711	20849
900.83	20864
900.95	20990
901.069	20990
901.189	20845
901.308	20609
901.427	20381
901.546	20438
901.665	20476
901.784	20431
901.904	20412
902.023	20153
902.141	20016
902.26	19955
902.379	20020
902.498	20031
902.617	19947
902.735	19993
902.854	19951
902.973	19769
903.091	19723
903.21	19590
903.328	19575
903.446	19502
903.565	19335
903.683	19312
903.801	19160
903.919	19282
904.038	19308
904.156	19152
904.274	19152
904.392	19027
904.51	19091
904.627	19095
904.745	19198
904.863	19156
904.981	18871
905.098	18749
905.216	18730
905.334	18875
905.451	18859
905.569	18829
905.686	18825
905.803	18878
905.921	18631
906.038	18684
906.155	18490
906.272	18559
906.389	18479
906.506	18380
906.623	18342
906.74	18330
906.857	18228
906.974	18140
907.091	18289
907.208	18338
907.324	18213
907.441	18251
907.557	17942
907.674	18095
907.79	17935
907.907	17969
908.023	18022
908.139	18136
908.256	17973
908.372	17859
908.488	17813
908.604	17775
908.72	17596
908.836	17714
908.952	17585
909.068	17722
909.184	17741
909.3	17665
909.415	17714
909.531	17596
909.647	17379
909.762	17383
909.878	17364
909.993	17376
910.108	17421
910.224	17326
910.339	17402
910.454	17280
910.57	17220
910.685	17242
910.8	17459
910.915	17208
911.03	17212
911.145	17083
911.259	16961
911.374	16968
911.489	16862
911.604	16896
911.718	16725
911.833	16767
911.947	16580
912.062	16481
912.176	16668
912.291	16713
912.405	16626
912.519	16812
912.633	16881
912.748	16740
912.862	16668
912.976	16538
913.09	16459
913.204	16451
913.318	16485
913.431	16584
913.545	16459
913.659	16653
913.772	16497
913.886	16295
914	16287
914.113	16428
914.226	16462
914.34	16284
914.453	16234
914.566	16367
914.68	16166
914.793	16173
914.906	15888
915.019	15857
915.132	15781
915.245	15812
915.358	15827
915.47	15907
915.583	15827
915.696	15899
915.809	15907
915.921	15991
916.034	15789
916.146	15762
916.259	15736
916.371	15857
916.483	15781
916.595	15679
916.708	15675
916.82	15720
916.932	15515
917.044	15690
917.156	15599
917.268	15401
917.38	15492
917.491	15519
917.603	15382
917.715	15561
917.826	15587
917.938	15256
918.049	15283
918.161	15397
918.272	15534
918.384	15606
918.495	15439
918.606	15294
918.717	15123
918.828	15184
918.939	15260
919.05	15173
919.161	15100
919.272	14971
919.383	15024
919.494	15279
919.604	15412
919.715	15203
919.826	15066
919.936	15058
920.047	15310
920.157	15081
920.267	15317
920.378	15233
920.488	15036
920.598	15332
920.708	15405
920.818	15233
920.928	15237
921.038	15447
921.148	15401
921.258	15097
921.368	15005
921.477	14956
921.587	14872
921.697	14640
921.806	14826
921.916	14697
922.025	14560
922.134	14613
922.244	14461
922.353	14465
922.462	14393
922.571	14271
922.68	14115
922.789	14145
922.898	14183
923.007	14100
923.116	14126
923.224	14069
923.333	14077
923.442	13951
923.55	13932
923.659	13917
923.767	14046
923.876	13807
923.984	13963
924.092	13875
924.201	13822
924.309	13814
924.417	13940
924.525	13734
924.633	13803
924.741	14560
924.849	13537
924.956	13712
925.064	13506
925.172	13495
925.279	13464
925.387	13590
925.494	13525
925.602	13636
925.709	13533
925.816	13354
925.924	13430
926.031	13445
926.138	13468
926.245	13495
926.352	13316
926.459	13449
926.566	13525
926.673	13373
926.779	13217
926.886	13335
926.993	13107
927.099	13050
927.206	12939
927.312	13015
927.419	13019
927.525	13023
927.631	13008
927.737	12894
927.843	12901
927.95	12700
928.056	12833
928.162	12871
928.267	12837
928.373	13422
928.479	12837
928.585	12662
928.69	12783
928.796	12840
928.901	12604
929.007	12490
929.112	12654
929.218	12646
929.323	12677
929.428	12559
929.533	12608
929.638	12445
929.743	12490
929.848	12608
929.953	12471
930.058	12437
930.163	12194
930.267	12197
930.372	12285
930.477	12205
930.581	12410
930.685	12159
930.79	12152
930.894	12045
930.998	12064
931.103	12136
931.207	11882
931.311	11824
931.415	11668
931.519	11425
931.623	11467
