Data from test_V78500241_3506.txt Node
Date: Fri Mar 25 16:06:05 CST 2022
User: usil
Spectrometer: V785-0024
Trigger mode: 0
Integration Time (sec): 4.000000E-1
Scans to average: 1
Nonlinearity correction enabled: false
Boxcar width: 0
Storing dark spectrum: false
XAxis mode: Wavelengths
Number of Pixels in Spectrum: 1024
>>>>>Begin Spectral Data<<<<<
801.071	28900
801.214	28919
801.356	28603
801.499	28630
801.641	28569
801.783	28565
801.926	28504
802.068	28672
802.211	28443
802.353	28382
802.496	28295
802.638	28333
802.78	28131
802.923	28051
803.065	28154
803.208	28135
803.35	28166
803.492	28360
803.635	28382
803.777	28375
803.919	28538
804.061	28797
804.204	28504
804.346	28436
804.488	28413
804.63	28436
804.773	28352
804.915	28569
805.057	28508
805.199	28497
805.341	28626
805.483	28668
805.626	28409
805.768	28516
805.91	28824
806.052	28733
806.194	28508
806.336	28862
806.478	28672
806.62	28759
806.762	28805
806.904	28919
807.046	29185
807.188	29254
807.33	29033
807.472	29136
807.614	28984
807.756	29151
807.898	29010
808.04	28999
808.182	29022
808.324	29067
808.465	29075
808.607	29292
808.749	29364
808.891	29524
809.033	29535
809.174	29353
809.316	29391
809.458	29360
809.6	29311
809.741	29459
809.883	29509
810.025	29691
810.166	29680
810.308	29577
810.45	29551
810.591	29672
810.733	29471
810.875	29391
811.016	29258
811.158	29307
811.299	29722
811.441	29509
811.582	29726
811.724	29501
811.865	29467
812.007	29433
812.148	29261
812.29	29414
812.431	29604
812.573	29714
812.714	29859
812.855	29984
812.997	29977
813.138	30129
813.279	30003
813.421	30030
813.562	29824
813.703	29821
813.845	29589
813.986	29486
814.127	29246
814.268	29090
814.41	29185
814.551	29140
814.692	29193
814.833	28957
814.974	29067
815.115	29151
815.256	29003
815.397	28953
815.539	28961
815.68	28991
815.821	28900
815.962	28980
816.103	28908
816.244	28820
816.385	28577
816.526	28748
816.666	28561
816.807	28485
816.948	28508
817.089	28512
817.23	28508
817.371	28466
817.512	28386
817.653	28371
817.793	28306
817.934	28500
818.075	28356
818.216	28413
818.356	28485
818.497	28246
818.638	28059
818.778	28173
818.919	28211
819.06	28371
819.2	28398
819.341	28447
819.481	28508
819.622	28519
819.762	28721
819.903	28531
820.043	28725
820.184	28622
820.324	28546
820.465	28691
820.605	28634
820.746	28672
820.886	28497
821.026	28535
821.167	28527
821.307	28592
821.447	28421
821.588	28329
821.728	28192
821.868	28112
822.008	27884
822.149	27838
822.289	27895
822.429	27690
822.569	27682
822.709	27526
822.849	27466
822.99	27450
823.13	27408
823.27	27329
823.41	27298
823.55	27142
823.69	27287
823.83	27188
823.97	27036
824.11	26918
824.25	26982
824.389	27024
824.529	27119
824.669	26944
824.809	27154
824.949	27203
825.089	27135
825.228	27173
825.368	26853
825.508	26872
825.648	27081
825.787	27017
825.927	26971
826.067	26929
826.206	26960
826.346	26963
826.485	27009
826.625	27043
826.765	27157
826.904	26960
827.044	26788
827.183	26708
827.323	26705
827.462	26663
827.601	26705
827.741	26796
827.88	26716
828.02	26629
828.159	26739
828.298	26735
828.437	26537
828.577	26720
828.716	26826
828.855	26674
828.994	26347
829.134	26328
829.273	26290
829.412	26385
829.551	26336
829.69	26396
829.829	26301
829.968	26484
830.107	26423
830.246	26400
830.385	26419
830.524	26305
830.663	26130
830.802	26096
830.941	25982
831.08	25982
831.219	26046
831.357	26084
831.496	26195
831.635	26016
831.774	25955
831.913	25776
832.051	25769
832.19	25681
832.329	25693
832.467	25727
832.606	25643
832.744	25506
832.883	25666
833.022	25658
833.16	25643
833.299	25681
833.437	25765
833.576	25830
833.714	25677
833.852	25674
833.991	25742
834.129	25860
834.267	25784
834.406	25833
834.544	25647
834.682	25655
834.821	25681
834.959	25936
835.097	25693
835.235	25738
835.373	25761
835.511	25647
835.65	25590
835.788	25605
835.926	25632
836.064	25331
836.202	25434
836.34	25578
836.478	25616
836.615	25521
836.753	25632
836.891	25795
837.029	25693
837.167	25487
837.305	25426
837.443	25499
837.58	25354
837.718	25430
837.856	25407
837.993	25240
838.131	25312
838.269	25232
838.406	25259
838.544	25061
838.681	24962
838.819	24916
838.956	24920
839.094	24856
839.231	24996
839.369	25050
839.506	25126
839.643	25000
839.781	24856
839.918	24738
840.055	24783
840.193	24745
840.33	24681
840.467	24719
840.604	24757
840.742	25004
840.879	24601
841.016	24688
841.153	24601
841.29	24909
841.427	24631
841.564	24707
841.701	24650
841.838	24646
841.975	24593
842.112	24673
842.249	24521
842.385	24532
842.522	24711
842.659	24597
842.796	24369
842.933	24498
843.069	24467
843.206	24338
843.343	24483
843.479	24509
843.616	24502
843.752	24289
843.889	24285
844.025	24395
844.162	24186
844.298	24361
844.435	24342
844.571	24144
844.708	24327
844.844	24403
844.98	24517
845.117	24346
845.253	24205
845.389	24178
845.525	24159
845.661	24159
845.798	23958
845.934	24076
846.07	23916
846.206	24011
846.342	24144
846.478	24045
846.614	23904
846.75	23760
846.886	23577
847.022	23783
847.158	23752
847.294	23802
847.429	23630
847.565	23661
847.701	23813
847.837	23444
847.972	23387
848.108	23474
848.244	23429
848.379	23353
848.515	23258
848.65	23223
848.786	23402
848.921	23284
849.057	23414
849.192	23261
849.328	23223
849.463	23353
849.598	23250
849.734	23204
849.869	23143
850.004	23048
850.14	23060
850.275	23090
850.41	22972
850.545	23143
850.68	23090
850.815	23151
850.95	23246
851.085	23162
851.22	23151
851.355	23052
851.49	23102
851.625	22957
851.76	22999
851.895	23109
852.03	22999
852.165	23014
852.299	23094
852.434	23162
852.569	23159
852.703	23010
852.838	23090
852.973	23288
853.107	23231
853.242	22976
853.376	22957
853.511	22828
853.645	22866
853.78	23067
853.914	23003
854.048	22991
854.183	22790
854.317	22949
854.451	23140
854.585	22980
854.72	22908
854.854	22866
854.988	22850
855.122	22923
855.256	22881
855.39	22877
855.524	22850
855.658	22839
855.792	22835
855.926	22831
856.06	22869
856.194	22938
856.327	23006
856.461	22801
856.595	22839
856.729	22961
856.862	23025
856.996	22923
857.13	23044
857.263	22980
857.397	22972
857.53	22930
857.664	22923
857.797	22812
857.931	23041
858.064	22896
858.197	22923
858.331	22896
858.464	22748
858.597	22782
858.731	22805
858.864	22786
858.997	22824
859.13	22793
859.263	22744
859.396	23018
859.529	22805
859.662	22869
859.795	22839
859.928	22877
860.061	23014
860.194	22927
860.327	22957
860.46	22957
860.592	22946
860.725	22896
860.858	23086
860.99	22999
861.123	22812
861.256	22831
861.388	22961
861.521	23653
861.653	22820
861.786	22634
861.918	22611
862.05	22755
862.183	22847
862.315	22904
862.447	22877
862.58	22805
862.712	22672
862.844	22607
862.976	22584
863.108	22698
863.24	22930
863.372	22561
863.504	22641
863.636	22607
863.768	22527
863.9	22706
864.032	22523
864.164	22489
864.296	22687
864.428	22778
864.559	22668
864.691	22500
864.823	22607
864.954	22580
865.086	22519
865.217	22508
865.349	22451
865.48	22504
865.612	22527
865.743	22656
865.875	22455
866.006	22527
866.137	22375
866.269	22455
866.4	22382
866.531	22459
866.662	22386
866.793	22363
866.924	22398
867.055	22405
867.186	22325
867.317	22367
867.448	22356
867.579	22394
867.71	22318
867.841	22329
867.972	22409
868.103	22375
868.233	22352
868.364	22352
868.495	22447
868.625	22656
868.756	22691
868.886	22592
869.017	22561
869.147	22702
869.278	22672
869.408	22626
869.539	22611
869.669	22668
869.799	22634
869.929	22850
870.06	22653
870.19	22915
870.32	22839
870.45	22942
870.58	23044
870.71	23060
870.84	23018
870.97	23067
871.1	23117
871.23	23204
871.36	23258
871.489	23079
871.619	23250
871.749	23212
871.879	23299
872.008	23334
872.138	23330
872.267	23181
872.397	23143
872.526	22949
872.656	22946
872.785	23140
872.915	23223
873.044	23379
873.173	23147
873.303	23235
873.432	23395
873.561	23303
873.69	23360
873.819	23284
873.948	23307
874.077	23239
874.206	23204
874.335	23269
874.464	23509
874.593	23417
874.722	23448
874.851	23440
874.979	23486
875.108	23573
875.237	23376
875.365	23433
875.494	23493
875.623	23547
875.751	23448
875.88	23493
876.008	23619
876.136	23604
876.265	23783
876.393	23980
876.521	23984
876.65	24011
876.778	23935
876.906	23737
877.034	23904
877.162	23931
877.29	23680
877.418	23832
877.546	23847
877.674	23866
877.802	23767
877.93	23855
878.058	23783
878.185	23684
878.313	23855
878.441	23783
878.568	23604
878.696	23790
878.824	23927
878.951	23897
879.079	23901
879.206	23999
879.333	23996
879.461	23923
879.588	23851
879.715	24003
879.842	24003
879.97	23897
880.097	23710
880.224	23535
880.351	23680
880.478	23745
880.605	23771
880.732	23726
880.859	23927
880.986	23668
881.112	23608
881.239	23581
881.366	23440
881.493	23311
881.619	23102
881.746	23227
881.872	23212
881.999	23159
882.125	23105
882.252	23223
882.378	23143
882.505	23231
882.631	23018
882.757	22930
882.883	22896
883.01	22946
883.136	22843
883.262	22778
883.388	22656
883.514	22892
883.64	22957
883.766	22774
883.892	22645
884.018	22573
884.143	22752
884.269	22934
884.395	22622
884.52	22478
884.646	22668
884.772	22447
884.897	22352
885.023	22542
885.148	22588
885.274	22637
885.399	22478
885.524	22561
885.65	22523
885.775	22386
885.9	22447
886.025	22694
886.15	22523
886.275	22512
886.4	22413
886.525	22519
886.65	22447
886.775	22440
886.9	22523
887.025	22679
887.149	22451
887.274	22306
887.399	22173
887.523	22306
887.648	22044
887.773	22128
887.897	22303
888.021	22246
888.146	22173
888.27	22363
888.395	22287
888.519	22329
888.643	22246
888.767	22246
888.891	22112
889.015	22029
889.139	22147
889.263	22040
889.387	22154
889.511	22436
889.635	22207
889.759	21968
889.883	22082
890.006	22169
890.13	22082
890.254	21854
890.377	22036
890.501	21812
890.624	21778
890.748	21812
890.871	21751
890.995	21526
891.118	21667
891.241	21568
891.364	21591
891.488	21705
891.611	21595
891.734	21591
891.857	21663
891.98	21492
892.103	21660
892.226	21549
892.349	21553
892.471	21348
892.594	21530
892.717	21583
892.839	21458
892.962	21439
893.085	21538
893.207	21530
893.33	21382
893.452	21386
893.575	21583
893.697	21485
893.819	21549
893.941	21515
894.064	21583
894.186	21332
894.308	21317
894.43	21519
894.552	21553
894.674	21469
894.796	21393
894.918	21477
895.04	21405
895.161	21576
895.283	21424
895.405	21458
895.526	21523
895.648	21351
895.769	21397
895.891	21431
896.012	21538
896.134	21428
896.255	21401
896.376	21348
896.498	21420
896.619	21431
896.74	21363
896.861	21412
896.982	21751
897.103	21907
897.224	21591
897.345	21671
897.466	21534
897.587	21644
897.708	21918
897.828	21698
897.949	21500
898.07	21534
898.19	21439
898.311	21755
898.431	21557
898.552	21507
898.672	21641
898.792	21599
898.913	21637
899.033	21500
899.153	21310
899.273	21378
899.393	21348
899.513	21401
899.633	21359
899.753	21370
899.873	21325
899.993	21374
900.113	21203
900.232	21340
900.352	21195
900.472	21180
900.591	21085
900.711	21123
900.83	21032
900.95	21112
901.069	21161
901.189	20963
901.308	20743
901.427	20746
901.546	20739
901.665	20629
901.784	20629
901.904	20526
902.023	20366
902.141	20259
902.26	20282
902.379	20320
902.498	20237
902.617	20126
902.735	20199
902.854	20145
902.973	20008
903.091	19898
903.21	19864
903.328	19837
903.446	19719
903.565	19628
903.683	19651
903.801	19491
903.919	19548
904.038	19499
904.156	19483
904.274	19521
904.392	19285
904.51	19419
904.627	19369
904.745	19384
904.863	19506
904.981	19175
905.098	19187
905.216	19012
905.334	19061
905.451	19103
905.569	18886
905.686	19027
905.803	19038
905.921	18856
906.038	18829
906.155	18806
906.272	18738
906.389	18886
906.506	18525
906.623	18494
906.74	18525
906.857	18456
906.974	18448
907.091	18566
907.208	18570
907.324	18635
907.441	18391
907.557	18327
907.674	18285
907.79	18300
907.907	18159
908.023	18308
908.139	18327
908.256	18277
908.372	18144
908.488	18117
908.604	18019
908.72	17958
908.836	18022
908.952	18003
909.068	17980
909.184	18098
909.3	17988
909.415	18038
909.531	17969
909.647	17832
909.762	17748
909.878	17714
909.993	17783
910.108	17615
910.224	17657
910.339	17547
910.454	17539
910.57	17577
910.685	17322
910.8	17646
910.915	17573
911.03	17455
911.145	17353
911.259	17223
911.374	17227
911.489	17121
911.604	17037
911.718	16968
911.833	17014
911.947	16809
912.062	16866
912.176	17067
912.291	16930
912.405	16953
912.519	17124
912.633	17155
912.748	17010
912.862	16915
912.976	16900
913.09	16596
913.204	16710
913.318	16786
913.431	16793
913.545	16877
913.659	16835
913.772	16763
913.886	16664
914	16626
914.113	16634
914.226	16698
914.34	16752
914.453	16405
914.566	16679
914.68	16447
914.793	16455
914.906	16344
915.019	16181
915.132	16185
915.245	16112
915.358	16044
915.47	16131
915.583	16166
915.696	16219
915.809	16181
915.921	16246
916.034	16090
916.146	16131
916.259	16036
916.371	16067
916.483	16101
916.595	16010
916.708	16032
916.82	15983
916.932	15865
917.044	15937
917.156	15854
917.268	15789
917.38	15701
917.491	15713
917.603	15850
917.715	15800
917.826	15835
917.938	15709
918.049	15679
918.161	15625
918.272	15846
918.384	15846
918.495	15663
918.606	15629
918.717	15443
918.828	15477
918.939	15477
919.05	15416
919.161	15511
919.272	15260
919.383	15389
919.494	15462
919.604	15679
919.715	15473
919.826	15389
919.936	15500
920.047	15606
920.157	15401
920.267	15656
920.378	15439
920.488	15401
920.598	15545
920.708	15660
920.818	15526
920.928	15557
921.038	15755
921.148	15606
921.258	15336
921.368	15294
921.477	15237
921.587	15093
921.697	14971
921.806	15279
921.916	15009
922.025	14830
922.134	14891
922.244	14727
922.353	14811
922.462	14758
922.571	14651
922.68	14434
922.789	14412
922.898	14419
923.007	14408
923.116	14408
923.224	14362
923.333	14473
923.442	14248
923.55	14229
923.659	14278
923.767	14282
923.876	14145
923.984	14183
924.092	14115
924.201	14191
924.309	14138
924.417	14161
924.525	14046
924.633	14138
924.741	14937
924.849	13845
924.956	13925
925.064	13677
925.172	13795
925.279	13860
925.387	13887
925.494	13807
925.602	13822
925.709	13814
925.816	13681
925.924	13734
926.031	13841
926.138	13757
926.245	13780
926.352	13616
926.459	13753
926.566	13746
926.673	13655
926.779	13567
926.886	13499
926.993	13384
927.099	13381
927.206	13327
927.312	13213
927.419	13316
927.525	13289
927.631	13369
927.737	13251
927.843	13050
927.95	13061
928.056	13164
928.162	13164
928.267	13175
928.373	13761
928.479	13217
928.585	13038
928.69	13133
928.796	13133
928.901	13000
929.007	12783
929.112	12939
929.218	12973
929.323	12901
929.428	12768
929.533	12905
929.638	12837
929.743	12821
929.848	12787
929.953	12817
930.058	12665
930.163	12551
930.267	12547
930.372	12703
930.477	12498
930.581	12677
930.685	12608
930.79	12323
930.894	12407
930.998	12308
931.103	12483
931.207	12133
931.311	12015
931.415	11931
931.519	11783
931.623	11695
