Data from test_V78500241_1778.txt Node
Date: Fri Mar 25 15:54:07 CST 2022
User: usil
Spectrometer: V785-0024
Trigger mode: 0
Integration Time (sec): 4.000000E-1
Scans to average: 1
Nonlinearity correction enabled: false
Boxcar width: 0
Storing dark spectrum: false
XAxis mode: Wavelengths
Number of Pixels in Spectrum: 1024
>>>>>Begin Spectral Data<<<<<
801.071	28569
801.214	28436
801.356	28375
801.499	28284
801.641	28265
801.783	28200
801.926	28223
802.068	28204
802.211	28116
802.353	28002
802.496	27918
802.638	27831
802.78	27793
802.923	27694
803.065	27797
803.208	27667
803.35	27865
803.492	28021
803.635	28025
803.777	27873
803.919	28040
804.061	28363
804.204	28074
804.346	28017
804.488	27880
804.63	28147
804.773	28013
804.915	28150
805.057	28276
805.199	27972
805.341	28188
805.483	28325
805.626	28219
805.768	28131
805.91	28265
806.052	28249
806.194	28086
806.336	28341
806.478	28314
806.62	28268
806.762	28360
806.904	28417
807.046	28869
807.188	28603
807.33	28729
807.472	28687
807.614	28759
807.756	28668
807.898	28470
808.04	28573
808.182	28474
808.324	28603
808.465	28653
808.607	28862
808.749	28949
808.891	29102
809.033	29083
809.174	28987
809.316	28847
809.458	28911
809.6	28934
809.741	28930
809.883	29025
810.025	29288
810.166	29242
810.308	29170
810.45	29250
810.591	29204
810.733	29037
810.875	28919
811.016	28839
811.158	28793
811.299	29178
811.441	28919
811.582	29189
811.724	28961
811.865	28820
812.007	28930
812.148	28911
812.29	29003
812.431	29071
812.573	29254
812.714	29334
812.855	29433
812.997	29558
813.138	29615
813.279	29596
813.421	29471
813.562	29318
813.703	29159
813.845	29178
813.986	28934
814.127	28698
814.268	28615
814.41	28660
814.551	28489
814.692	28801
814.833	28664
814.974	28637
815.115	28607
815.256	28588
815.397	28489
815.539	28443
815.68	28535
815.821	28474
815.962	28531
816.103	28432
816.244	28253
816.385	28253
816.526	28215
816.666	28025
816.807	27880
816.948	28090
817.089	28059
817.23	27998
817.371	27991
817.512	27975
817.653	28048
817.793	27918
817.934	28105
818.075	28021
818.216	28010
818.356	27869
818.497	27808
818.638	27504
818.778	27614
818.919	27869
819.06	27728
819.2	27979
819.341	28044
819.481	27926
819.622	28128
819.762	28253
819.903	28230
820.043	28124
820.184	28036
820.324	28131
820.465	28154
820.605	28162
820.746	28029
820.886	27945
821.026	28070
821.167	28036
821.307	27937
821.447	27994
821.588	27930
821.728	27793
821.868	27717
822.008	27534
822.149	27408
822.289	27500
822.429	27123
822.569	27180
822.709	27165
822.849	26998
822.99	26891
823.13	26914
823.27	26804
823.41	26777
823.55	26701
823.69	26807
823.83	26708
823.97	26670
824.11	26560
824.25	26606
824.389	26526
824.529	26708
824.669	26427
824.809	26727
824.949	26590
825.089	26613
825.228	26613
825.368	26545
825.508	26579
825.648	26594
825.787	26457
825.927	26362
826.067	26503
826.206	26469
826.346	26503
826.485	26522
826.625	26385
826.765	26613
826.904	26552
827.044	26313
827.183	26153
827.323	26225
827.462	26290
827.601	26161
827.741	26225
827.88	26290
828.02	26176
828.159	26199
828.298	26221
828.437	26221
828.577	26191
828.716	26282
828.855	26145
828.994	26031
829.134	26005
829.273	25963
829.412	25715
829.551	25822
829.69	25887
829.829	25890
829.968	25997
830.107	26012
830.246	25799
830.385	25822
830.524	25753
830.663	25674
830.802	25571
830.941	25552
831.08	25369
831.219	25518
831.357	25666
831.496	25788
831.635	25426
831.774	25479
831.913	25377
832.051	25263
832.19	25324
832.329	25335
832.467	25168
832.606	25202
832.744	25152
832.883	25168
833.022	25042
833.16	25225
833.299	25221
833.437	25198
833.576	25202
833.714	25244
833.852	25304
833.991	25255
834.129	25289
834.267	25316
834.406	25320
834.544	25441
834.682	25274
834.821	25251
834.959	25411
835.097	25179
835.235	25343
835.373	25148
835.511	25198
835.65	25061
835.788	25069
835.926	24905
836.064	24909
836.202	24935
836.34	25148
836.478	25217
836.615	25209
836.753	25072
836.891	25114
837.029	25107
837.167	25027
837.305	24981
837.443	24966
837.58	24894
837.718	24924
837.856	24890
837.993	24890
838.131	24970
838.269	24859
838.406	24635
838.544	24681
838.681	24513
838.819	24475
838.956	24323
839.094	24311
839.231	24426
839.369	24509
839.506	24795
839.643	24627
839.781	24338
839.918	24376
840.055	24376
840.193	24346
840.33	24346
840.467	24410
840.604	24372
840.742	24452
840.879	24163
841.016	24174
841.153	24216
841.29	24384
841.427	24239
841.564	24281
841.701	24216
841.838	24167
841.975	24129
842.112	24247
842.249	24064
842.385	24030
842.522	24262
842.659	24083
842.796	23977
842.933	24003
843.069	24087
843.206	23878
843.343	23996
843.479	24076
843.616	23969
843.752	23775
843.889	23863
844.025	23878
844.162	23832
844.298	23961
844.435	23767
844.571	23783
844.708	23889
844.844	23942
844.98	23893
845.117	23859
845.253	23619
845.389	23638
845.525	23748
845.661	23691
845.798	23512
845.934	23459
846.07	23520
846.206	23630
846.342	23680
846.478	23383
846.614	23383
846.75	23341
846.886	23299
847.022	23284
847.158	23189
847.294	23197
847.429	23254
847.565	23273
847.701	23463
847.837	22968
847.972	22949
848.108	23090
848.244	22968
848.379	22984
848.515	22965
848.65	22957
848.786	22908
848.921	22828
849.057	22839
849.192	22869
849.328	22790
849.463	22854
849.598	22713
849.734	22816
849.869	22687
850.004	22580
850.14	22611
850.275	22641
850.41	22554
850.545	22580
850.68	22554
850.815	22641
850.95	22634
851.085	22839
851.22	22702
851.355	22459
851.49	22656
851.625	22569
851.76	22599
851.895	22504
852.03	22550
852.165	22588
852.299	22573
852.434	22828
852.569	22538
852.703	22683
852.838	22607
852.973	22736
853.107	22782
853.242	22451
853.376	22538
853.511	22318
853.645	22333
853.78	22573
853.914	22474
854.048	22421
854.183	22398
854.317	22432
854.451	22615
854.585	22485
854.72	22379
854.854	22390
854.988	22409
855.122	22379
855.256	22276
855.39	22287
855.524	22466
855.658	22451
855.792	22481
855.926	22497
856.06	22405
856.194	22440
856.327	22367
856.461	22360
856.595	22443
856.729	22318
856.862	22440
856.996	22493
857.13	22508
857.263	22523
857.397	22432
857.53	22500
857.664	22470
857.797	22577
857.931	22489
858.064	22409
858.197	22497
858.331	22363
858.464	22295
858.597	22375
858.731	22421
858.864	22409
858.997	22348
859.13	22402
859.263	22341
859.396	22470
859.529	22306
859.662	22375
859.795	22299
859.928	22424
860.061	22481
860.194	22691
860.327	22527
860.46	22527
860.592	22478
860.725	22550
860.858	22577
860.99	22337
861.123	22291
861.256	22303
861.388	22413
861.521	23102
861.653	22287
861.786	22196
861.918	22287
862.05	22379
862.183	22325
862.315	22367
862.447	22367
862.58	22394
862.712	22112
862.844	22078
862.976	22158
863.108	22101
863.24	22512
863.372	22055
863.504	22048
863.636	22261
863.768	22154
863.9	22162
864.032	22063
864.164	22086
864.296	22143
864.428	22215
864.559	22177
864.691	22109
864.823	22063
864.954	22192
865.086	22048
865.217	22017
865.349	21903
865.48	22040
865.612	21861
865.743	21968
865.875	22048
866.006	21895
866.137	22051
866.269	21956
866.4	22051
866.531	21998
866.662	21895
866.793	21884
866.924	21880
867.055	21926
867.186	21838
867.317	21827
867.448	21884
867.579	21804
867.71	21804
867.841	21800
867.972	21915
868.103	21991
868.233	21880
868.364	21842
868.495	21991
868.625	22112
868.756	22200
868.886	22116
869.017	22242
869.147	22238
869.278	22333
869.408	22120
869.539	22211
869.669	22226
869.799	22135
869.929	22325
870.06	22249
870.19	22402
870.32	22470
870.45	22474
870.58	22569
870.71	22603
870.84	22557
870.97	22618
871.1	22557
871.23	22774
871.36	22831
871.489	22596
871.619	22831
871.749	22729
871.879	22702
872.008	22850
872.138	22854
872.267	22767
872.397	22748
872.526	22565
872.656	22508
872.785	22603
872.915	22672
873.044	22763
873.173	22877
873.303	22858
873.432	22987
873.561	22828
873.69	22706
873.819	22694
873.948	22877
874.077	22797
874.206	22740
874.335	22774
874.464	22961
874.593	22965
874.722	23044
874.851	23041
874.979	23003
875.108	23048
875.237	22877
875.365	22949
875.494	22961
875.623	23121
875.751	22965
875.88	23067
876.008	23124
876.136	23124
876.265	23433
876.393	23379
876.521	23459
876.65	23379
876.778	23356
876.906	23200
877.034	23303
877.162	23220
877.29	23303
877.418	23296
877.546	23307
877.674	23501
877.802	23223
877.93	23246
878.058	23360
878.185	23136
878.313	23200
878.441	23349
878.568	23090
878.696	23303
878.824	23200
878.951	23402
879.079	23410
879.206	23634
879.333	23490
879.461	23376
879.588	23364
879.715	23478
879.842	23570
879.97	23516
880.097	23246
880.224	23121
880.351	23147
880.478	23170
880.605	23132
880.732	23220
880.859	23292
880.986	23083
881.112	23143
881.239	23105
881.366	22968
881.493	22873
881.619	22694
881.746	22820
881.872	22687
881.999	22675
882.125	22592
882.252	22782
882.378	22702
882.505	22797
882.631	22489
882.757	22352
882.883	22481
883.01	22344
883.136	22287
883.262	22287
883.388	22261
883.514	22386
883.64	22497
883.766	22261
883.892	22131
884.018	22139
884.143	22303
884.269	22360
884.395	22105
884.52	21888
884.646	22032
884.772	21979
884.897	21911
885.023	22025
885.148	22196
885.274	22063
885.399	22177
885.524	22006
885.65	22032
885.775	21972
885.9	22021
886.025	22105
886.15	22051
886.275	21968
886.4	22055
886.525	21975
886.65	21804
886.775	21960
886.9	22006
887.025	22063
887.149	21934
887.274	21797
887.399	21660
887.523	21808
887.648	21682
887.773	21682
887.897	21728
888.021	21762
888.146	21675
888.27	21774
888.395	21964
888.519	21850
888.643	21759
888.767	21728
888.891	21606
889.015	21724
889.139	21595
889.263	21583
889.387	21736
889.511	21739
889.635	21789
889.759	21515
889.883	21572
890.006	21648
890.13	21717
890.254	21477
890.377	21424
890.501	21424
890.624	21268
890.748	21340
890.871	21275
890.995	21108
891.118	21009
891.241	21207
891.364	21089
891.488	21199
891.611	21142
891.734	21169
891.857	21131
891.98	21062
892.103	21154
892.226	21157
892.349	21009
892.471	20857
892.594	21039
892.717	21074
892.839	20941
892.962	20971
893.085	20994
893.207	20994
893.33	20910
893.452	20883
893.575	21116
893.697	20921
893.819	21096
893.941	21294
894.064	21123
894.186	20861
894.308	21036
894.43	21077
894.552	21085
894.674	20925
894.796	20842
894.918	20960
895.04	20971
895.161	21020
895.283	20994
895.405	20979
895.526	20914
895.648	20960
895.769	21058
895.891	21009
896.012	21077
896.134	20975
896.255	20960
896.376	20849
896.498	21043
896.619	21058
896.74	21039
896.861	21142
896.982	21336
897.103	21458
897.224	21291
897.345	21218
897.466	21157
897.587	21192
897.708	21264
897.828	21157
897.949	21119
898.07	20914
898.19	21165
898.311	21287
898.431	21039
898.552	21119
898.672	21074
898.792	21241
898.913	21089
899.033	21077
899.153	21028
899.273	20838
899.393	20929
899.513	21066
899.633	20967
899.753	20864
899.873	20834
899.993	20960
900.113	20937
900.232	21017
900.352	20769
900.472	20743
900.591	20724
900.711	20735
900.83	20568
900.95	20819
901.069	20651
901.189	20682
901.308	20393
901.427	20393
901.546	20221
901.665	20320
901.784	20088
901.904	20096
902.023	20020
902.141	19871
902.26	19811
902.379	19917
902.498	19685
902.617	19849
902.735	19753
902.854	19765
902.973	19578
903.091	19460
903.21	19438
903.328	19441
903.446	19373
903.565	19282
903.683	19335
903.801	19053
903.919	19213
904.038	19202
904.156	19012
904.274	19019
904.392	18996
904.51	18977
904.627	19031
904.745	19061
904.863	19038
904.981	18863
905.098	18513
905.216	18646
905.334	18608
905.451	18707
905.569	18635
905.686	18620
905.803	18658
905.921	18475
906.038	18570
906.155	18612
906.272	18277
906.389	18441
906.506	18228
906.623	18258
906.74	18273
906.857	18030
906.974	18136
907.091	18178
907.208	18296
907.324	18270
907.441	18038
907.557	17969
907.674	17874
907.79	17859
907.907	17893
908.023	17961
908.139	17882
908.256	17874
908.372	17824
908.488	17764
908.604	17642
908.72	17486
908.836	17642
908.952	17623
909.068	17668
909.184	17802
909.3	17585
909.415	17581
909.531	17589
909.647	17410
909.762	17356
909.878	17292
909.993	17417
910.108	17162
910.224	17250
910.339	17208
910.454	17121
910.57	17162
910.685	17083
910.8	17395
910.915	17242
911.03	17185
911.145	17033
911.259	16862
911.374	16759
911.489	16812
911.604	16805
911.718	16691
911.833	16721
911.947	16611
912.062	16497
912.176	16607
912.291	16649
912.405	16706
912.519	16881
912.633	16839
912.748	16710
912.862	16569
912.976	16440
913.09	16428
913.204	16428
913.318	16428
913.431	16504
913.545	16546
913.659	16554
913.772	16314
913.886	16230
914	16154
914.113	16333
914.226	16371
914.34	16352
914.453	16044
914.566	16249
914.68	16242
914.793	16154
914.906	15991
915.019	15835
915.132	15812
915.245	15835
915.358	15865
915.47	15850
915.583	15816
915.696	15804
915.809	15857
915.921	15998
916.034	15732
916.146	15648
916.259	15637
916.371	15846
916.483	15778
916.595	15625
916.708	15667
916.82	15622
916.932	15599
917.044	15595
917.156	15523
917.268	15412
917.38	15538
917.491	15485
917.603	15435
917.715	15572
917.826	15595
917.938	15344
918.049	15291
918.161	15317
918.272	15397
918.384	15462
918.495	15412
918.606	15306
918.717	15093
918.828	15264
918.939	15207
919.05	15123
919.161	15252
919.272	15043
919.383	14994
919.494	15127
919.604	15378
919.715	15184
919.826	15062
919.936	15218
920.047	15211
920.157	15131
920.267	15306
920.378	15203
920.488	15173
920.598	15287
920.708	15439
920.818	15287
920.928	15260
921.038	15378
921.148	15378
921.258	15138
921.368	15074
921.477	14849
921.587	14857
921.697	14788
921.806	14899
921.916	14792
922.025	14560
922.134	14511
922.244	14446
922.353	14568
922.462	14400
922.571	14332
922.68	14294
922.789	14107
922.898	14157
923.007	14084
923.116	14183
923.224	14096
923.333	14073
923.442	14005
923.55	13997
923.659	14008
923.767	14058
923.876	13936
923.984	13982
924.092	13837
924.201	13864
924.309	13849
924.417	13917
924.525	13769
924.633	13757
924.741	14571
924.849	13605
924.956	13765
925.064	13578
925.172	13472
925.279	13540
925.387	13620
925.494	13472
925.602	13636
925.709	13559
925.816	13438
925.924	13510
926.031	13636
926.138	13453
926.245	13533
926.352	13331
926.459	13502
926.566	13578
926.673	13403
926.779	13289
926.886	13278
926.993	13183
927.099	13145
927.206	13046
927.312	12989
927.419	13038
927.525	13110
927.631	13042
927.737	12856
927.843	12916
927.95	12806
928.056	12890
928.162	12882
928.267	12973
928.373	13529
928.479	12943
928.585	12684
928.69	12844
928.796	12886
928.901	12741
929.007	12525
929.112	12692
929.218	12589
929.323	12669
929.428	12540
929.533	12669
929.638	12452
929.743	12456
929.848	12597
929.953	12502
930.058	12498
930.163	12258
930.267	12266
930.372	12410
930.477	12232
930.581	12445
930.685	12437
930.79	12178
930.894	12277
930.998	12087
931.103	12254
931.207	11817
931.311	11737
931.415	11676
931.519	11562
931.623	11459
