Data from test_V78500241_268.txt Node
Date: Fri Mar 25 15:43:39 CST 2022
User: usil
Spectrometer: V785-0024
Trigger mode: 0
Integration Time (sec): 4.000000E-1
Scans to average: 1
Nonlinearity correction enabled: false
Boxcar width: 0
Storing dark spectrum: false
XAxis mode: Wavelengths
Number of Pixels in Spectrum: 1024
>>>>>Begin Spectral Data<<<<<
801.071	30038
801.214	30038
801.356	29687
801.499	29668
801.641	29558
801.783	29562
801.926	29589
802.068	29627
802.211	29322
802.353	29493
802.496	29375
802.638	29242
802.78	29246
802.923	29235
803.065	29117
803.208	29299
803.35	29303
803.492	29372
803.635	29554
803.777	29474
803.919	29410
804.061	29756
804.204	29474
804.346	29345
804.488	29261
804.63	29398
804.773	29345
804.915	29512
805.057	29531
805.199	29497
805.341	29596
805.483	29531
805.626	29577
805.768	29463
805.91	29566
806.052	29471
806.194	29581
806.336	29748
806.478	29596
806.62	29627
806.762	29653
806.904	29870
807.046	30144
807.188	29980
807.33	29969
807.472	30091
807.614	29942
807.756	30041
807.898	29866
808.04	29596
808.182	29836
808.324	29726
808.465	29767
808.607	29817
808.749	30110
808.891	30289
809.033	30410
809.174	30300
809.316	30216
809.458	30220
809.6	30171
809.741	30308
809.883	30277
810.025	30585
810.166	30521
810.308	30593
810.45	30448
810.591	30410
810.733	30277
810.875	30205
811.016	30060
811.158	30018
811.299	30254
811.441	30467
811.582	30330
811.724	30136
811.865	30133
812.007	30163
812.148	30155
812.29	30308
812.431	30384
812.573	30422
812.714	30570
812.855	30677
812.997	30798
813.138	31034
813.279	30791
813.421	30836
813.562	30570
813.703	30365
813.845	30525
813.986	30136
814.127	30057
814.268	29802
814.41	29847
814.551	29680
814.692	29885
814.833	29790
814.974	29771
815.115	29862
815.256	29703
815.397	29684
815.539	29668
815.68	29764
815.821	29505
815.962	29581
816.103	29680
816.244	29505
816.385	29391
816.526	29421
816.666	29189
816.807	28991
816.948	29223
817.089	29212
817.23	28991
817.371	29003
817.512	29140
817.653	29143
817.793	29006
817.934	28953
818.075	29052
818.216	29102
818.356	29022
818.497	28900
818.638	28706
818.778	28774
818.919	28809
819.06	28771
819.2	28949
819.341	29174
819.481	28911
819.622	29261
819.762	29410
819.903	29231
820.043	29311
820.184	29235
820.324	28957
820.465	29239
820.605	29094
820.746	29067
820.886	29067
821.026	29136
821.167	28930
821.307	29124
821.447	29025
821.588	28888
821.728	28702
821.868	28618
822.008	28470
822.149	28489
822.289	28417
822.429	27903
822.569	28318
822.709	28025
822.849	27857
822.99	27903
823.13	27895
823.27	27789
823.41	27682
823.55	27580
823.69	27648
823.83	27751
823.97	27614
824.11	27469
824.25	27515
824.389	27576
824.529	27644
824.669	27488
824.809	27633
824.949	27568
825.089	27580
825.228	27519
825.368	27268
825.508	27374
825.648	27389
825.787	27325
825.927	27439
826.067	27313
826.206	27454
826.346	27431
826.485	27294
826.625	27416
826.765	27435
826.904	27389
827.044	27203
827.183	27131
827.323	27085
827.462	27024
827.601	27093
827.741	27093
827.88	27184
828.02	26975
828.159	27066
828.298	27074
828.437	27043
828.577	26914
828.716	27024
828.855	26937
828.994	26899
829.134	26689
829.273	26788
829.412	26693
829.551	26667
829.69	26845
829.829	26667
829.968	26800
830.107	26880
830.246	26807
830.385	26807
830.524	26556
830.663	26465
830.802	26252
830.941	26317
831.08	26298
831.219	26366
831.357	26450
831.496	26503
831.635	26415
831.774	26309
831.913	26206
832.051	26164
832.19	25970
832.329	26130
832.467	26008
832.606	26012
832.744	25936
832.883	25978
833.022	26039
833.16	25989
833.299	26077
833.437	26035
833.576	26027
833.714	25989
833.852	26073
833.991	26142
834.129	26122
834.267	26103
834.406	26035
834.544	26012
834.682	25986
834.821	25909
834.959	26050
835.097	25852
835.235	25947
835.373	25883
835.511	25894
835.65	25693
835.788	25894
835.926	25632
836.064	25582
836.202	25628
836.34	25677
836.478	25989
836.615	25704
836.753	25761
836.891	25947
837.029	25849
837.167	25765
837.305	25544
837.443	25723
837.58	25605
837.718	25677
837.856	25643
837.993	25521
838.131	25571
838.269	25324
838.406	25514
838.544	25369
838.681	25076
838.819	25175
838.956	24962
839.094	25156
839.231	25027
839.369	25304
839.506	25403
839.643	25251
839.781	24951
839.918	24867
840.055	24962
840.193	25004
840.33	24970
840.467	24924
840.604	25004
840.742	25266
840.879	24848
841.016	24886
841.153	24711
841.29	24939
841.427	24787
841.564	24973
841.701	24909
841.838	24791
841.975	24772
842.112	24722
842.249	24726
842.385	24559
842.522	24760
842.659	24700
842.796	24593
842.933	24585
843.069	24547
843.206	24502
843.343	24665
843.479	24498
843.616	24597
843.752	24319
843.889	24285
844.025	24460
844.162	24330
844.298	24422
844.435	24315
844.571	24270
844.708	24395
844.844	24479
844.98	24391
845.117	24441
845.253	24235
845.389	24220
845.525	24216
845.661	24247
845.798	24076
845.934	24125
846.07	24087
846.206	24095
846.342	24095
846.478	24041
846.614	23813
846.75	23638
846.886	23882
847.022	23821
847.158	23817
847.294	23790
847.429	23771
847.565	23718
847.701	24034
847.837	23524
847.972	23376
848.108	23459
848.244	23566
848.379	23463
848.515	23353
848.65	23197
848.786	23421
848.921	23459
849.057	23524
849.192	23376
849.328	23383
849.463	23345
849.598	23307
849.734	23284
849.869	23010
850.004	23044
850.14	23094
850.275	23025
850.41	22995
850.545	23083
850.68	23037
850.815	23010
850.95	23113
851.085	23269
851.22	23208
851.355	22991
851.49	23121
851.625	23090
851.76	23003
851.895	22987
852.03	22892
852.165	23044
852.299	23052
852.434	23121
852.569	23132
852.703	22999
852.838	23006
852.973	23181
853.107	23128
853.242	23029
853.376	22938
853.511	22774
853.645	22824
853.78	22942
853.914	22877
854.048	22755
854.183	22812
854.317	22896
854.451	23113
854.585	22797
854.72	22771
854.854	22915
854.988	22668
855.122	22668
855.256	22706
855.39	22805
855.524	22877
855.658	22683
855.792	22862
855.926	22858
856.06	22736
856.194	22984
856.327	22797
856.461	22710
856.595	22759
856.729	22942
856.862	22930
856.996	22755
857.13	22850
857.263	22881
857.397	22892
857.53	22797
857.664	22782
857.797	22812
857.931	22809
858.064	22771
858.197	22908
858.331	22831
858.464	22706
858.597	22706
858.731	22687
858.864	22641
858.997	22782
859.13	22771
859.263	22759
859.396	22927
859.529	22824
859.662	22733
859.795	22725
859.928	22729
860.061	22835
860.194	22862
860.327	22744
860.46	22763
860.592	22847
860.725	22911
860.858	22824
860.99	22778
861.123	22626
861.256	22721
861.388	22748
861.521	23368
861.653	22573
861.786	22763
861.918	22702
862.05	22675
862.183	22729
862.315	22835
862.447	22828
862.58	22729
862.712	22550
862.844	22352
862.976	22660
863.108	22485
863.24	22904
863.372	22402
863.504	22474
863.636	22341
863.768	22428
863.9	22428
864.032	22341
864.164	22230
864.296	22497
864.428	22733
864.559	22546
864.691	22538
864.823	22531
864.954	22459
865.086	22402
865.217	22299
865.349	22234
865.48	22337
865.612	22337
865.743	22413
865.875	22466
866.006	22276
866.137	22234
866.269	22341
866.4	22276
866.531	22265
866.662	22207
866.793	22196
866.924	22223
867.055	22181
867.186	22181
867.317	22299
867.448	22116
867.579	22219
867.71	22070
867.841	22131
867.972	22128
868.103	22249
868.233	22242
868.364	22337
868.495	22428
868.625	22322
868.756	22550
868.886	22436
869.017	22409
869.147	22542
869.278	22596
869.408	22519
869.539	22367
869.669	22557
869.799	22409
869.929	22637
870.06	22478
870.19	22767
870.32	22721
870.45	22790
870.58	22797
870.71	22949
870.84	22976
870.97	22889
871.1	22786
871.23	22995
871.36	23025
871.489	22930
871.619	23098
871.749	23037
871.879	23064
872.008	23162
872.138	23083
872.267	23109
872.397	22858
872.526	22835
872.656	22900
872.785	22911
872.915	23159
873.044	23003
873.173	23155
873.303	23060
873.432	23155
873.561	23155
873.69	23105
873.819	23071
873.948	23166
874.077	23018
874.206	23128
874.335	23022
874.464	23113
874.593	23315
874.722	23231
874.851	23436
874.979	23436
875.108	23490
875.237	23200
875.365	23166
875.494	23204
875.623	23467
875.751	23235
875.88	23311
876.008	23440
876.136	23543
876.265	23661
876.393	23611
876.521	23687
876.65	23794
876.778	23745
876.906	23592
877.034	23562
877.162	23558
877.29	23539
877.418	23665
877.546	23672
877.674	23653
877.802	23501
877.93	23573
878.058	23592
878.185	23463
878.313	23589
878.441	23589
878.568	23387
878.696	23505
878.824	23608
878.951	23619
879.079	23840
879.206	23836
879.333	23798
879.461	23687
879.588	23665
879.715	23695
879.842	23920
879.97	23699
880.097	23315
880.224	23296
880.351	23471
880.478	23520
880.605	23372
880.732	23509
880.859	23501
880.986	23474
881.112	23353
881.239	23505
881.366	23200
881.493	23071
881.619	23048
881.746	23083
881.872	23033
881.999	22980
882.125	22904
882.252	22991
882.378	22919
882.505	23075
882.631	22900
882.757	22557
882.883	22797
883.01	22557
883.136	22645
883.262	22660
883.388	22538
883.514	22660
883.64	22736
883.766	22554
883.892	22493
884.018	22413
884.143	22672
884.269	22706
884.395	22466
884.52	22242
884.646	22253
884.772	22207
884.897	22131
885.023	22405
885.148	22398
885.274	22280
885.399	22459
885.524	22295
885.65	22295
885.775	22234
885.9	22154
886.025	22417
886.15	22421
886.275	22306
886.4	22303
886.525	22177
886.65	22234
886.775	22215
886.9	22329
887.025	22550
887.149	22261
887.274	22063
887.399	22162
887.523	22093
887.648	22010
887.773	21960
887.897	22101
888.021	22082
888.146	21994
888.27	22143
888.395	22086
888.519	22040
888.643	22032
888.767	22097
888.891	21975
889.015	21819
889.139	21903
889.263	21934
889.387	22029
889.511	22109
889.635	21960
889.759	21907
889.883	21861
890.006	21880
890.13	21797
890.254	21682
890.377	21705
890.501	21625
890.624	21447
890.748	21580
890.871	21348
890.995	21306
891.118	21386
891.241	21298
891.364	21416
891.488	21466
891.611	21401
891.734	21329
891.857	21481
891.98	21359
892.103	21408
892.226	21264
892.349	21260
892.471	21173
892.594	21268
892.717	21302
892.839	21355
892.962	21367
893.085	21264
893.207	21173
893.33	21127
893.452	21150
893.575	21222
893.697	21199
893.819	21477
893.941	21408
894.064	21428
894.186	21157
894.308	21211
894.43	21359
894.552	21435
894.674	21329
894.796	21154
894.918	21233
895.04	21169
895.161	21294
895.283	21188
895.405	21188
895.526	21180
895.648	21142
895.769	21378
895.891	21195
896.012	21351
896.134	21367
896.255	21275
896.376	21127
896.498	21249
896.619	21230
896.74	21310
896.861	21325
896.982	21618
897.103	21785
897.224	21603
897.345	21469
897.466	21325
897.587	21359
897.708	21576
897.828	21561
897.949	21359
898.07	21233
898.19	21450
898.311	21595
898.431	21348
898.552	21424
898.672	21519
898.792	21485
898.913	21424
899.033	21283
899.153	21237
899.273	21108
899.393	21116
899.513	21218
899.633	21142
899.753	21131
899.873	21024
899.993	21161
900.113	21051
900.232	21066
900.352	20967
900.472	20807
900.591	20777
900.711	20998
900.83	20925
900.95	20941
901.069	21028
901.189	20811
901.308	20488
901.427	20442
901.546	20431
901.665	20461
901.784	20488
901.904	20374
902.023	20199
902.141	19986
902.26	19955
902.379	19959
902.498	19928
902.617	19917
902.735	19947
902.854	19864
902.973	19753
903.091	19670
903.21	19674
903.328	19632
903.446	19521
903.565	19441
903.683	19369
903.801	19270
903.919	19400
904.038	19464
904.156	19171
904.274	19289
904.392	19084
904.51	19091
904.627	19076
904.745	19190
904.863	19179
904.981	18954
905.098	18795
905.216	18776
905.334	18837
905.451	18821
905.569	18764
905.686	18787
905.803	18741
905.921	18639
906.038	18665
906.155	18696
906.272	18452
906.389	18456
906.506	18327
906.623	18300
906.74	18308
906.857	18133
906.974	18251
907.091	18399
907.208	18399
907.324	18350
907.441	18216
907.557	18091
907.674	17977
907.79	17908
907.907	17977
908.023	18045
908.139	17950
908.256	17965
908.372	17874
908.488	17882
908.604	17794
908.72	17680
908.836	17684
908.952	17627
909.068	17764
909.184	17821
909.3	17608
909.415	17703
909.531	17657
909.647	17360
909.762	17391
909.878	17471
909.993	17349
910.108	17296
910.224	17341
910.339	17368
910.454	17174
910.57	17109
910.685	17136
910.8	17455
910.915	17235
911.03	17086
911.145	17064
911.259	16949
911.374	16938
911.489	16850
911.604	16740
911.718	16733
911.833	16687
911.947	16611
912.062	16504
912.176	16717
912.291	16683
912.405	16691
912.519	16900
912.633	16774
912.748	16729
912.862	16634
912.976	16489
913.09	16386
913.204	16455
913.318	16382
913.431	16637
913.545	16523
913.659	16607
913.772	16443
913.886	16284
914	16261
914.113	16413
914.226	16249
914.34	16280
914.453	16086
914.566	16337
914.68	16215
914.793	16032
914.906	15857
915.019	15857
915.132	15865
915.245	15884
915.358	15865
915.47	15888
915.583	15808
915.696	15857
915.809	15934
915.921	15926
916.034	15816
916.146	15728
916.259	15698
916.371	15846
916.483	15739
916.595	15679
916.708	15652
916.82	15747
916.932	15610
917.044	15580
917.156	15679
917.268	15431
917.38	15447
917.491	15466
917.603	15450
917.715	15545
917.826	15568
917.938	15275
918.049	15256
918.161	15351
918.272	15500
918.384	15523
918.495	15321
918.606	15294
918.717	15123
918.828	15142
918.939	15123
919.05	15123
919.161	15161
919.272	14895
919.383	15047
919.494	15138
919.604	15325
919.715	15157
919.826	15100
919.936	15138
920.047	15230
920.157	15218
920.267	15241
920.378	15249
920.488	15028
920.598	15203
920.708	15428
920.818	15321
920.928	15195
921.038	15397
921.148	15374
921.258	15112
921.368	14929
921.477	14941
921.587	14842
921.697	14705
921.806	14823
921.916	14773
922.025	14454
922.134	14438
922.244	14434
922.353	14476
922.462	14358
922.571	14351
922.68	14031
922.789	14039
922.898	14031
923.007	14084
923.116	14161
923.224	14046
923.333	14046
923.442	13879
923.55	13864
923.659	13936
923.767	13997
923.876	13818
923.984	13909
924.092	13811
924.201	13902
924.309	13932
924.417	13761
924.525	13700
924.633	13708
924.741	14712
924.849	13586
924.956	13750
925.064	13548
925.172	13438
925.279	13544
925.387	13483
925.494	13529
925.602	13556
925.709	13552
925.816	13346
925.924	13510
926.031	13430
926.138	13441
926.245	13453
926.352	13426
926.459	13502
926.566	13449
926.673	13331
926.779	13137
926.886	13175
926.993	13107
927.099	12985
927.206	12935
927.312	12890
927.419	13004
927.525	12962
927.631	13072
927.737	12894
927.843	12859
927.95	12715
928.056	12806
928.162	12817
928.267	12810
928.373	13419
928.479	12913
928.585	12662
928.69	12837
928.796	12848
928.901	12684
929.007	12555
929.112	12662
929.218	12574
929.323	12559
929.428	12521
929.533	12684
929.638	12513
929.743	12490
929.848	12502
929.953	12483
930.058	12388
930.163	12273
930.267	12239
930.372	12365
930.477	12129
930.581	12433
930.685	12258
930.79	12038
930.894	12087
930.998	11954
931.103	12133
931.207	11764
931.311	11760
931.415	11649
931.519	11414
931.623	11429
