Data from test_V78500241_2404.txt Node
Date: Fri Mar 25 15:58:27 CST 2022
User: usil
Spectrometer: V785-0024
Trigger mode: 0
Integration Time (sec): 4.000000E-1
Scans to average: 1
Nonlinearity correction enabled: false
Boxcar width: 0
Storing dark spectrum: false
XAxis mode: Wavelengths
Number of Pixels in Spectrum: 1024
>>>>>Begin Spectral Data<<<<<
801.071	28109
801.214	28070
801.356	27838
801.499	27736
801.641	27732
801.783	27671
801.926	27686
802.068	27580
802.211	27618
802.353	27591
802.496	27401
802.638	27237
802.78	27287
802.923	27245
803.065	27332
803.208	27165
803.35	27386
803.492	27325
803.635	27526
803.777	27408
803.919	27485
804.061	27827
804.204	27663
804.346	27424
804.488	27416
804.63	27568
804.773	27504
804.915	27492
805.057	27675
805.199	27568
805.341	27557
805.483	27720
805.626	27606
805.768	27412
805.91	27671
806.052	27644
806.194	27553
806.336	27774
806.478	27816
806.62	27717
806.762	27831
806.904	27926
807.046	28169
807.188	28105
807.33	28086
807.472	28101
807.614	28082
807.756	28238
807.898	28021
808.04	28013
808.182	27766
808.324	27964
808.465	28029
808.607	28112
808.749	28188
808.891	28348
809.033	28611
809.174	28432
809.316	28367
809.458	28291
809.6	28299
809.741	28401
809.883	28401
810.025	28493
810.166	28550
810.308	28630
810.45	28462
810.591	28356
810.733	28382
810.875	28249
811.016	28246
811.158	28223
811.299	28371
811.441	28421
811.582	28478
811.724	28257
811.865	28322
812.007	28344
812.148	28295
812.29	28405
812.431	28379
812.573	28634
812.714	28733
812.855	28698
812.997	28839
813.138	29155
813.279	28835
813.421	28915
813.562	28839
813.703	28622
813.845	28489
813.986	28204
814.127	28109
814.268	28036
814.41	27975
814.551	27945
814.692	28067
814.833	27918
814.974	27926
815.115	28131
815.256	27850
815.397	27926
815.539	27759
815.68	27770
815.821	27595
815.962	27819
816.103	27804
816.244	27694
816.385	27701
816.526	27633
816.666	27435
816.807	27176
816.948	27466
817.089	27405
817.23	27325
817.371	27264
817.512	27237
817.653	27192
817.793	27116
817.934	27279
818.075	27321
818.216	27389
818.356	27287
818.497	27260
818.638	26998
818.778	27058
818.919	27203
819.06	27154
819.2	27142
819.341	27123
819.481	27165
819.622	27568
819.762	27530
819.903	27511
820.043	27504
820.184	27507
820.324	27355
820.465	27488
820.605	27393
820.746	27450
820.886	27283
821.026	27389
821.167	27233
821.307	27317
821.447	27230
821.588	27119
821.728	27093
821.868	26883
822.008	26720
822.149	26651
822.289	26746
822.429	26568
822.569	26495
822.709	26381
822.849	26358
822.99	26267
823.13	26259
823.27	26191
823.41	25974
823.55	25982
823.69	26046
823.83	26111
823.97	26050
824.11	25932
824.25	25799
824.389	25833
824.529	25966
824.669	25993
824.809	25959
824.949	25955
825.089	26096
825.228	26016
825.368	25746
825.508	25837
825.648	25734
825.787	25803
825.927	25776
826.067	25689
826.206	25772
826.346	25811
826.485	25826
826.625	25769
826.765	25879
826.904	25761
827.044	25647
827.183	25453
827.323	25506
827.462	25639
827.601	25403
827.741	25487
827.88	25483
828.02	25407
828.159	25597
828.298	25468
828.437	25510
828.577	25377
828.716	25590
828.855	25308
828.994	25240
829.134	25137
829.273	25259
829.412	25122
829.551	25031
829.69	25301
829.829	25114
829.968	25232
830.107	25133
830.246	25247
830.385	25088
830.524	25080
830.663	24905
830.802	24943
830.941	24779
831.08	24901
831.219	24916
831.357	24928
831.496	24962
831.635	24726
831.774	24692
831.913	24673
832.051	24498
832.19	24574
832.329	24441
832.467	24467
832.606	24346
832.744	24289
832.883	24521
833.022	24414
833.16	24479
833.299	24452
833.437	24460
833.576	24357
833.714	24566
833.852	24589
833.991	24445
834.129	24684
834.267	24532
834.406	24479
834.544	24452
834.682	24612
834.821	24418
834.959	24608
835.097	24544
835.235	24525
835.373	24410
835.511	24525
835.65	24308
835.788	24338
835.926	24155
836.064	24041
836.202	24095
836.34	24342
836.478	24308
836.615	24281
836.753	24300
836.891	24502
837.029	24277
837.167	24300
837.305	24323
837.443	24308
837.58	24121
837.718	24155
837.856	24243
837.993	24121
838.131	24220
838.269	24034
838.406	23969
838.544	24018
838.681	23668
838.819	23802
838.956	23805
839.094	23653
839.231	23718
839.369	23691
839.506	23946
839.643	23920
839.781	23752
839.918	23535
840.055	23630
840.193	23627
840.33	23524
840.467	23619
840.604	23726
840.742	23802
840.879	23448
841.016	23444
841.153	23585
841.29	23638
841.427	23459
841.564	23539
841.701	23471
841.838	23421
841.975	23467
842.112	23505
842.249	23337
842.385	23277
842.522	23528
842.659	23376
842.796	23258
842.933	23299
843.069	23353
843.206	23220
843.343	23315
843.479	23273
843.616	23349
843.752	23037
843.889	23075
844.025	23174
844.162	22953
844.298	23197
844.435	22980
844.571	23033
844.708	23014
844.844	23311
844.98	23212
845.117	23124
845.253	23075
845.389	22923
845.525	22980
845.661	22885
845.798	22866
845.934	22866
846.07	22847
846.206	22809
846.342	23006
846.478	22790
846.614	22626
846.75	22440
846.886	22596
847.022	22649
847.158	22611
847.294	22489
847.429	22577
847.565	22455
847.701	22771
847.837	22371
847.972	22284
848.108	22272
848.244	22257
848.379	22097
848.515	22124
848.65	22192
848.786	22021
848.921	22181
849.057	22291
849.192	22337
849.328	22261
849.463	22105
849.598	22192
849.734	21975
849.869	21991
850.004	21918
850.14	21846
850.275	21854
850.41	21816
850.545	21846
850.68	21861
850.815	21903
850.95	21823
851.085	21941
851.22	21983
851.355	21956
851.49	21861
851.625	21888
851.76	21804
851.895	21876
852.03	21751
852.165	22017
852.299	21930
852.434	21975
852.569	21915
852.703	21911
852.838	21797
852.973	22051
853.107	21987
853.242	21819
853.376	21762
853.511	21690
853.645	21587
853.78	21781
853.914	21751
854.048	21595
854.183	21759
854.317	21641
854.451	21865
854.585	21789
854.72	21656
854.854	21679
854.988	21709
855.122	21759
855.256	21580
855.39	21614
855.524	21766
855.658	21774
855.792	21747
855.926	21793
856.06	21732
856.194	21816
856.327	21694
856.461	21583
856.595	21606
856.729	21728
856.862	21842
856.996	21705
857.13	21747
857.263	21873
857.397	21778
857.53	21686
857.664	21739
857.797	21732
857.931	21743
858.064	21785
858.197	22055
858.331	21675
858.464	21564
858.597	21762
858.731	21675
858.864	21713
858.997	21667
859.13	21762
859.263	21682
859.396	21797
859.529	21625
859.662	21675
859.795	21644
859.928	21736
860.061	21808
860.194	21956
860.327	21751
860.46	21690
860.592	21831
860.725	21903
860.858	21842
860.99	21724
861.123	21625
861.256	21583
861.388	21652
861.521	22455
861.653	21477
861.786	21454
861.918	21561
862.05	21530
862.183	21694
862.315	21625
862.447	21694
862.58	21629
862.712	21473
862.844	21340
862.976	21450
863.108	21496
863.24	21922
863.372	21370
863.504	21332
863.636	21435
863.768	21557
863.9	21416
864.032	21424
864.164	21401
864.296	21469
864.428	21583
864.559	21481
864.691	21526
864.823	21336
864.954	21443
865.086	21306
865.217	21340
865.349	21298
865.48	21287
865.612	21298
865.743	21492
865.875	21260
866.006	21180
866.137	21393
866.269	21310
866.4	21306
866.531	21291
866.662	21207
866.793	21279
866.924	21218
867.055	21332
867.186	21287
867.317	21192
867.448	21131
867.579	21279
867.71	21173
867.841	21199
867.972	21298
868.103	21233
868.233	21218
868.364	21249
868.495	21363
868.625	21500
868.756	21530
868.886	21351
869.017	21469
869.147	21583
869.278	21671
869.408	21481
869.539	21477
869.669	21477
869.799	21534
869.929	21667
870.06	21481
870.19	21755
870.32	21766
870.45	21876
870.58	21751
870.71	22044
870.84	21937
870.97	21854
871.1	21865
871.23	22070
871.36	22158
871.489	21949
871.619	22006
871.749	22078
871.879	22150
872.008	22261
872.138	22101
872.267	22082
872.397	22013
872.526	21949
872.656	22074
872.785	21705
872.915	22101
873.044	22139
873.173	22169
873.303	22120
873.432	22166
873.561	22082
873.69	22093
873.819	22010
873.948	22204
874.077	22204
874.206	22048
874.335	22120
874.464	22265
874.593	22299
874.722	22219
874.851	22371
874.979	22284
875.108	22318
875.237	22200
875.365	22204
875.494	22246
875.623	22428
875.751	22306
875.88	22314
876.008	22489
876.136	22481
876.265	22790
876.393	22824
876.521	22782
876.65	22839
876.778	22656
876.906	22710
877.034	22641
877.162	22710
877.29	22611
877.418	22702
877.546	22816
877.674	22675
877.802	22691
877.93	22752
878.058	22649
878.185	22580
878.313	22462
878.441	22698
878.568	22546
878.696	22656
878.824	22721
878.951	22759
879.079	22968
879.206	22927
879.333	22801
879.461	22717
879.588	22683
879.715	22767
879.842	22972
879.97	22721
880.097	22584
880.224	22527
880.351	22497
880.478	22504
880.605	22542
880.732	22455
880.859	22645
880.986	22485
881.112	22470
881.239	22322
881.366	22295
881.493	22268
881.619	22116
881.746	22090
881.872	22181
881.999	22055
882.125	22017
882.252	22029
882.378	22029
882.505	22090
882.631	21873
882.757	21793
882.883	21854
883.01	21778
883.136	21728
883.262	21603
883.388	21660
883.514	21831
883.64	21857
883.766	21701
883.892	21507
884.018	21538
884.143	21709
884.269	21838
884.395	21564
884.52	21401
884.646	21477
884.772	21344
884.897	21348
885.023	21336
885.148	21450
885.274	21553
885.399	21576
885.524	21397
885.65	21363
885.775	21306
885.9	21340
886.025	21568
886.15	21538
886.275	21443
886.4	21332
886.525	21367
886.65	21203
886.775	21283
886.9	21496
887.025	21580
887.149	21389
887.274	21173
887.399	21081
887.523	21184
887.648	21127
887.773	21036
887.897	21192
888.021	21108
888.146	21089
888.27	21279
888.395	21150
888.519	21256
888.643	21173
888.767	21199
888.891	21127
889.015	20910
889.139	20914
889.263	21028
889.387	21123
889.511	21036
889.635	21081
889.759	20902
889.883	20986
890.006	20891
890.13	21028
890.254	20937
890.377	20933
890.501	20800
890.624	20826
890.748	20735
890.871	20457
890.995	20537
891.118	20457
891.241	20590
891.364	20526
891.488	20678
891.611	20415
891.734	20423
891.857	20499
891.98	20648
892.103	20476
892.226	20412
892.349	20446
892.471	20271
892.594	20446
892.717	20385
892.839	20446
892.962	20446
893.085	20454
893.207	20438
893.33	20313
893.452	20423
893.575	20484
893.697	20450
893.819	20484
893.941	20571
894.064	20461
894.186	20450
894.308	20415
894.43	20552
894.552	20549
894.674	20431
894.796	20404
894.918	20465
895.04	20442
895.161	20609
895.283	20400
895.405	20229
895.526	20347
895.648	20434
895.769	20465
895.891	20530
896.012	20465
896.134	20511
896.255	20454
896.376	20389
896.498	20358
896.619	20492
896.74	20351
896.861	20495
896.982	20674
897.103	20914
897.224	20689
897.345	20735
897.466	20640
897.587	20689
897.708	20720
897.828	20727
897.949	20530
898.07	20400
898.19	20537
898.311	20693
898.431	20613
898.552	20613
898.672	20594
898.792	20697
898.913	20705
899.033	20446
899.153	20450
899.273	20370
899.393	20301
899.513	20355
899.633	20301
899.753	20507
899.873	20256
899.993	20355
900.113	20301
900.232	20358
900.352	20278
900.472	20256
900.591	20088
900.711	20157
900.83	19970
900.95	20237
901.069	20317
901.189	19940
901.308	19909
901.427	19761
901.546	19738
901.665	19734
901.784	19719
901.904	19575
902.023	19499
902.141	19255
902.26	19362
902.379	19365
902.498	19225
902.617	19327
902.735	19320
902.854	19293
902.973	19225
903.091	18894
903.21	18928
903.328	18943
903.446	18741
903.565	18734
903.683	18821
903.801	18627
903.919	18783
904.038	18677
904.156	18532
904.274	18506
904.392	18563
904.51	18448
904.627	18429
904.745	18585
904.863	18525
904.981	18247
905.098	18102
905.216	18049
905.334	18254
905.451	18159
905.569	18041
905.686	18220
905.803	18133
905.921	17961
906.038	18060
906.155	17931
906.272	17882
906.389	17843
906.506	17756
906.623	17699
906.74	17577
906.857	17547
906.974	17608
907.091	17718
907.208	17779
907.324	17748
907.441	17623
907.557	17387
907.674	17395
907.79	17280
907.907	17296
908.023	17589
908.139	17326
908.256	17288
908.372	17280
908.488	17239
908.604	17048
908.72	17143
908.836	17181
908.952	17075
909.068	17098
909.184	17136
909.3	17121
909.415	17113
909.531	17060
909.647	16908
909.762	16900
909.878	16782
909.993	16683
910.108	16809
910.224	16786
910.339	16755
910.454	16618
910.57	16580
910.685	16508
910.8	16786
910.915	16706
911.03	16656
911.145	16413
911.259	16443
911.374	16348
911.489	16284
911.604	16268
911.718	16139
911.833	16109
911.947	16010
912.062	16006
912.176	16158
912.291	16169
912.405	16124
912.519	16272
912.633	16280
912.748	16242
912.862	16131
912.976	16063
913.09	15838
913.204	15865
913.318	15930
913.431	16040
913.545	16002
913.659	16120
913.772	15903
913.886	15686
914	15781
914.113	15831
914.226	15823
914.34	15835
914.453	15561
914.566	15739
914.68	15629
914.793	15599
914.906	15458
915.019	15393
915.132	15367
915.245	15401
915.358	15374
915.47	15450
915.583	15310
915.696	15397
915.809	15511
915.921	15526
916.034	15302
916.146	15207
916.259	15302
916.371	15302
916.483	15344
916.595	15135
916.708	15249
916.82	15157
916.932	15154
917.044	15211
917.156	15020
917.268	15085
917.38	15074
917.491	14944
917.603	14986
917.715	14982
917.826	15089
917.938	14902
918.049	14823
918.161	14982
918.272	15058
918.384	15028
918.495	14990
918.606	14845
918.717	14629
918.828	14807
918.939	14834
919.05	14632
919.161	14716
919.272	14552
919.383	14537
919.494	14754
919.604	15005
919.715	14754
919.826	14651
919.936	14792
920.047	14792
920.157	14796
920.267	14933
920.378	14720
920.488	14663
920.598	14921
920.708	15081
920.818	14845
920.928	14906
921.038	14986
921.148	15013
921.258	14689
921.368	14511
921.477	14537
921.587	14476
921.697	14252
921.806	14541
921.916	14282
922.025	14164
922.134	14119
922.244	14153
922.353	14081
922.462	13989
922.571	13864
922.68	13776
922.789	13643
922.898	13731
923.007	13791
923.116	13757
923.224	13788
923.333	13818
923.442	13708
923.55	13658
923.659	13552
923.767	13670
923.876	13548
923.984	13636
924.092	13544
924.201	13525
924.309	13499
924.417	13438
924.525	13419
924.633	13407
924.741	14233
924.849	13194
924.956	13308
925.064	13202
925.172	13152
925.279	13175
925.387	13088
925.494	13194
925.602	13255
925.709	13175
925.816	13069
925.924	13137
926.031	13221
926.138	13164
926.245	13145
926.352	13027
926.459	13080
926.566	13278
926.673	12981
926.779	12932
926.886	12932
926.993	12768
927.099	12745
927.206	12654
927.312	12684
927.419	12715
927.525	12833
927.631	12772
927.737	12616
927.843	12620
927.95	12502
928.056	12532
928.162	12494
928.267	12547
928.373	13247
928.479	12570
928.585	12273
928.69	12479
928.796	12536
928.901	12414
929.007	12327
929.112	12467
929.218	12296
929.323	12300
929.428	12342
929.533	12448
929.638	12155
929.743	12232
929.848	12266
929.953	12155
930.058	12007
930.163	11927
930.267	11965
930.372	12171
930.477	11836
930.581	12110
930.685	12015
930.79	11836
930.894	11851
930.998	11840
931.103	12007
931.207	11528
931.311	11493
931.415	11440
931.519	11254
931.623	11204
