Data from test_V78500241_907.txt Node
Date: Fri Mar 25 15:48:05 CST 2022
User: usil
Spectrometer: V785-0024
Trigger mode: 0
Integration Time (sec): 4.000000E-1
Scans to average: 1
Nonlinearity correction enabled: false
Boxcar width: 0
Storing dark spectrum: false
XAxis mode: Wavelengths
Number of Pixels in Spectrum: 1024
>>>>>Begin Spectral Data<<<<<
801.071	27812
801.214	27812
801.356	27526
801.499	27382
801.641	27351
801.783	27355
801.926	27447
802.068	27401
802.211	27272
802.353	27214
802.496	27020
802.638	26921
802.78	26929
802.923	26979
803.065	26933
803.208	26746
803.35	26933
803.492	27066
803.635	27176
803.777	27051
803.919	27256
804.061	27462
804.204	27291
804.346	27074
804.488	26982
804.63	27104
804.773	27066
804.915	27332
805.057	27424
805.199	27119
805.341	27195
805.483	27393
805.626	27363
805.768	27119
805.91	27351
806.052	27393
806.194	27279
806.336	27591
806.478	27348
806.62	27336
806.762	27519
806.904	27599
807.046	27827
807.188	27606
807.33	27766
807.472	27838
807.614	27797
807.756	27751
807.898	27538
808.04	27633
808.182	27447
808.324	27644
808.465	27759
808.607	27755
808.749	27972
808.891	27914
809.033	28169
809.174	27991
809.316	27766
809.458	27876
809.6	27823
809.741	28109
809.883	28059
810.025	28265
810.166	28192
810.308	28261
810.45	28143
810.591	28196
810.733	28063
810.875	28006
811.016	27953
811.158	27903
811.299	28036
811.441	28173
811.582	28272
811.724	28059
811.865	27953
812.007	27972
812.148	27956
812.29	27983
812.431	28265
812.573	28341
812.714	28398
812.855	28516
812.997	28645
813.138	28733
813.279	28660
813.421	28440
813.562	28615
813.703	28341
813.845	28143
813.986	27880
814.127	27785
814.268	27705
814.41	27850
814.551	27751
814.692	27747
814.833	27599
814.974	27774
815.115	27819
815.256	27553
815.397	27622
815.539	27549
815.68	27492
815.821	27378
815.962	27393
816.103	27466
816.244	27344
816.385	27252
816.526	27268
816.666	27093
816.807	27028
816.948	27001
817.089	27112
817.23	26944
817.371	26918
817.512	27051
817.653	26906
817.793	26876
817.934	26887
818.075	27020
818.216	26887
818.356	26956
818.497	26849
818.638	26743
818.778	26583
818.919	26727
819.06	26724
819.2	26845
819.341	26940
819.481	26940
819.622	26902
819.762	27154
819.903	27116
820.043	27119
820.184	27070
820.324	27127
820.465	27020
820.605	27058
820.746	27096
820.886	26887
821.026	27146
821.167	26880
821.307	27096
821.447	26944
821.588	26921
821.728	26720
821.868	26507
822.008	26533
822.149	26415
822.289	26533
822.429	26199
822.569	26001
822.709	26122
822.849	25909
822.99	25940
823.13	25818
823.27	25913
823.41	25670
823.55	25582
823.69	25769
823.83	25784
823.97	25639
824.11	25540
824.25	25495
824.389	25556
824.529	25647
824.669	25525
824.809	25616
824.949	25807
825.089	25769
825.228	25719
825.368	25293
825.508	25521
825.648	25422
825.787	25400
825.927	25445
826.067	25403
826.206	25438
826.346	25525
826.485	25426
826.625	25441
826.765	25578
826.904	25491
827.044	25301
827.183	25232
827.323	25152
827.462	25164
827.601	25190
827.741	25171
827.88	25209
828.02	24992
828.159	25042
828.298	25198
828.437	25278
828.577	25088
828.716	25285
828.855	25023
828.994	24802
829.134	24795
829.273	24939
829.412	24787
829.551	24814
829.69	24958
829.829	24871
829.968	24932
830.107	24970
830.246	24871
830.385	24901
830.524	24795
830.663	24563
830.802	24498
830.941	24384
831.08	24361
831.219	24566
831.357	24604
831.496	24608
831.635	24369
831.774	24300
831.913	24414
832.051	24213
832.19	24285
832.329	24258
832.467	24148
832.606	24144
832.744	24011
832.883	24174
833.022	24049
833.16	24068
833.299	24182
833.437	24167
833.576	24060
833.714	24327
833.852	24140
833.991	24224
834.129	24308
834.267	24190
834.406	24174
834.544	24106
834.682	24201
834.821	24152
834.959	24281
835.097	24110
835.235	24106
835.373	24213
835.511	24110
835.65	24068
835.788	24015
835.926	23882
836.064	23832
836.202	23798
836.34	23977
836.478	24038
836.615	23954
836.753	24083
836.891	24129
837.029	24114
837.167	23889
837.305	23977
837.443	23916
837.58	23771
837.718	23961
837.856	23885
837.993	23752
838.131	23855
838.269	23695
838.406	23756
838.544	23627
838.681	23421
838.819	23490
838.956	23212
839.094	23318
839.231	23280
839.369	23539
839.506	23630
839.643	23630
839.781	23364
839.918	23151
840.055	23273
840.193	23303
840.33	23273
840.467	23273
840.604	23284
840.742	23376
840.879	23056
841.016	23102
841.153	23121
841.29	23391
841.427	23235
841.564	23296
841.701	23220
841.838	23273
841.975	23113
842.112	23090
842.249	23022
842.385	23003
842.522	23235
842.659	23132
842.796	22991
842.933	23022
843.069	22972
843.206	23003
843.343	22991
843.479	22980
843.616	23052
843.752	22805
843.889	22873
844.025	22843
844.162	22645
844.298	22771
844.435	22809
844.571	22767
844.708	22729
844.844	23003
844.98	22934
845.117	22908
845.253	22706
845.389	22599
845.525	22675
845.661	22615
845.798	22580
845.934	22557
846.07	22371
846.206	22519
846.342	22615
846.478	22516
846.614	22215
846.75	22169
846.886	22185
847.022	22356
847.158	22124
847.294	22322
847.429	22166
847.565	22147
847.701	22443
847.837	21865
847.972	21945
848.108	21926
848.244	21975
848.379	21861
848.515	21762
848.65	21926
848.786	21800
848.921	21751
849.057	21972
849.192	21831
849.328	21842
849.463	21812
849.598	21778
849.734	21739
849.869	21762
850.004	21557
850.14	21663
850.275	21511
850.41	21431
850.545	21401
850.68	21450
850.815	21614
850.95	21458
851.085	21694
851.22	21705
851.355	21523
851.49	21538
851.625	21511
851.76	21511
851.895	21405
852.03	21526
852.165	21648
852.299	21637
852.434	21599
852.569	21618
852.703	21557
852.838	21682
852.973	21720
853.107	21587
853.242	21530
853.376	21545
853.511	21230
853.645	21401
853.78	21538
853.914	21386
854.048	21462
854.183	21336
854.317	21401
854.451	21641
854.585	21336
854.72	21329
854.854	21435
854.988	21310
855.122	21340
855.256	21294
855.39	21294
855.524	21469
855.658	21458
855.792	21485
855.926	21424
856.06	21435
856.194	21458
856.327	21389
856.461	21291
856.595	21302
856.729	21424
856.862	21530
856.996	21359
857.13	21580
857.263	21564
857.397	21469
857.53	21329
857.664	21458
857.797	21492
857.931	21530
858.064	21386
858.197	21466
858.331	21416
858.464	21458
858.597	21321
858.731	21450
858.864	21340
858.997	21389
859.13	21500
859.263	21416
859.396	21576
859.529	21397
859.662	21408
859.795	21401
859.928	21492
860.061	21504
860.194	21667
860.327	21507
860.46	21378
860.592	21545
860.725	21553
860.858	21545
860.99	21424
861.123	21348
861.256	21321
861.388	21344
861.521	22204
861.653	21310
861.786	21252
861.918	21199
862.05	21355
862.183	21310
862.315	21397
862.447	21466
862.58	21405
862.712	21169
862.844	21237
862.976	21313
863.108	21184
863.24	21504
863.372	21066
863.504	21176
863.636	21093
863.768	21077
863.9	21260
864.032	20963
864.164	21169
864.296	21279
864.428	21207
864.559	21188
864.691	21207
864.823	21226
864.954	21127
865.086	21127
865.217	21058
865.349	20956
865.48	21165
865.612	21077
865.743	21184
865.875	20986
866.006	20956
866.137	21074
866.269	20914
866.4	20994
866.531	21036
866.662	20941
866.793	21024
866.924	20933
867.055	21005
867.186	21005
867.317	20982
867.448	20880
867.579	20979
867.71	20918
867.841	20864
867.972	20982
868.103	20967
868.233	21051
868.364	21051
868.495	21192
868.625	21260
868.756	21188
868.886	21135
869.017	21165
869.147	21241
869.278	21397
869.408	21351
869.539	21222
869.669	21165
869.799	21313
869.929	21393
870.06	21249
870.19	21534
870.32	21595
870.45	21519
870.58	21698
870.71	21591
870.84	21648
870.97	21572
871.1	21603
871.23	21857
871.36	21869
871.489	21713
871.619	21785
871.749	21759
871.879	21915
872.008	21907
872.138	21781
872.267	21846
872.397	21595
872.526	21644
872.656	21686
872.785	21743
872.915	21755
873.044	21888
873.173	21846
873.303	21835
873.432	21922
873.561	21949
873.69	21747
873.819	21808
873.948	21831
874.077	21850
874.206	21797
874.335	21778
874.464	21876
874.593	22112
874.722	22006
874.851	21994
874.979	22143
875.108	21991
875.237	22082
875.365	22032
875.494	22055
875.623	22063
875.751	22029
875.88	21983
876.008	22238
876.136	22139
876.265	22546
876.393	22573
876.521	22516
876.65	22504
876.778	22417
876.906	22504
877.034	22398
877.162	22436
877.29	22291
877.418	22462
877.546	22440
877.674	22382
877.802	22299
877.93	22405
878.058	22284
878.185	22261
878.313	22261
878.441	22379
878.568	22200
878.696	22417
878.824	22459
878.951	22577
879.079	22542
879.206	22668
879.333	22561
879.461	22352
879.588	22466
879.715	22554
879.842	22580
879.97	22421
880.097	22173
880.224	22234
880.351	22246
880.478	22226
880.605	22101
880.732	22173
880.859	22413
880.986	22124
881.112	22188
881.239	22093
881.366	21899
881.493	21842
881.619	21728
881.746	21907
881.872	21778
881.999	21705
882.125	21899
882.252	21816
882.378	21873
882.505	21850
882.631	21694
882.757	21511
882.883	21667
883.01	21580
883.136	21511
883.262	21374
883.388	21344
883.514	21405
883.64	21519
883.766	21435
883.892	21123
884.018	21298
884.143	21473
884.269	21587
884.395	21211
884.52	21169
884.646	21165
884.772	21135
884.897	21093
885.023	21245
885.148	21260
885.274	21359
885.399	21264
885.524	21142
885.65	21321
885.775	21047
885.9	21123
886.025	21138
886.15	21275
886.275	21024
886.4	21093
886.525	21058
886.65	21108
886.775	21043
886.9	21233
887.025	21317
887.149	21146
887.274	20982
887.399	20914
887.523	20902
887.648	20842
887.773	20773
887.897	20979
888.021	20910
888.146	20823
888.27	20868
888.395	20998
888.519	21028
888.643	20887
888.767	20891
888.891	20823
889.015	20609
889.139	20857
889.263	20609
889.387	20823
889.511	20883
889.635	20769
889.759	20727
889.883	20648
890.006	20758
890.13	20758
890.254	20575
890.377	20514
890.501	20442
890.624	20438
890.748	20415
890.871	20431
890.995	20244
891.118	20187
891.241	20305
891.364	20286
891.488	20377
891.611	20115
891.734	20324
891.857	20320
891.98	20313
892.103	20370
892.226	20183
892.349	20412
892.471	20035
892.594	20263
892.717	20286
892.839	20275
892.962	20115
893.085	20244
893.207	20142
893.33	19986
893.452	19993
893.575	20191
893.697	20073
893.819	20309
893.941	20267
894.064	20229
894.186	20111
894.308	20088
894.43	20404
894.552	20233
894.674	20233
894.796	20050
894.918	20096
895.04	20202
895.161	20187
895.283	20153
895.405	20077
895.526	20122
895.648	20039
895.769	20225
895.891	20180
896.012	20282
896.134	20126
896.255	20187
896.376	20081
896.498	20275
896.619	20343
896.74	20084
896.861	20259
896.982	20518
897.103	20720
897.224	20492
897.345	20423
897.466	20362
897.587	20488
897.708	20488
897.828	20396
897.949	20248
898.07	20256
898.19	20267
898.311	20423
898.431	20290
898.552	20415
898.672	20377
898.792	20469
898.913	20362
899.033	20267
899.153	20122
899.273	20142
899.393	20191
899.513	20225
899.633	20050
899.753	20180
899.873	20069
899.993	20168
900.113	20008
900.232	20107
900.352	19959
900.472	19925
900.591	19963
900.711	19917
900.83	19883
900.95	19974
901.069	20020
901.189	19807
901.308	19666
901.427	19502
901.546	19438
901.665	19586
901.784	19453
901.904	19422
902.023	19346
902.141	19129
902.26	19023
902.379	19110
902.498	19000
902.617	18901
902.735	18993
902.854	18993
902.973	18894
903.091	18711
903.21	18848
903.328	18711
903.446	18684
903.565	18563
903.683	18494
903.801	18414
903.919	18422
904.038	18365
904.156	18258
904.274	18346
904.392	18334
904.51	18239
904.627	18273
904.745	18296
904.863	18304
904.981	17961
905.098	17950
905.216	17977
905.334	18034
905.451	17927
905.569	17893
905.686	17973
905.803	18026
905.921	17665
906.038	17821
906.155	17707
906.272	17665
906.389	17657
906.506	17478
906.623	17566
906.74	17406
906.857	17353
906.974	17334
907.091	17505
907.208	17505
907.324	17619
907.441	17436
907.557	17162
907.674	17090
907.79	17113
907.907	17174
908.023	17227
908.139	17170
908.256	17098
908.372	17159
908.488	17067
908.604	16942
908.72	16839
908.836	16866
908.952	16892
909.068	16889
909.184	16984
909.3	16900
909.415	16812
909.531	16869
909.647	16687
909.762	16626
909.878	16691
909.993	16637
910.108	16577
910.224	16500
910.339	16561
910.454	16485
910.57	16413
910.685	16329
910.8	16717
910.915	16550
911.03	16402
911.145	16135
911.259	16204
911.374	16226
911.489	16105
911.604	16158
911.718	16074
911.833	15899
911.947	15857
912.062	15701
912.176	16017
912.291	15918
912.405	15892
912.519	16154
912.633	16101
912.748	16078
912.862	15899
912.976	15781
913.09	15724
913.204	15732
913.318	15732
913.431	15850
913.545	15819
913.659	15736
913.772	15717
913.886	15545
914	15618
914.113	15648
914.226	15652
914.34	15625
914.453	15393
914.566	15549
914.68	15401
914.793	15405
914.906	15302
915.019	15123
915.132	15127
915.245	15135
915.358	15112
915.47	15241
915.583	15116
915.696	15157
915.809	15230
915.921	15275
916.034	15005
916.146	15093
916.259	14979
916.371	15154
916.483	15097
916.595	15036
916.708	14986
916.82	15043
916.932	15013
917.044	14956
917.156	14899
917.268	14708
917.38	14781
917.491	14815
917.603	14815
917.715	14868
917.826	14834
917.938	14792
918.049	14735
918.161	14667
918.272	14845
918.384	14807
918.495	14861
918.606	14621
918.717	14469
918.828	14594
918.939	14549
919.05	14511
919.161	14480
919.272	14343
919.383	14389
919.494	14594
919.604	14701
919.715	14514
919.826	14415
919.936	14549
920.047	14678
920.157	14530
920.267	14708
920.378	14533
920.488	14522
920.598	14724
920.708	14705
920.818	14602
920.928	14568
921.038	14796
921.148	14739
921.258	14434
921.368	14381
921.477	14237
921.587	14237
921.697	14172
921.806	14233
921.916	14119
922.025	13898
922.134	13868
922.244	13909
922.353	13982
922.462	13788
922.571	13765
922.68	13544
922.789	13571
922.898	13552
923.007	13540
923.116	13537
923.224	13396
923.333	13502
923.442	13381
923.55	13327
923.659	13403
923.767	13426
923.876	13362
923.984	13400
924.092	13183
924.201	13331
924.309	13324
924.417	13293
924.525	13209
924.633	13225
924.741	14084
924.849	13004
924.956	13293
925.064	13015
925.172	13046
925.279	12970
925.387	13069
925.494	12993
925.602	13118
925.709	13080
925.816	12916
925.924	12901
926.031	12913
926.138	12943
926.245	12981
926.352	12840
926.459	13053
926.566	13042
926.673	12867
926.779	12730
926.886	12738
926.993	12593
927.099	12536
927.206	12521
927.312	12525
927.419	12536
927.525	12662
927.631	12544
927.737	12467
927.843	12479
927.95	12327
928.056	12418
928.162	12445
928.267	12460
928.373	12935
928.479	12441
928.585	12247
928.69	12319
928.796	12285
928.901	12262
929.007	12091
929.112	12292
929.218	12194
929.323	12209
929.428	12129
929.533	12216
929.638	11996
929.743	12133
929.848	12117
929.953	12038
930.058	11843
930.163	11783
930.267	11790
930.372	11961
930.477	11767
930.581	11927
930.685	11828
930.79	11733
930.894	11764
930.998	11718
931.103	11847
931.207	11425
931.311	11326
931.415	11280
931.519	11113
931.623	11098
