Data from test_V78500241_2727.txt Node
Date: Fri Mar 25 16:00:41 CST 2022
User: usil
Spectrometer: V785-0024
Trigger mode: 0
Integration Time (sec): 4.000000E-1
Scans to average: 1
Nonlinearity correction enabled: false
Boxcar width: 0
Storing dark spectrum: false
XAxis mode: Wavelengths
Number of Pixels in Spectrum: 1024
>>>>>Begin Spectral Data<<<<<
801.071	28763
801.214	28710
801.356	28516
801.499	28428
801.641	28379
801.783	28341
801.926	28398
802.068	28341
802.211	28268
802.353	28291
802.496	28074
802.638	28097
802.78	28105
802.923	27895
803.065	27899
803.208	27930
803.35	28116
803.492	28124
803.635	28150
803.777	28055
803.919	28177
804.061	28519
804.204	28261
804.346	28333
804.488	28188
804.63	28192
804.773	28169
804.915	28394
805.057	28436
805.199	28261
805.341	28242
805.483	28462
805.626	28531
805.768	28333
805.91	28432
806.052	28432
806.194	28470
806.336	28615
806.478	28447
806.62	28417
806.762	28512
806.904	28672
807.046	28908
807.188	28797
807.33	28763
807.472	28793
807.614	28854
807.756	28892
807.898	28637
808.04	28653
808.182	28538
808.324	28710
808.465	28725
808.607	28972
808.749	29151
808.891	29349
809.033	29136
809.174	29079
809.316	29090
809.458	29079
809.6	29170
809.741	29185
809.883	29299
810.025	29406
810.166	29501
810.308	29292
810.45	29296
810.591	29246
810.733	29296
810.875	29071
811.016	29048
811.158	28942
811.299	29250
811.441	29265
811.582	29197
811.724	29109
811.865	29117
812.007	29056
812.148	29083
812.29	29254
812.431	29417
812.573	29288
812.714	29539
812.855	29642
812.997	29733
813.138	29874
813.279	29722
813.421	29566
813.562	29604
813.703	29421
813.845	29509
813.986	29075
814.127	28805
814.268	28873
814.41	28839
814.551	28721
814.692	28957
814.833	28771
814.974	28691
815.115	28908
815.256	28603
815.397	28660
815.539	28744
815.68	28710
815.821	28565
815.962	28672
816.103	28580
816.244	28527
816.385	28470
816.526	28447
816.666	28249
816.807	28207
816.948	28196
817.089	28382
817.23	28143
817.371	28230
817.512	28093
817.653	28188
817.793	28139
817.934	28124
818.075	28070
818.216	28185
818.356	28139
818.497	28070
818.638	27941
818.778	27789
818.919	27895
819.06	27941
819.2	28090
819.341	28131
819.481	28253
819.622	28432
819.762	28519
819.903	28459
820.043	28322
820.184	28299
820.324	28333
820.465	28306
820.605	28348
820.746	28314
820.886	28082
821.026	28230
821.167	28143
821.307	28246
821.447	28128
821.588	28124
821.728	28044
821.868	27736
822.008	27667
822.149	27606
822.289	27728
822.429	27439
822.569	27302
822.709	27370
822.849	27119
822.99	27169
823.13	27165
823.27	26956
823.41	26956
823.55	26906
823.69	27028
823.83	26982
823.97	27051
824.11	26701
824.25	26750
824.389	26811
824.529	26967
824.669	26788
824.809	26990
824.949	26857
825.089	26838
825.228	26830
825.368	26765
825.508	26629
825.648	26788
825.787	26765
825.927	26785
826.067	26640
826.206	26708
826.346	26750
826.485	26651
826.625	26781
826.765	26807
826.904	26785
827.044	26377
827.183	26537
827.323	26389
827.462	26438
827.601	26465
827.741	26453
827.88	26343
828.02	26180
828.159	26343
828.298	26442
828.437	26427
828.577	26309
828.716	26617
828.855	26290
828.994	26096
829.134	26096
829.273	26103
829.412	26020
829.551	26119
829.69	26111
829.829	26111
829.968	26202
830.107	26221
830.246	26172
830.385	26054
830.524	26024
830.663	25860
830.802	25723
830.941	25849
831.08	25712
831.219	25769
831.357	25852
831.496	25856
831.635	25780
831.774	25670
831.913	25571
832.051	25445
832.19	25422
832.329	25468
832.467	25468
832.606	25354
832.744	25449
832.883	25449
833.022	25377
833.16	25400
833.299	25365
833.437	25438
833.576	25411
833.714	25343
833.852	25518
833.991	25400
834.129	25529
834.267	25491
834.406	25422
834.544	25472
834.682	25586
834.821	25479
834.959	25556
835.097	25400
835.235	25365
835.373	25350
835.511	25377
835.65	25266
835.788	25327
835.926	25209
836.064	25133
836.202	25171
836.34	25236
836.478	25285
836.615	25228
836.753	25350
836.891	25320
837.029	25244
837.167	25282
837.305	25164
837.443	25148
837.58	25053
837.718	25141
837.856	25110
837.993	25008
838.131	25114
838.269	24920
838.406	24992
838.544	24795
838.681	24753
838.819	24616
838.956	24513
839.094	24494
839.231	24677
839.369	24760
839.506	24848
839.643	24859
839.781	24490
839.918	24570
840.055	24650
840.193	24555
840.33	24300
840.467	24407
840.604	24448
840.742	24612
840.879	24384
841.016	24380
841.153	24353
841.29	24726
841.427	24330
841.564	24555
841.701	24292
841.838	24372
841.975	24426
842.112	24471
842.249	24311
842.385	24338
842.522	24410
842.659	24239
842.796	24155
842.933	24213
843.069	24125
843.206	24152
843.343	24205
843.479	24228
843.616	24205
843.752	24026
843.889	23999
844.025	24125
844.162	24049
844.298	24079
844.435	24087
844.571	23859
844.708	23961
844.844	24289
844.98	24072
845.117	24076
845.253	23942
845.389	23901
845.525	23843
845.661	23866
845.798	23642
845.934	23843
846.07	23741
846.206	23760
846.342	23748
846.478	23745
846.614	23425
846.75	23364
846.886	23417
847.022	23520
847.158	23372
847.294	23417
847.429	23528
847.565	23368
847.701	23649
847.837	23185
847.972	23143
848.108	23353
848.244	23292
848.379	23079
848.515	22999
848.65	22900
848.786	23086
848.921	23090
849.057	23098
849.192	23181
849.328	23155
849.463	23010
849.598	23014
849.734	22900
849.869	23014
850.004	22809
850.14	22767
850.275	22733
850.41	22634
850.545	22683
850.68	22698
850.815	22729
850.95	22809
851.085	22942
851.22	22896
851.355	22889
851.49	22835
851.625	22729
851.76	22869
851.895	22729
852.03	22694
852.165	22683
852.299	22809
852.434	22923
852.569	22774
852.703	22801
852.838	22797
852.973	22987
853.107	22965
853.242	22645
853.376	22645
853.511	22451
853.645	22580
853.78	22752
853.914	22603
854.048	22519
854.183	22569
854.317	22672
854.451	22904
854.585	22641
854.72	22531
854.854	22615
854.988	22641
855.122	22596
855.256	22519
855.39	22599
855.524	22683
855.658	22542
855.792	22637
855.926	22706
856.06	22573
856.194	22622
856.327	22508
856.461	22485
856.595	22573
856.729	22634
856.862	22805
856.996	22687
857.13	22713
857.263	22660
857.397	22744
857.53	22596
857.664	22706
857.797	22706
857.931	22634
858.064	22615
858.197	22774
858.331	22603
858.464	22603
858.597	22470
858.731	22421
858.864	22561
858.997	22538
859.13	22672
859.263	22672
859.396	22641
859.529	22527
859.662	22603
859.795	22561
859.928	22622
860.061	22759
860.194	22869
860.327	22641
860.46	22729
860.592	22710
860.725	22733
860.858	22828
860.99	22618
861.123	22531
861.256	22500
861.388	22596
861.521	23326
861.653	22432
861.786	22440
861.918	22382
862.05	22519
862.183	22596
862.315	22523
862.447	22531
862.58	22599
862.712	22348
862.844	22272
862.976	22421
863.108	22390
863.24	22797
863.372	22219
863.504	22367
863.636	22322
863.768	22310
863.9	22329
864.032	22299
864.164	22333
864.296	22318
864.428	22379
864.559	22375
864.691	22421
864.823	22306
864.954	22257
865.086	22261
865.217	22249
865.349	22211
865.48	22223
865.612	22158
865.743	22261
865.875	22268
866.006	22093
866.137	22242
866.269	22253
866.4	22158
866.531	22139
866.662	22143
866.793	22059
866.924	22166
867.055	22070
867.186	22154
867.317	22055
867.448	22021
867.579	22131
867.71	21994
867.841	22021
867.972	22128
868.103	22002
868.233	22131
868.364	22017
868.495	22169
868.625	22382
868.756	22455
868.886	22219
869.017	22344
869.147	22394
869.278	22474
869.408	22322
869.539	22451
869.669	22379
869.799	22348
869.929	22367
870.06	22405
870.19	22664
870.32	22698
870.45	22599
870.58	22782
870.71	22877
870.84	22736
870.97	22774
871.1	22702
871.23	22877
871.36	22908
871.489	22900
871.619	22927
871.749	22946
871.879	22968
872.008	23033
872.138	22995
872.267	23006
872.397	22892
872.526	22660
872.656	22881
872.785	22839
872.915	22949
873.044	23037
873.173	23022
873.303	23083
873.432	23086
873.561	23052
873.69	22961
873.819	22854
873.948	23014
874.077	22972
874.206	22961
874.335	22892
874.464	23064
874.593	23235
874.722	23170
874.851	23220
874.979	23242
875.108	23098
875.237	23151
875.365	23090
875.494	23181
875.623	23223
875.751	23223
875.88	23189
876.008	23341
876.136	23299
876.265	23638
876.393	23729
876.521	23668
876.65	23707
876.778	23611
876.906	23592
877.034	23528
877.162	23505
877.29	23661
877.418	23528
877.546	23585
877.674	23471
877.802	23539
877.93	23497
878.058	23360
878.185	23440
878.313	23467
878.441	23395
878.568	23356
878.696	23406
878.824	23535
878.951	23528
879.079	23661
879.206	23722
879.333	23710
879.461	23531
879.588	23733
879.715	23642
879.842	23790
879.97	23528
880.097	23303
880.224	23387
880.351	23372
880.478	23303
880.605	23242
880.732	23280
880.859	23520
880.986	23299
881.112	23471
881.239	23124
881.366	23102
881.493	23003
881.619	22881
881.746	22915
881.872	22961
881.999	22763
882.125	22889
882.252	22961
882.378	22797
882.505	22858
882.631	22740
882.757	22634
882.883	22713
883.01	22622
883.136	22550
883.262	22512
883.388	22390
883.514	22592
883.64	22702
883.766	22573
883.892	22390
884.018	22363
884.143	22493
884.269	22641
884.395	22333
884.52	22082
884.646	22223
884.772	22181
884.897	21991
885.023	22211
885.148	22272
885.274	22417
885.399	22360
885.524	22173
885.65	22257
885.775	22055
885.9	22147
886.025	22234
886.15	22242
886.275	22135
886.4	22188
886.525	22101
886.65	22101
886.775	22109
886.9	22310
887.025	22261
887.149	22101
887.274	21979
887.399	21960
887.523	22002
887.648	22006
887.773	21838
887.897	21953
888.021	22150
888.146	21953
888.27	22048
888.395	21991
888.519	21945
888.643	21972
888.767	21918
888.891	21797
889.015	21823
889.139	21819
889.263	21739
889.387	21835
889.511	21926
889.635	21972
889.759	21679
889.883	21751
890.006	21808
890.13	21876
890.254	21603
890.377	21671
890.501	21462
890.624	21488
890.748	21481
890.871	21435
890.995	21412
891.118	21279
891.241	21256
891.364	21302
891.488	21485
891.611	21367
891.734	21355
891.857	21348
891.98	21291
892.103	21424
892.226	21367
892.349	21180
892.471	21085
892.594	21222
892.717	21173
892.839	21165
892.962	21188
893.085	21287
893.207	21173
893.33	21123
893.452	21211
893.575	21260
893.697	21165
893.819	21317
893.941	21370
894.064	21275
894.186	21116
894.308	21127
894.43	21203
894.552	21275
894.674	21306
894.796	21066
894.918	21104
895.04	21119
895.161	21279
895.283	21264
895.405	21028
895.526	21195
895.648	21058
895.769	21268
895.891	21116
896.012	21241
896.134	21298
896.255	21176
896.376	21131
896.498	21135
896.619	21188
896.74	21230
896.861	21142
896.982	21629
897.103	21606
897.224	21450
897.345	21443
897.466	21348
897.587	21374
897.708	21542
897.828	21348
897.949	21233
898.07	21230
898.19	21329
898.311	21302
898.431	21245
898.552	21367
898.672	21439
898.792	21344
898.913	21367
899.033	21165
899.153	21089
899.273	21146
899.393	21005
899.513	21119
899.633	21127
899.753	21077
899.873	21150
899.993	21108
900.113	21017
900.232	21116
900.352	21108
900.472	20880
900.591	20960
900.711	20914
900.83	20910
900.95	20929
901.069	20891
901.189	20800
901.308	20492
901.427	20393
901.546	20442
901.665	20457
901.784	20336
901.904	20259
902.023	20142
902.141	20001
902.26	19978
902.379	20027
902.498	20050
902.617	19818
902.735	19906
902.854	19811
902.973	19765
903.091	19537
903.21	19681
903.328	19506
903.446	19472
903.565	19460
903.683	19396
903.801	19289
903.919	19384
904.038	19331
904.156	19202
904.274	19247
904.392	19126
904.51	19103
904.627	19126
904.745	19164
904.863	19164
904.981	18837
905.098	18867
905.216	18905
905.334	18711
905.451	18696
905.569	18814
905.686	18890
905.803	18848
905.921	18555
906.038	18669
906.155	18528
906.272	18509
906.389	18578
906.506	18448
906.623	18311
906.74	18338
906.857	18171
906.974	18285
907.091	18334
907.208	18448
907.324	18346
907.441	18277
907.557	18049
907.674	18041
907.79	17977
907.907	17996
908.023	17973
908.139	18034
908.256	18072
908.372	17866
908.488	17836
908.604	17794
908.72	17699
908.836	17760
908.952	17623
909.068	17710
909.184	17748
909.3	17786
909.415	17775
909.531	17741
909.647	17535
909.762	17471
909.878	17360
909.993	17512
910.108	17372
910.224	17280
910.339	17509
910.454	17254
910.57	17356
910.685	17269
910.8	17467
910.915	17425
911.03	17200
911.145	16984
911.259	16911
911.374	17086
911.489	16984
911.604	16908
911.718	16778
911.833	16835
911.947	16599
912.062	16592
912.176	16759
912.291	16828
912.405	16702
912.519	16866
912.633	16908
912.748	16889
912.862	16664
912.976	16599
913.09	16398
913.204	16542
913.318	16634
913.431	16599
913.545	16558
913.659	16721
913.772	16497
913.886	16382
914	16386
914.113	16436
914.226	16561
914.34	16402
914.453	16196
914.566	16428
914.68	16242
914.793	16188
914.906	15964
915.019	15953
915.132	15922
915.245	15895
915.358	15808
915.47	15869
915.583	15857
915.696	15915
915.809	16021
915.921	16063
916.034	15850
916.146	15838
916.259	15854
916.371	15800
916.483	15785
916.595	15743
916.708	15804
916.82	15774
916.932	15755
917.044	15667
917.156	15618
917.268	15637
917.38	15515
917.491	15576
917.603	15576
917.715	15686
917.826	15595
917.938	15507
918.049	15431
918.161	15481
918.272	15572
918.384	15603
918.495	15481
918.606	15283
918.717	15218
918.828	15359
918.939	15237
919.05	15188
919.161	15313
919.272	15157
919.383	15131
919.494	15340
919.604	15496
919.715	15336
919.826	15116
919.936	15351
920.047	15241
920.157	15085
920.267	15294
920.378	15283
920.488	15203
920.598	15435
920.708	15564
920.818	15348
920.928	15386
921.038	15595
921.148	15431
921.258	15245
921.368	14998
921.477	15077
921.587	14967
921.697	14796
921.806	14906
921.916	14864
922.025	14648
922.134	14594
922.244	14579
922.353	14613
922.462	14454
922.571	14431
922.68	14320
922.789	14332
922.898	14195
923.007	14073
923.116	14301
923.224	14206
923.333	14282
923.442	14103
923.55	14050
923.659	14088
923.767	14191
923.876	13967
923.984	14084
924.092	13959
924.201	13978
924.309	13944
924.417	13989
924.525	13936
924.633	13921
924.741	14849
924.849	13651
924.956	13742
925.064	13605
925.172	13594
925.279	13658
925.387	13616
925.494	13594
925.602	13738
925.709	13666
925.816	13632
925.924	13544
926.031	13597
926.138	13575
926.245	13521
926.352	13460
926.459	13563
926.566	13677
926.673	13460
926.779	13354
926.886	13308
926.993	13202
927.099	13152
927.206	13183
927.312	13084
927.419	13179
927.525	13156
927.631	13198
927.737	13023
927.843	13015
927.95	12932
928.056	12882
928.162	12973
928.267	13031
928.373	13556
928.479	13103
928.585	12833
928.69	12943
928.796	12871
928.901	12798
929.007	12726
929.112	12798
929.218	12764
929.323	12715
929.428	12688
929.533	12840
929.638	12544
929.743	12620
929.848	12650
929.953	12597
930.058	12506
930.163	12311
930.267	12376
930.372	12418
930.477	12361
930.581	12528
930.685	12437
930.79	12209
930.894	12167
930.998	12152
931.103	12251
931.207	11961
931.311	11927
931.415	11775
931.519	11684
931.623	11558
