Data from test_V78500241_2566.txt Node
Date: Fri Mar 25 15:59:34 CST 2022
User: usil
Spectrometer: V785-0024
Trigger mode: 0
Integration Time (sec): 4.000000E-1
Scans to average: 1
Nonlinearity correction enabled: false
Boxcar width: 0
Storing dark spectrum: false
XAxis mode: Wavelengths
Number of Pixels in Spectrum: 1024
>>>>>Begin Spectral Data<<<<<
801.071	28702
801.214	28839
801.356	28592
801.499	28443
801.641	28382
801.783	28306
801.926	28253
802.068	28348
802.211	28291
802.353	28367
802.496	28162
802.638	28051
802.78	27975
802.923	28013
803.065	27876
803.208	28036
803.35	28032
803.492	28329
803.635	28367
803.777	28013
803.919	28341
804.061	28683
804.204	28409
804.346	28082
804.488	28291
804.63	28246
804.773	28280
804.915	28538
805.057	28428
805.199	28207
805.341	28405
805.483	28436
805.626	28390
805.768	28382
805.91	28519
806.052	28500
806.194	28371
806.336	28710
806.478	28584
806.62	28367
806.762	28542
806.904	28812
807.046	28915
807.188	28896
807.33	28873
807.472	28991
807.614	28957
807.756	29060
807.898	28771
808.04	28744
808.182	28759
808.324	28645
808.465	28725
808.607	29155
808.749	29242
808.891	29147
809.033	29398
809.174	29280
809.316	29151
809.458	29079
809.6	29075
809.741	29280
809.883	29162
810.025	29353
810.166	29474
810.308	29455
810.45	29345
810.591	29341
810.733	29239
810.875	29269
811.016	29037
811.158	29143
811.299	29318
811.441	29360
811.582	29261
811.724	29189
811.865	29124
812.007	29235
812.148	29254
812.29	29197
812.431	29239
812.573	29455
812.714	29554
812.855	29733
812.997	29707
813.138	29916
813.279	29786
813.421	29756
813.562	29684
813.703	29512
813.845	29383
813.986	29056
814.127	28957
814.268	28923
814.41	28835
814.551	28854
814.692	28991
814.833	28961
814.974	28675
815.115	28740
815.256	28767
815.397	28698
815.539	28816
815.68	28630
815.821	28717
815.962	28694
816.103	28649
816.244	28607
816.385	28455
816.526	28519
816.666	28284
816.807	28128
816.948	28314
817.089	28268
817.23	28207
817.371	28207
817.512	28306
817.653	28223
817.793	28120
817.934	28078
818.075	28322
818.216	28162
818.356	28196
818.497	28055
818.638	27937
818.778	27937
818.919	27899
819.06	28021
819.2	28097
819.341	28223
819.481	28211
819.622	28333
819.762	28599
819.903	28401
820.043	28363
820.184	28394
820.324	28337
820.465	28329
820.605	28333
820.746	28451
820.886	28246
821.026	28329
821.167	28348
821.307	28356
821.447	28257
821.588	28173
821.728	28070
821.868	27907
822.008	27698
822.149	27564
822.289	27682
822.429	27416
822.569	27245
822.709	27351
822.849	27173
822.99	27283
823.13	27195
823.27	27188
823.41	27017
823.55	26990
823.69	27116
823.83	26998
823.97	26906
824.11	26777
824.25	26819
824.389	26868
824.529	26998
824.669	26864
824.809	27062
824.949	26880
825.089	26967
825.228	26678
825.368	26743
825.508	26598
825.648	26731
825.787	26750
825.927	26868
826.067	26530
826.206	26781
826.346	26750
826.485	26823
826.625	26727
826.765	26686
826.904	26743
827.044	26560
827.183	26564
827.323	26408
827.462	26461
827.601	26473
827.741	26461
827.88	26457
828.02	26282
828.159	26431
828.298	26473
828.437	26473
828.577	26431
828.716	26511
828.855	26408
828.994	26229
829.134	26172
829.273	26107
829.412	26157
829.551	26145
829.69	26126
829.829	26088
829.968	26214
830.107	26100
830.246	26107
830.385	26157
830.524	25909
830.663	25776
830.802	25864
830.941	25772
831.08	25795
831.219	25788
831.357	25803
831.496	25830
831.635	25734
831.774	25723
831.913	25620
832.051	25521
832.19	25559
832.329	25544
832.467	25377
832.606	25373
832.744	25434
832.883	25304
833.022	25228
833.16	25441
833.299	25548
833.437	25343
833.576	25438
833.714	25392
833.852	25453
833.991	25441
834.129	25529
834.267	25510
834.406	25441
834.544	25419
834.682	25384
834.821	25472
834.959	25647
835.097	25331
835.235	25381
835.373	25510
835.511	25400
835.65	25316
835.788	25289
835.926	25190
836.064	25069
836.202	25114
836.34	25476
836.478	25381
836.615	25350
836.753	25297
836.891	25373
837.029	25255
837.167	25232
837.305	25266
837.443	25076
837.58	25168
837.718	25190
837.856	25084
837.993	24973
838.131	25164
838.269	25053
838.406	24992
838.544	24905
838.681	24802
838.819	24639
838.956	24623
839.094	24597
839.231	24559
839.369	24783
839.506	25004
839.643	24802
839.781	24692
839.918	24566
840.055	24532
840.193	24441
840.33	24509
840.467	24448
840.604	24597
840.742	24650
840.879	24517
841.016	24433
841.153	24334
841.29	24597
841.427	24391
841.564	24509
841.701	24505
841.838	24456
841.975	24528
842.112	24384
842.249	24350
842.385	24315
842.522	24410
842.659	24395
842.796	24289
842.933	24315
843.069	24110
843.206	24155
843.343	24311
843.479	24338
843.616	24076
843.752	23969
843.889	24015
844.025	24163
844.162	23954
844.298	24148
844.435	24053
844.571	23950
844.708	23920
844.844	24247
844.98	24254
845.117	24148
845.253	23950
845.389	23946
845.525	24038
845.661	23722
845.798	23775
845.934	23794
846.07	23729
846.206	23703
846.342	23950
846.478	23805
846.614	23463
846.75	23433
846.886	23429
847.022	23516
847.158	23516
847.294	23406
847.429	23444
847.565	23436
847.701	23611
847.837	23189
847.972	23006
848.108	23261
848.244	23288
848.379	23075
848.515	23022
848.65	23143
848.786	23124
848.921	23140
849.057	23178
849.192	23159
849.328	23094
849.463	23090
849.598	22938
849.734	22946
849.869	22938
850.004	22774
850.14	22908
850.275	22831
850.41	22771
850.545	22634
850.68	22774
850.815	22869
850.95	22759
851.085	22991
851.22	22953
851.355	22927
851.49	22843
851.625	22866
851.76	22774
851.895	22820
852.03	22702
852.165	22744
852.299	22919
852.434	22965
852.569	22790
852.703	22748
852.838	22824
852.973	23044
853.107	22831
853.242	22748
853.376	22637
853.511	22523
853.645	22584
853.78	22668
853.914	22683
854.048	22618
854.183	22588
854.317	22755
854.451	22793
854.585	22626
854.72	22584
854.854	22672
854.988	22634
855.122	22561
855.256	22554
855.39	22630
855.524	22687
855.658	22687
855.792	22675
855.926	22740
856.06	22577
856.194	22702
856.327	22607
856.461	22440
856.595	22466
856.729	22698
856.862	22702
856.996	22706
857.13	22706
857.263	22873
857.397	22740
857.53	22634
857.664	22675
857.797	22672
857.931	22744
858.064	22664
858.197	22729
858.331	22531
858.464	22656
858.597	22645
858.731	22611
858.864	22637
858.997	22554
859.13	22672
859.263	22656
859.396	22691
859.529	22615
859.662	22519
859.795	22443
859.928	22664
860.061	22733
860.194	22892
860.327	22828
860.46	22645
860.592	22675
860.725	22824
860.858	22755
860.99	22740
861.123	22660
861.256	22664
861.388	22535
861.521	23486
861.653	22341
861.786	22474
861.918	22459
862.05	22519
862.183	22508
862.315	22596
862.447	22733
862.58	22535
862.712	22363
862.844	22371
862.976	22424
863.108	22287
863.24	22771
863.372	22268
863.504	22470
863.636	22390
863.768	22413
863.9	22390
864.032	22204
864.164	22295
864.296	22284
864.428	22531
864.559	22306
864.691	22398
864.823	22310
864.954	22299
865.086	22303
865.217	22249
865.349	22120
865.48	22223
865.612	22128
865.743	22261
865.875	22215
866.006	22219
866.137	22196
866.269	22162
866.4	22325
866.531	22185
866.662	22154
866.793	22204
866.924	22169
867.055	22116
867.186	22055
867.317	22109
867.448	22120
867.579	22139
867.71	21892
867.841	22090
867.972	22150
868.103	22128
868.233	22093
868.364	22238
868.495	22261
868.625	22398
868.756	22455
868.886	22375
869.017	22382
869.147	22447
869.278	22413
869.408	22485
869.539	22382
869.669	22348
869.799	22394
869.929	22569
870.06	22557
870.19	22668
870.32	22531
870.45	22755
870.58	22820
870.71	22847
870.84	22843
870.97	22683
871.1	22881
871.23	22915
871.36	22995
871.489	22847
871.619	22938
871.749	22968
871.879	23132
872.008	23048
872.138	23014
872.267	23071
872.397	22942
872.526	22725
872.656	22850
872.785	22752
872.915	22927
873.044	23067
873.173	22957
873.303	22972
873.432	23086
873.561	23117
873.69	23223
873.819	22953
873.948	23044
874.077	23014
874.206	22930
874.335	23147
874.464	23113
874.593	23273
874.722	23159
874.851	23254
874.979	23254
875.108	23208
875.237	23227
875.365	23083
875.494	23330
875.623	23231
875.751	23147
875.88	23162
876.008	23330
876.136	23311
876.265	23653
876.393	23726
876.521	23657
876.65	23764
876.778	23642
876.906	23558
877.034	23551
877.162	23573
877.29	23611
877.418	23402
877.546	23448
877.674	23467
877.802	23604
877.93	23554
878.058	23364
878.185	23436
878.313	23547
878.441	23539
878.568	23391
878.696	23512
878.824	23562
878.951	23638
879.079	23737
879.206	23756
879.333	23710
879.461	23596
879.588	23676
879.715	23710
879.842	23767
879.97	23646
880.097	23341
880.224	23467
880.351	23349
880.478	23364
880.605	23360
880.732	23501
880.859	23573
880.986	23277
881.112	23322
881.239	23227
881.366	23094
881.493	23083
881.619	23010
881.746	23025
881.872	22889
881.999	22858
882.125	22850
882.252	22953
882.378	22809
882.505	23075
882.631	22824
882.757	22653
882.883	22592
883.01	22596
883.136	22508
883.262	22516
883.388	22500
883.514	22584
883.64	22588
883.766	22421
883.892	22344
884.018	22447
884.143	22649
884.269	22649
884.395	22428
884.52	22226
884.646	22177
884.772	22249
884.897	22059
885.023	22147
885.148	22447
885.274	22318
885.399	22341
885.524	22265
885.65	22341
885.775	22211
885.9	22246
886.025	22386
886.15	22306
886.275	22303
886.4	22109
886.525	22234
886.65	22158
886.775	22131
886.9	22428
887.025	22443
887.149	22181
887.274	22093
887.399	21903
887.523	22181
887.648	21934
887.773	21876
887.897	21987
888.021	22006
888.146	21884
888.27	22090
888.395	22082
888.519	21960
888.643	21911
888.767	22147
888.891	21907
889.015	21713
889.139	21907
889.263	21793
889.387	21789
889.511	21941
889.635	21964
889.759	21682
889.883	21781
890.006	21778
890.13	21945
890.254	21732
890.377	21808
890.501	21564
890.624	21507
890.748	21515
890.871	21325
890.995	21317
891.118	21252
891.241	21428
891.364	21268
891.488	21500
891.611	21340
891.734	21150
891.857	21454
891.98	21283
892.103	21374
892.226	21408
892.349	21393
892.471	21135
892.594	21184
892.717	21275
892.839	21211
892.962	21180
893.085	21287
893.207	21302
893.33	21157
893.452	21150
893.575	21116
893.697	21169
893.819	21348
893.941	21496
894.064	21264
894.186	21085
894.308	21180
894.43	21275
894.552	21272
894.674	21233
894.796	20998
894.918	21173
895.04	21039
895.161	21294
895.283	21241
895.405	21104
895.526	21169
895.648	21146
895.769	21199
895.891	21154
896.012	21283
896.134	21329
896.255	21169
896.376	21089
896.498	21275
896.619	21279
896.74	21268
896.861	21272
896.982	21359
897.103	21641
897.224	21424
897.345	21378
897.466	21416
897.587	21393
897.708	21614
897.828	21397
897.949	21477
898.07	21165
898.19	21275
898.311	21454
898.431	21363
898.552	21420
898.672	21420
898.792	21374
898.913	21367
899.033	21077
899.153	21272
899.273	21127
899.393	21089
899.513	21192
899.633	21214
899.753	21089
899.873	21093
899.993	21131
900.113	20975
900.232	21108
900.352	21043
900.472	20994
900.591	20872
900.711	20853
900.83	20876
900.95	20933
901.069	20971
901.189	20663
901.308	20568
901.427	20476
901.546	20545
901.665	20530
901.784	20507
901.904	20336
902.023	20218
902.141	20035
902.26	19913
902.379	19997
902.498	20008
902.617	19837
902.735	19898
902.854	19906
902.973	19788
903.091	19670
903.21	19635
903.328	19510
903.446	19415
903.565	19434
903.683	19491
903.801	19259
903.919	19358
904.038	19232
904.156	19099
904.274	19312
904.392	19084
904.51	19141
904.627	19126
904.745	19209
904.863	19244
904.981	18958
905.098	18848
905.216	18878
905.334	18829
905.451	18856
905.569	18840
905.686	18856
905.803	18760
905.921	18540
906.038	18772
906.155	18585
906.272	18525
906.389	18555
906.506	18414
906.623	18388
906.74	18334
906.857	18251
906.974	18270
907.091	18429
907.208	18639
907.324	18426
907.441	18205
907.557	18030
907.674	17988
907.79	17927
907.907	18057
908.023	18038
908.139	18011
908.256	18060
908.372	17878
908.488	18019
908.604	17832
908.72	17741
908.836	17813
908.952	17805
909.068	17817
909.184	17866
909.3	17828
909.415	17836
909.531	17737
909.647	17467
909.762	17501
909.878	17379
909.993	17543
910.108	17440
910.224	17459
910.339	17509
910.454	17372
910.57	17387
910.685	17083
910.8	17402
910.915	17551
911.03	17239
911.145	17143
911.259	17006
911.374	17079
911.489	16843
911.604	16911
911.718	16774
911.833	16801
911.947	16721
912.062	16630
912.176	16866
912.291	16828
912.405	16744
912.519	16987
912.633	16919
912.748	16774
912.862	16702
912.976	16649
913.09	16538
913.204	16565
913.318	16615
913.431	16637
913.545	16725
913.659	16668
913.772	16527
913.886	16402
914	16428
914.113	16577
914.226	16481
914.34	16508
914.453	16230
914.566	16360
914.68	16329
914.793	16249
914.906	16139
915.019	15949
915.132	15873
915.245	15975
915.358	15895
915.47	15930
915.583	15937
915.696	16006
915.809	16116
915.921	16078
916.034	15861
916.146	15854
916.259	15785
916.371	15983
916.483	15907
916.595	15846
916.708	15736
916.82	15793
916.932	15797
917.044	15717
917.156	15739
917.268	15530
917.38	15656
917.491	15622
917.603	15526
917.715	15629
917.826	15682
917.938	15496
918.049	15530
918.161	15447
918.272	15701
918.384	15644
918.495	15511
918.606	15397
918.717	15249
918.828	15291
918.939	15306
919.05	15241
919.161	15298
919.272	15123
919.383	15127
919.494	15340
919.604	15515
919.715	15287
919.826	15150
919.936	15260
920.047	15279
920.157	15287
920.267	15344
920.378	15306
920.488	15173
920.598	15370
920.708	15549
920.818	15370
920.928	15389
921.038	15576
921.148	15504
921.258	15176
921.368	15123
921.477	15005
921.587	14944
921.697	14883
921.806	14891
921.916	14872
922.025	14689
922.134	14610
922.244	14522
922.353	14686
922.462	14499
922.571	14431
922.68	14187
922.789	14202
922.898	14377
923.007	14180
923.116	14324
923.224	14054
923.333	14252
923.442	14183
923.55	14058
923.659	14168
923.767	14237
923.876	13959
923.984	14092
924.092	14024
924.201	13868
924.309	13993
924.417	13925
924.525	13932
924.633	13894
924.741	14880
924.849	13772
924.956	13833
925.064	13715
925.172	13609
925.279	13597
925.387	13636
925.494	13738
925.602	13738
925.709	13708
925.816	13460
925.924	13590
926.031	13696
926.138	13639
926.245	13575
926.352	13460
926.459	13567
926.566	13605
926.673	13495
926.779	13365
926.886	13362
926.993	13137
927.099	13164
927.206	13122
927.312	13110
927.419	13194
927.525	13206
927.631	13171
927.737	13084
927.843	12985
927.95	12894
928.056	13031
928.162	12924
928.267	12977
928.373	13537
928.479	13061
928.585	12749
928.69	12989
928.796	12924
928.901	12798
929.007	12677
929.112	12867
929.218	12749
929.323	12642
929.428	12703
929.533	12795
929.638	12566
929.743	12726
929.848	12730
929.953	12608
930.058	12536
930.163	12388
930.267	12429
930.372	12407
930.477	12353
930.581	12464
930.685	12407
930.79	12285
930.894	12216
930.998	12213
931.103	12304
931.207	11973
931.311	11885
931.415	11707
931.519	11623
931.623	11619
