Data from test_V78500241_1897.txt Node
Date: Fri Mar 25 15:54:56 CST 2022
User: usil
Spectrometer: V785-0024
Trigger mode: 0
Integration Time (sec): 4.000000E-1
Scans to average: 1
Nonlinearity correction enabled: false
Boxcar width: 0
Storing dark spectrum: false
XAxis mode: Wavelengths
Number of Pixels in Spectrum: 1024
>>>>>Begin Spectral Data<<<<<
801.071	28672
801.214	28538
801.356	28462
801.499	28367
801.641	28246
801.783	28306
801.926	28242
802.068	28135
802.211	28097
802.353	28067
802.496	28067
802.638	27972
802.78	27949
802.923	27819
803.065	27842
803.208	27956
803.35	27972
803.492	28055
803.635	28154
803.777	28017
803.919	28226
804.061	28436
804.204	28150
804.346	28048
804.488	28078
804.63	28162
804.773	28063
804.915	28219
805.057	28253
805.199	28166
805.341	28246
805.483	28287
805.626	28234
805.768	28310
805.91	28287
806.052	28325
806.194	28207
806.336	28489
806.478	28234
806.62	28268
806.762	28538
806.904	28752
807.046	28797
807.188	28759
807.33	28694
807.472	28797
807.614	28748
807.756	28797
807.898	28630
808.04	28588
808.182	28588
808.324	28706
808.465	28702
808.607	28767
808.749	28927
808.891	28995
809.033	29204
809.174	29029
809.316	28991
809.458	29033
809.6	29022
809.741	29140
809.883	29143
810.025	29368
810.166	29269
810.308	29280
810.45	29292
810.591	29075
810.733	29022
810.875	28991
811.016	28862
811.158	28911
811.299	29136
811.441	29071
811.582	29193
811.724	28991
811.865	29003
812.007	28934
812.148	29037
812.29	29056
812.431	29128
812.573	29349
812.714	29292
812.855	29493
812.997	29543
813.138	29703
813.279	29581
813.421	29642
813.562	29440
813.703	29322
813.845	29223
813.986	28892
814.127	28759
814.268	28698
814.41	28919
814.551	28634
814.692	28733
814.833	28584
814.974	28710
815.115	28679
815.256	28500
815.397	28698
815.539	28573
815.68	28527
815.821	28493
815.962	28371
816.103	28401
816.244	28401
816.385	28348
816.526	28268
816.666	28032
816.807	27987
816.948	27983
817.089	28093
817.23	28029
817.371	28067
817.512	28013
817.653	28059
817.793	27930
817.934	28036
818.075	27941
818.216	27945
818.356	28013
818.497	27797
818.638	27846
818.778	27720
818.919	27686
819.06	27865
819.2	27941
819.341	27953
819.481	27987
819.622	28093
819.762	28352
819.903	28238
820.043	28097
820.184	28131
820.324	28135
820.465	28147
820.605	28162
820.746	28097
820.886	28029
821.026	28147
821.167	28021
821.307	28188
821.447	27941
821.588	28010
821.728	27831
821.868	27682
822.008	27424
822.149	27667
822.289	27477
822.429	27317
822.569	27157
822.709	27096
822.849	27074
822.99	26971
823.13	26933
823.27	26944
823.41	26800
823.55	26731
823.69	26880
823.83	26826
823.97	26689
824.11	26720
824.25	26590
824.389	26492
824.529	26720
824.669	26724
824.809	26895
824.949	26701
825.089	26773
825.228	26796
825.368	26473
825.508	26514
825.648	26404
825.787	26648
825.927	26621
826.067	26495
826.206	26613
826.346	26659
826.485	26629
826.625	26533
826.765	26495
826.904	26609
827.044	26355
827.183	26381
827.323	26214
827.462	26355
827.601	26195
827.741	26339
827.88	26077
828.02	26267
828.159	26256
828.298	26191
828.437	26210
828.577	26149
828.716	26328
828.855	26278
828.994	25913
829.134	25875
829.273	25841
829.412	25913
829.551	25894
829.69	25830
829.829	25966
829.968	25959
830.107	26073
830.246	25856
830.385	25780
830.524	25860
830.663	25681
830.802	25578
830.941	25624
831.08	25529
831.219	25563
831.357	25510
831.496	25765
831.635	25495
831.774	25411
831.913	25403
832.051	25335
832.19	25457
832.329	25308
832.467	25156
832.606	25114
832.744	25091
832.883	25088
833.022	25198
833.16	25263
833.299	25304
833.437	25236
833.576	25320
833.714	25213
833.852	25369
833.991	25324
834.129	25426
834.267	25441
834.406	25316
834.544	25400
834.682	25175
834.821	25141
834.959	25411
835.097	25145
835.235	25346
835.373	25065
835.511	25270
835.65	25160
835.788	25255
835.926	24951
836.064	24768
836.202	24970
836.34	25206
836.478	25129
836.615	24973
836.753	25126
836.891	25053
837.029	25008
837.167	25095
837.305	24958
837.443	25015
837.58	24856
837.718	24905
837.856	24977
837.993	24711
838.131	24829
838.269	24840
838.406	24871
838.544	24738
838.681	24483
838.819	24410
838.956	24365
839.094	24273
839.231	24566
839.369	24589
839.506	24772
839.643	24623
839.781	24201
839.918	24365
840.055	24323
840.193	24418
840.33	24247
840.467	24403
840.604	24209
840.742	24407
840.879	24159
841.016	24174
841.153	24133
841.29	24479
841.427	24186
841.564	24308
841.701	24308
841.838	24372
841.975	24315
842.112	24098
842.249	24057
842.385	24022
842.522	24220
842.659	24095
842.796	24083
842.933	24030
843.069	23992
843.206	23999
843.343	24007
843.479	24057
843.616	23935
843.752	23878
843.889	23783
844.025	23954
844.162	23741
844.298	23927
844.435	23798
844.571	23786
844.708	23672
844.844	23783
844.98	23813
845.117	23912
845.253	23802
845.389	23680
845.525	23813
845.661	23802
845.798	23501
845.934	23551
846.07	23668
846.206	23547
846.342	23684
846.478	23558
846.614	23330
846.75	23318
846.886	23143
847.022	23174
847.158	23334
847.294	23185
847.429	23166
847.565	23147
847.701	23364
847.837	22980
847.972	22949
848.108	23044
848.244	23086
848.379	22930
848.515	22755
848.65	22930
848.786	22850
848.921	22763
849.057	23006
849.192	22946
849.328	22835
849.463	22793
849.598	22858
849.734	22687
849.869	22828
850.004	22588
850.14	22618
850.275	22626
850.41	22561
850.545	22516
850.68	22550
850.815	22668
850.95	22504
851.085	22733
851.22	22713
851.355	22687
851.49	22527
851.625	22561
851.76	22759
851.895	22554
852.03	22436
852.165	22531
852.299	22649
852.434	22656
852.569	22721
852.703	22557
852.838	22611
852.973	22736
853.107	22694
853.242	22561
853.376	22371
853.511	22303
853.645	22382
853.78	22538
853.914	22386
854.048	22341
854.183	22413
854.317	22436
854.451	22694
854.585	22394
854.72	22386
854.854	22375
854.988	22402
855.122	22402
855.256	22287
855.39	22390
855.524	22527
855.658	22421
855.792	22527
855.926	22474
856.06	22497
856.194	22478
856.327	22405
856.461	22413
856.595	22177
856.729	22348
856.862	22546
856.996	22436
857.13	22584
857.263	22668
857.397	22538
857.53	22329
857.664	22329
857.797	22504
857.931	22584
858.064	22421
858.197	22596
858.331	22455
858.464	22333
858.597	22249
858.731	22485
858.864	22352
858.997	22371
859.13	22356
859.263	22474
859.396	22527
859.529	22382
859.662	22379
859.795	22379
859.928	22497
860.061	22580
860.194	22717
860.327	22607
860.46	22459
860.592	22596
860.725	22584
860.858	22645
860.99	22478
861.123	22375
861.256	22367
861.388	22447
861.521	23227
861.653	22166
861.786	22242
861.918	22348
862.05	22306
862.183	22341
862.315	22382
862.447	22318
862.58	22337
862.712	22097
862.844	22257
862.976	22200
863.108	22166
863.24	22561
863.372	21956
863.504	22238
863.636	22105
863.768	22143
863.9	22120
864.032	22029
864.164	22147
864.296	22116
864.428	22257
864.559	22181
864.691	22112
864.823	22120
864.954	22135
865.086	22101
865.217	22120
865.349	21972
865.48	21949
865.612	22032
865.743	22219
865.875	22032
866.006	22051
866.137	21964
866.269	21888
866.4	22051
866.531	21918
866.662	21861
866.793	21918
866.924	21865
867.055	22032
867.186	21926
867.317	21956
867.448	21838
867.579	21930
867.71	21987
867.841	21793
867.972	21983
868.103	21831
868.233	22002
868.364	21911
868.495	21979
868.625	22154
868.756	22363
868.886	22006
869.017	22238
869.147	22249
869.278	22265
869.408	22036
869.539	22131
869.669	22234
869.799	22272
869.929	22242
870.06	22390
870.19	22474
870.32	22440
870.45	22516
870.58	22474
870.71	22596
870.84	22679
870.97	22535
871.1	22497
871.23	22694
871.36	22828
871.489	22687
871.619	22706
871.749	22713
871.879	22866
872.008	22900
872.138	22713
872.267	22672
872.397	22698
872.526	22596
872.656	22622
872.785	22596
872.915	22850
873.044	22782
873.173	22858
873.303	22915
873.432	22915
873.561	22805
873.69	22835
873.819	22919
873.948	22828
874.077	22873
874.206	22664
874.335	22858
874.464	22881
874.593	23086
874.722	23003
874.851	23056
874.979	23102
875.108	22953
875.237	22824
875.365	22729
875.494	23109
875.623	22946
875.751	23109
875.88	23124
876.008	23102
876.136	23064
876.265	23421
876.393	23509
876.521	23467
876.65	23478
876.778	23463
876.906	23307
877.034	23189
877.162	23509
877.29	23326
877.418	23395
877.546	23402
877.674	23307
877.802	23265
877.93	23353
878.058	23269
878.185	23311
878.313	23303
878.441	23353
878.568	23056
878.696	23299
878.824	23398
878.951	23341
879.079	23558
879.206	23695
879.333	23467
879.461	23410
879.588	23467
879.715	23364
879.842	23478
879.97	23376
880.097	23288
880.224	23128
880.351	23162
880.478	23178
880.605	23090
880.732	23136
880.859	23318
880.986	23151
881.112	23025
881.239	22991
881.366	22889
881.493	22831
881.619	22759
881.746	22786
881.872	22752
881.999	22694
882.125	22641
882.252	22778
882.378	22778
882.505	22797
882.631	22519
882.757	22512
882.883	22542
883.01	22363
883.136	22272
883.262	22253
883.388	22173
883.514	22516
883.64	22375
883.766	22287
883.892	22139
884.018	22215
884.143	22356
884.269	22421
884.395	22112
884.52	22025
884.646	22093
884.772	22002
884.897	22017
885.023	22006
885.148	22303
885.274	22070
885.399	22090
885.524	21888
885.65	22036
885.775	22010
885.9	22048
886.025	22166
886.15	22013
886.275	21960
886.4	21930
886.525	22002
886.65	21918
886.775	21770
886.9	21994
887.025	22223
887.149	21983
887.274	21937
887.399	21880
887.523	21785
887.648	21743
887.773	21728
887.897	21762
888.021	21861
888.146	21656
888.27	21728
888.395	21884
888.519	21865
888.643	21781
888.767	21812
888.891	21663
889.015	21564
889.139	21625
889.263	21606
889.387	21614
889.511	21918
889.635	21679
889.759	21568
889.883	21454
890.006	21583
890.13	21667
890.254	21469
890.377	21374
890.501	21355
890.624	21188
890.748	21287
890.871	21237
890.995	21100
891.118	21047
891.241	21123
891.364	21233
891.488	21241
891.611	21195
891.734	21100
891.857	21119
891.98	21165
892.103	21188
892.226	21017
892.349	21005
892.471	20933
892.594	21062
892.717	21043
892.839	21055
892.962	20952
893.085	21070
893.207	20971
893.33	21009
893.452	20956
893.575	21043
893.697	21005
893.819	21184
893.941	21214
894.064	21199
894.186	20914
894.308	20998
894.43	20998
894.552	21123
894.674	21062
894.796	20937
894.918	20929
895.04	20861
895.161	20986
895.283	21100
895.405	21051
895.526	20956
895.648	20933
895.769	21047
895.891	21009
896.012	21096
896.134	21093
896.255	20948
896.376	20937
896.498	21093
896.619	20963
896.74	20807
896.861	21096
896.982	21302
897.103	21485
897.224	21203
897.345	21169
897.466	21104
897.587	21135
897.708	21279
897.828	21329
897.949	21169
898.07	21043
898.19	21150
898.311	21264
898.431	20967
898.552	21096
898.672	21264
898.792	21332
898.913	21211
899.033	21195
899.153	20941
899.273	20960
899.393	21123
899.513	20956
899.633	20948
899.753	20960
899.873	20773
899.993	20933
900.113	20819
900.232	20845
900.352	20933
900.472	20697
900.591	20594
900.711	20651
900.83	20674
900.95	20815
901.069	20815
901.189	20556
901.308	20431
901.427	20237
901.546	20271
901.665	20290
901.784	20298
901.904	20252
902.023	20005
902.141	19902
902.26	19799
902.379	19898
902.498	19841
902.617	19689
902.735	19715
902.854	19712
902.973	19696
903.091	19407
903.21	19487
903.328	19483
903.446	19335
903.565	19194
903.683	19228
903.801	19084
903.919	19164
904.038	19206
904.156	19004
904.274	19057
904.392	19008
904.51	19042
904.627	18966
904.745	18966
904.863	19114
904.981	18764
905.098	18681
905.216	18677
905.334	18684
905.451	18570
905.569	18608
905.686	18669
905.803	18525
905.921	18399
906.038	18517
906.155	18475
906.272	18273
906.389	18300
906.506	18171
906.623	18224
906.74	18224
906.857	17973
906.974	18133
907.091	18194
907.208	18228
907.324	18258
907.441	18060
907.557	17958
907.674	17904
907.79	17821
907.907	17908
908.023	17870
908.139	17832
908.256	17904
908.372	17726
908.488	17748
908.604	17687
908.72	17547
908.836	17562
908.952	17474
909.068	17623
909.184	17638
909.3	17665
909.415	17676
909.531	17581
909.647	17330
909.762	17345
909.878	17311
909.993	17277
910.108	17200
910.224	17204
910.339	17288
910.454	17090
910.57	17113
910.685	17128
910.8	17261
910.915	17250
911.03	16911
911.145	16908
911.259	16965
911.374	16843
911.489	16793
911.604	16786
911.718	16573
911.833	16630
911.947	16535
912.062	16554
912.176	16664
912.291	16607
912.405	16561
912.519	16900
912.633	16835
912.748	16615
912.862	16542
912.976	16428
913.09	16428
913.204	16440
913.318	16386
913.431	16531
913.545	16421
913.659	16561
913.772	16402
913.886	16261
914	16223
914.113	16268
914.226	16318
914.34	16360
914.453	16120
914.566	16192
914.68	16147
914.793	16093
914.906	15937
915.019	15819
915.132	15690
915.245	15743
915.358	15861
915.47	15759
915.583	15732
915.696	15774
915.809	15991
915.921	16059
916.034	15762
916.146	15679
916.259	15614
916.371	15713
916.483	15770
916.595	15629
916.708	15656
916.82	15739
916.932	15652
917.044	15576
917.156	15534
917.268	15466
917.38	15435
917.491	15450
917.603	15428
917.715	15580
917.826	15625
917.938	15321
918.049	15203
918.161	15279
918.272	15492
918.384	15507
918.495	15382
918.606	15180
918.717	15074
918.828	15192
918.939	15169
919.05	15116
919.161	15165
919.272	14910
919.383	15070
919.494	15252
919.604	15332
919.715	15252
919.826	14990
919.936	15062
920.047	15264
920.157	15142
920.267	15313
920.378	15062
920.488	15047
920.598	15222
920.708	15344
920.818	15264
920.928	15207
921.038	15405
921.148	15336
921.258	15036
921.368	14910
921.477	14804
921.587	14743
921.697	14773
921.806	14804
921.916	14636
922.025	14537
922.134	14480
922.244	14419
922.353	14492
922.462	14431
922.571	14301
922.68	14176
922.789	14103
922.898	14199
923.007	14062
923.116	14237
923.224	14123
923.333	14092
923.442	13940
923.55	13906
923.659	13925
923.767	14005
923.876	13925
923.984	14031
924.092	13830
924.201	13830
924.309	13826
924.417	13826
924.525	13712
924.633	13757
924.741	14438
924.849	13578
924.956	13662
925.064	13548
925.172	13480
925.279	13491
925.387	13468
925.494	13540
925.602	13563
925.709	13506
925.816	13384
925.924	13419
926.031	13499
926.138	13499
926.245	13426
926.352	13362
926.459	13441
926.566	13502
926.673	13384
926.779	13278
926.886	13179
926.993	13114
927.099	13103
927.206	12985
927.312	12996
927.419	13126
927.525	13118
927.631	13023
927.737	12909
927.843	12810
927.95	12798
928.056	12882
928.162	12825
928.267	12859
928.373	13552
928.479	12886
928.585	12681
928.69	12787
928.796	12829
928.901	12719
929.007	12540
929.112	12669
929.218	12669
929.323	12563
929.428	12616
929.533	12722
929.638	12532
929.743	12517
929.848	12593
929.953	12486
930.058	12441
930.163	12289
930.267	12201
930.372	12391
930.477	12167
930.581	12353
930.685	12281
930.79	12178
930.894	12114
930.998	12049
931.103	12224
931.207	11939
931.311	11745
931.415	11668
931.519	11558
931.623	11490
