Data from test_V78500241_918.txt Node
Date: Fri Mar 25 15:48:09 CST 2022
User: usil
Spectrometer: V785-0024
Trigger mode: 0
Integration Time (sec): 4.000000E-1
Scans to average: 1
Nonlinearity correction enabled: false
Boxcar width: 0
Storing dark spectrum: false
XAxis mode: Wavelengths
Number of Pixels in Spectrum: 1024
>>>>>Begin Spectral Data<<<<<
801.071	27854
801.214	27663
801.356	27545
801.499	27336
801.641	27252
801.783	27218
801.926	27462
802.068	27340
802.211	27317
802.353	27252
802.496	26982
802.638	26876
802.78	27032
802.923	26887
803.065	26952
803.208	26986
803.35	26986
803.492	27043
803.635	27123
803.777	27020
803.919	27222
804.061	27454
804.204	27245
804.346	27230
804.488	26982
804.63	27211
804.773	26979
804.915	27245
805.057	27302
805.199	27310
805.341	27306
805.483	27386
805.626	27344
805.768	27176
805.91	27348
806.052	27287
806.194	27321
806.336	27488
806.478	27378
806.62	27374
806.762	27306
806.904	27564
807.046	27846
807.188	27656
807.33	27793
807.472	27930
807.614	27705
807.756	27679
807.898	27545
808.04	27538
808.182	27644
808.324	27778
808.465	27679
808.607	27770
808.749	27998
808.891	28093
809.033	28173
809.174	28147
809.316	28040
809.458	27926
809.6	27857
809.741	28044
809.883	28143
810.025	28242
810.166	28230
810.308	28379
810.45	28249
810.591	28287
810.733	28036
810.875	27949
811.016	27972
811.158	27945
811.299	28013
811.441	28162
811.582	28090
811.724	27998
811.865	28017
812.007	27914
812.148	28044
812.29	27892
812.431	28219
812.573	28493
812.714	28341
812.855	28478
812.997	28664
813.138	28763
813.279	28599
813.421	28523
813.562	28512
813.703	28287
813.845	28291
813.986	27930
814.127	27660
814.268	27656
814.41	27644
814.551	27511
814.692	27812
814.833	27618
814.974	27705
815.115	27720
815.256	27561
815.397	27389
815.539	27580
815.68	27386
815.821	27435
815.962	27332
816.103	27408
816.244	27378
816.385	27184
816.526	27214
816.666	27058
816.807	26979
816.948	27085
817.089	27096
817.23	27017
817.371	27020
817.512	26857
817.653	27013
817.793	26895
817.934	26937
818.075	27066
818.216	26952
818.356	26948
818.497	26811
818.638	26743
818.778	26708
818.919	26743
819.06	26727
819.2	26819
819.341	26990
819.481	27077
819.622	26994
819.762	27165
819.903	27074
820.043	27024
820.184	27135
820.324	27020
820.465	26986
820.605	27131
820.746	27028
820.886	26895
821.026	27184
821.167	27028
821.307	27112
821.447	27009
821.588	26918
821.728	26705
821.868	26674
822.008	26404
822.149	26366
822.289	26320
822.429	26191
822.569	26195
822.709	26210
822.849	25902
822.99	25928
823.13	25917
823.27	25868
823.41	25746
823.55	25620
823.69	25852
823.83	25849
823.97	25791
824.11	25628
824.25	25590
824.389	25624
824.529	25620
824.669	25556
824.809	25769
824.949	25693
825.089	25624
825.228	25616
825.368	25449
825.508	25407
825.648	25449
825.787	25499
825.927	25575
826.067	25529
826.206	25426
826.346	25586
826.485	25476
826.625	25411
826.765	25533
826.904	25518
827.044	25095
827.183	25099
827.323	25137
827.462	25183
827.601	25221
827.741	25038
827.88	25183
828.02	25141
828.159	25114
828.298	25217
828.437	25217
828.577	25046
828.716	25278
828.855	25114
828.994	24928
829.134	24909
829.273	24943
829.412	24821
829.551	24669
829.69	24681
829.829	24935
829.968	24920
830.107	25008
830.246	24783
830.385	24745
830.524	24719
830.663	24654
830.802	24521
830.941	24376
831.08	24490
831.219	24517
831.357	24517
831.496	24551
831.635	24429
831.774	24353
831.913	24342
832.051	24232
832.19	24308
832.329	24270
832.467	24159
832.606	24003
832.744	24174
832.883	24224
833.022	24022
833.16	24167
833.299	24125
833.437	24292
833.576	24178
833.714	24216
833.852	24273
833.991	24270
834.129	24285
834.267	24083
834.406	24182
834.544	24148
834.682	24330
834.821	24136
834.959	24388
835.097	24091
835.235	24174
835.373	24152
835.511	24213
835.65	24072
835.788	24076
835.926	23927
836.064	23893
836.202	23885
836.34	24026
836.478	24167
836.615	23992
836.753	24117
836.891	24129
837.029	23999
837.167	23931
837.305	23935
837.443	23992
837.58	23847
837.718	23882
837.856	23855
837.993	23718
838.131	23920
838.269	23699
838.406	23775
838.544	23718
838.681	23547
838.819	23505
838.956	23368
839.094	23265
839.231	23391
839.369	23505
839.506	23760
839.643	23611
839.781	23356
839.918	23288
840.055	23341
840.193	23288
840.33	23204
840.467	23280
840.604	23288
840.742	23547
840.879	23250
841.016	23231
841.153	23105
841.29	23398
841.427	23269
841.564	23307
841.701	23246
841.838	23132
841.975	23185
842.112	23181
842.249	22923
842.385	23105
842.522	23322
842.659	23010
842.796	23083
842.933	22999
843.069	22885
843.206	22980
843.343	23117
843.479	22949
843.616	22942
843.752	22828
843.889	22778
844.025	22881
844.162	22710
844.298	22759
844.435	22721
844.571	22763
844.708	22820
844.844	22946
844.98	22889
845.117	22908
845.253	22721
845.389	22546
845.525	22710
845.661	22542
845.798	22493
845.934	22535
846.07	22561
846.206	22637
846.342	22649
846.478	22588
846.614	22337
846.75	22238
846.886	22211
847.022	22360
847.158	22276
847.294	22173
847.429	22097
847.565	22276
847.701	22478
847.837	22029
847.972	21888
848.108	22128
848.244	22105
848.379	21846
848.515	21751
848.65	21903
848.786	21899
848.921	21869
849.057	21865
849.192	21857
849.328	21857
849.463	21720
849.598	21876
849.734	21739
849.869	21747
850.004	21591
850.14	21599
850.275	21557
850.41	21485
850.545	21523
850.68	21481
850.815	21656
850.95	21454
851.085	21759
851.22	21759
851.355	21557
851.49	21500
851.625	21709
851.76	21667
851.895	21500
852.03	21534
852.165	21641
852.299	21637
852.434	21595
852.569	21606
852.703	21595
852.838	21606
852.973	21838
853.107	21705
853.242	21504
853.376	21492
853.511	21355
853.645	21447
853.78	21526
853.914	21462
854.048	21443
854.183	21397
854.317	21454
854.451	21587
854.585	21496
854.72	21488
854.854	21408
854.988	21249
855.122	21473
855.256	21283
855.39	21378
855.524	21500
855.658	21359
855.792	21374
855.926	21538
856.06	21405
856.194	21511
856.327	21389
856.461	21355
856.595	21363
856.729	21397
856.862	21507
856.996	21397
857.13	21485
857.263	21553
857.397	21443
857.53	21428
857.664	21412
857.797	21435
857.931	21397
858.064	21447
858.197	21519
858.331	21500
858.464	21363
858.597	21355
858.731	21382
858.864	21321
858.997	21310
859.13	21477
859.263	21340
859.396	21401
859.529	21447
859.662	21401
859.795	21325
859.928	21374
860.061	21519
860.194	21622
860.327	21454
860.46	21507
860.592	21496
860.725	21511
860.858	21572
860.99	21488
861.123	21367
861.256	21401
861.388	21534
861.521	22116
861.653	21207
861.786	21100
861.918	21294
862.05	21180
862.183	21367
862.315	21306
862.447	21245
862.58	21264
862.712	21077
862.844	21173
862.976	21184
863.108	21096
863.24	21447
863.372	20971
863.504	21135
863.636	21096
863.768	21123
863.9	21096
864.032	20971
864.164	21032
864.296	21119
864.428	21169
864.559	21154
864.691	21249
864.823	21154
864.954	21150
865.086	21047
865.217	21043
865.349	20975
865.48	21005
865.612	21036
865.743	21085
865.875	21036
866.006	21051
866.137	21009
866.269	20971
866.4	20895
866.531	21055
866.662	20948
866.793	21009
866.924	20944
867.055	21055
867.186	20967
867.317	20902
867.448	20929
867.579	20994
867.71	20910
867.841	20762
867.972	21020
868.103	20960
868.233	20963
868.364	20971
868.495	21112
868.625	21176
868.756	21237
868.886	21207
869.017	21195
869.147	21321
869.278	21283
869.408	21230
869.539	21218
869.669	21336
869.799	21184
869.929	21287
870.06	21272
870.19	21637
870.32	21466
870.45	21492
870.58	21564
870.71	21682
870.84	21762
870.97	21587
871.1	21644
871.23	21797
871.36	21747
871.489	21690
871.619	21781
871.749	21736
871.879	21880
872.008	21956
872.138	21857
872.267	21827
872.397	21694
872.526	21614
872.656	21587
872.785	21622
872.915	21781
873.044	21895
873.173	21759
873.303	21831
873.432	21869
873.561	21915
873.69	21876
873.819	21732
873.948	21960
874.077	21835
874.206	21728
874.335	21800
874.464	21876
874.593	22063
874.722	22055
874.851	22021
874.979	22025
875.108	22135
875.237	22002
875.365	21937
875.494	22074
875.623	22147
875.751	22055
875.88	22074
876.008	22158
876.136	22215
876.265	22592
876.393	22462
876.521	22455
876.65	22371
876.778	22462
876.906	22322
877.034	22363
877.162	22459
877.29	22375
877.418	22310
877.546	22379
877.674	22516
877.802	22367
877.93	22512
878.058	22295
878.185	22234
878.313	22337
878.441	22257
878.568	22139
878.696	22306
878.824	22375
878.951	22436
879.079	22622
879.206	22599
879.333	22603
879.461	22451
879.588	22550
879.715	22531
879.842	22577
879.97	22424
880.097	22249
880.224	22257
880.351	22223
880.478	22143
880.605	22116
880.732	22230
880.859	22489
880.986	22325
881.112	22173
881.239	22112
881.366	21937
881.493	21907
881.619	21755
881.746	21842
881.872	21755
881.999	21835
882.125	21713
882.252	21751
882.378	21751
882.505	21895
882.631	21492
882.757	21496
882.883	21477
883.01	21526
883.136	21466
883.262	21294
883.388	21272
883.514	21481
883.64	21500
883.766	21504
883.892	21256
884.018	21279
884.143	21355
884.269	21481
884.395	21241
884.52	21104
884.646	21207
884.772	21096
884.897	20982
885.023	21074
885.148	21207
885.274	21203
885.399	21150
885.524	21203
885.65	21127
885.775	21089
885.9	21116
886.025	21241
886.15	21199
886.275	21051
886.4	21043
886.525	21024
886.65	21112
886.775	20948
886.9	21226
887.025	21283
887.149	21199
887.274	21043
887.399	20883
887.523	20963
887.648	20849
887.773	20857
887.897	20876
888.021	20990
888.146	20853
888.27	20975
888.395	21081
888.519	20895
888.643	20883
888.767	20933
888.891	20785
889.015	20640
889.139	20750
889.263	20625
889.387	20868
889.511	20868
889.635	20815
889.759	20674
889.883	20606
890.006	20800
890.13	20758
890.254	20541
890.377	20556
890.501	20522
890.624	20343
890.748	20514
890.871	20404
890.995	20199
891.118	20252
891.241	20339
891.364	20256
891.488	20385
891.611	20305
891.734	20218
891.857	20298
891.98	20256
892.103	20298
892.226	20195
892.349	20077
892.471	19997
892.594	20214
892.717	20206
892.839	20267
892.962	20218
893.085	20229
893.207	20214
893.33	20107
893.452	20107
893.575	20267
893.697	20153
893.819	20301
893.941	20290
894.064	20259
894.186	20138
894.308	20115
894.43	20206
894.552	20313
894.674	20282
894.796	20012
894.918	20145
895.04	20077
895.161	20202
895.283	20256
895.405	20115
895.526	20176
895.648	20142
895.769	20195
895.891	20225
896.012	20252
896.134	20180
896.255	20214
896.376	20149
896.498	20202
896.619	20206
896.74	20202
896.861	20168
896.982	20442
897.103	20602
897.224	20492
897.345	20492
897.466	20237
897.587	20396
897.708	20552
897.828	20450
897.949	20370
898.07	20225
898.19	20358
898.311	20427
898.431	20476
898.552	20347
898.672	20530
898.792	20514
898.913	20355
899.033	20218
899.153	20210
899.273	20008
899.393	20096
899.513	20229
899.633	20149
899.753	20214
899.873	20050
899.993	20126
900.113	20149
900.232	20005
900.352	20100
900.472	19989
900.591	19845
900.711	20043
900.83	19864
900.95	19917
901.069	19940
901.189	19852
901.308	19643
901.427	19304
901.546	19521
901.665	19472
901.784	19548
901.904	19259
902.023	19320
902.141	19202
902.26	19069
902.379	19141
902.498	19069
902.617	18977
902.735	18985
902.854	18989
902.973	18916
903.091	18715
903.21	18738
903.328	18722
903.446	18715
903.565	18456
903.683	18547
903.801	18448
903.919	18429
904.038	18410
904.156	18304
904.274	18300
904.392	18243
904.51	18178
904.627	18194
904.745	18311
904.863	18239
904.981	17939
905.098	17897
905.216	17859
905.334	17874
905.451	18106
905.569	17965
905.686	17969
905.803	17908
905.921	17680
906.038	17752
906.155	17676
906.272	17627
906.389	17691
906.506	17459
906.623	17497
906.74	17448
906.857	17425
906.974	17383
907.091	17448
907.208	17528
907.324	17379
907.441	17398
907.557	17155
907.674	17269
907.79	17174
907.907	17113
908.023	17105
908.139	17132
908.256	17094
908.372	17155
908.488	17105
908.604	16938
908.72	16858
908.836	16999
908.952	16831
909.068	16942
909.184	17029
909.3	16889
909.415	16908
909.531	16809
909.647	16618
909.762	16630
909.878	16588
909.993	16603
910.108	16710
910.224	16500
910.339	16611
910.454	16402
910.57	16402
910.685	16291
910.8	16717
910.915	16508
911.03	16356
911.145	16188
911.259	16223
911.374	16139
911.489	16093
911.604	16128
911.718	15934
911.833	15998
911.947	15812
912.062	15762
912.176	15876
912.291	16036
912.405	15895
912.519	16139
912.633	16055
912.748	15930
912.862	15895
912.976	15800
913.09	15572
913.204	15717
913.318	15823
913.431	15797
913.545	15770
913.659	15827
913.772	15660
913.886	15568
914	15542
914.113	15568
914.226	15698
914.34	15622
914.453	15325
914.566	15568
914.68	15447
914.793	15408
914.906	15176
915.019	15116
915.132	15028
915.245	15173
915.358	15123
915.47	15192
915.583	15173
915.696	15135
915.809	15249
915.921	15306
916.034	15024
916.146	14937
916.259	15104
916.371	15074
916.483	15116
916.595	14914
916.708	14902
916.82	14952
916.932	14921
917.044	14906
917.156	14960
917.268	14895
917.38	14815
917.491	14765
917.603	14754
917.715	14777
917.826	14857
917.938	14823
918.049	14610
918.161	14727
918.272	14807
918.384	14834
918.495	14689
918.606	14610
918.717	14499
918.828	14579
918.939	14655
919.05	14442
919.161	14461
919.272	14336
919.383	14412
919.494	14511
919.604	14762
919.715	14541
919.826	14423
919.936	14507
920.047	14541
920.157	14484
920.267	14842
920.378	14545
920.488	14522
920.598	14678
920.708	14811
920.818	14686
920.928	14644
921.038	14762
921.148	14773
921.258	14427
921.368	14408
921.477	14237
921.587	14290
921.697	14058
921.806	14248
921.916	14024
922.025	13978
922.134	13925
922.244	13837
922.353	13925
922.462	13822
922.571	13875
922.68	13616
922.789	13609
922.898	13556
923.007	13582
923.116	13548
923.224	13529
923.333	13491
923.442	13388
923.55	13358
923.659	13400
923.767	13411
923.876	13358
923.984	13430
924.092	13187
924.201	13228
924.309	13285
924.417	13236
924.525	13285
924.633	13152
924.741	14153
924.849	13023
924.956	13141
925.064	13023
925.172	12901
925.279	13088
925.387	13076
925.494	12973
925.602	13034
925.709	13000
925.816	12856
925.924	12837
926.031	12970
926.138	13031
926.245	12894
926.352	12806
926.459	13004
926.566	12958
926.673	12970
926.779	12806
926.886	12669
926.993	12563
927.099	12532
927.206	12407
927.312	12441
927.419	12532
927.525	12555
927.631	12555
927.737	12441
927.843	12384
927.95	12232
928.056	12319
928.162	12418
928.267	12372
928.373	12833
928.479	12460
928.585	12243
928.69	12311
928.796	12296
928.901	12216
929.007	12190
929.112	12213
929.218	12171
929.323	12072
929.428	12015
929.533	12205
929.638	12110
929.743	12072
929.848	12015
929.953	11961
930.058	11897
930.163	11767
930.267	11802
930.372	11863
930.477	11737
930.581	11939
930.685	11809
930.79	11615
930.894	11684
930.998	11619
931.103	11824
931.207	11341
931.311	11402
931.415	11246
931.519	11086
931.623	11045
