Data from test_V78500241_1752.txt Node
Date: Fri Mar 25 15:53:56 CST 2022
User: usil
Spectrometer: V785-0024
Trigger mode: 0
Integration Time (sec): 4.000000E-1
Scans to average: 1
Nonlinearity correction enabled: false
Boxcar width: 0
Storing dark spectrum: false
XAxis mode: Wavelengths
Number of Pixels in Spectrum: 1024
>>>>>Begin Spectral Data<<<<<
801.071	28565
801.214	28588
801.356	28493
801.499	28238
801.641	28272
801.783	28143
801.926	28314
802.068	28131
802.211	28169
802.353	27991
802.496	27854
802.638	27827
802.78	27739
802.923	27873
803.065	27808
803.208	27812
803.35	27800
803.492	27907
803.635	28246
803.777	27998
803.919	28067
804.061	28409
804.204	27922
804.346	27949
804.488	27968
804.63	28105
804.773	28006
804.915	28215
805.057	28192
805.199	28074
805.341	28276
805.483	28329
805.626	28265
805.768	28040
805.91	28192
806.052	28303
806.194	28238
806.336	28409
806.478	28306
806.62	28200
806.762	28474
806.904	28596
807.046	28831
807.188	28656
807.33	28752
807.472	28733
807.614	28790
807.756	28710
807.898	28596
808.04	28561
808.182	28382
808.324	28565
808.465	28550
808.607	28778
808.749	28976
808.891	28984
809.033	29147
809.174	28987
809.316	28885
809.458	29056
809.6	28850
809.741	28957
809.883	29124
810.025	29185
810.166	29303
810.308	29162
810.45	29185
810.591	29258
810.733	28968
810.875	28885
811.016	28710
811.158	28812
811.299	29117
811.441	29086
811.582	29010
811.724	28987
811.865	28900
812.007	28911
812.148	29003
812.29	28866
812.431	28999
812.573	29216
812.714	29490
812.855	29429
812.997	29611
813.138	29710
813.279	29718
813.421	29474
813.562	29448
813.703	29288
813.845	29200
813.986	28953
814.127	28748
814.268	28740
814.41	28656
814.551	28649
814.692	28710
814.833	28675
814.974	28592
815.115	28694
815.256	28405
815.397	28516
815.539	28459
815.68	28428
815.821	28466
815.962	28557
816.103	28580
816.244	28474
816.385	28272
816.526	28265
816.666	28150
816.807	27991
816.948	28185
817.089	28169
817.23	27914
817.371	27941
817.512	27987
817.653	27926
817.793	27838
817.934	27998
818.075	27953
818.216	27922
818.356	27918
818.497	27755
818.638	27648
818.778	27762
818.919	27656
819.06	27861
819.2	27797
819.341	28010
819.481	28021
819.622	27949
819.762	28287
819.903	28356
820.043	28200
820.184	28036
820.324	28128
820.465	28246
820.605	28097
820.746	28067
820.886	27964
821.026	28044
821.167	28116
821.307	28139
821.447	28010
821.588	27934
821.728	27728
821.868	27686
822.008	27401
822.149	27447
822.289	27435
822.429	27222
822.569	27135
822.709	27119
822.849	27093
822.99	26933
823.13	27096
823.27	26979
823.41	26819
823.55	26594
823.69	26861
823.83	26773
823.97	26773
824.11	26587
824.25	26533
824.389	26526
824.529	26670
824.669	26689
824.809	26739
824.949	26678
825.089	26743
825.228	26678
825.368	26453
825.508	26442
825.648	26503
825.787	26488
825.927	26651
826.067	26522
826.206	26476
826.346	26651
826.485	26541
826.625	26530
826.765	26636
826.904	26434
827.044	26267
827.183	26267
827.323	26320
827.462	26309
827.601	26393
827.741	26168
827.88	26351
828.02	26221
828.159	26180
828.298	26172
828.437	26393
828.577	26229
828.716	26259
828.855	26286
828.994	25936
829.134	25879
829.273	25955
829.412	25875
829.551	25852
829.69	25963
829.829	25989
829.968	26024
830.107	25966
830.246	25833
830.385	25868
830.524	25776
830.663	25784
830.802	25685
830.941	25609
831.08	25582
831.219	25548
831.357	25578
831.496	25624
831.635	25563
831.774	25403
831.913	25521
832.051	25251
832.19	25274
832.329	25441
832.467	25202
832.606	25152
832.744	25091
832.883	25194
833.022	25247
833.16	25179
833.299	25270
833.437	25171
833.576	25343
833.714	25316
833.852	25251
833.991	25293
834.129	25278
834.267	25274
834.406	25217
834.544	25346
834.682	25327
834.821	25198
834.959	25453
835.097	25183
835.235	25225
835.373	25179
835.511	25259
835.65	25118
835.788	25042
835.926	24772
836.064	24894
836.202	24875
836.34	25122
836.478	25148
836.615	25114
836.753	25050
836.891	25114
837.029	24985
837.167	24966
837.305	24890
837.443	24954
837.58	24905
837.718	24989
837.856	24905
837.993	24840
838.131	24852
838.269	24856
838.406	24719
838.544	24696
838.681	24589
838.819	24426
838.956	24300
839.094	24296
839.231	24353
839.369	24559
839.506	24745
839.643	24669
839.781	24429
839.918	24327
840.055	24422
840.193	24388
840.33	24228
840.467	24353
840.604	24342
840.742	24464
840.879	24095
841.016	24308
841.153	24194
841.29	24224
841.427	24296
841.564	24205
841.701	24254
841.838	24163
841.975	24030
842.112	24087
842.249	24171
842.385	23996
842.522	24270
842.659	24106
842.796	23965
842.933	24057
843.069	23980
843.206	23916
843.343	24167
843.479	23939
843.616	23870
843.752	23756
843.889	23870
844.025	23950
844.162	23798
844.298	23889
844.435	23764
844.571	23775
844.708	23843
844.844	23992
844.98	23920
845.117	23832
845.253	23657
845.389	23634
845.525	23653
845.661	23581
845.798	23474
845.934	23649
846.07	23516
846.206	23535
846.342	23672
846.478	23459
846.614	23395
846.75	23174
846.886	23220
847.022	23322
847.158	23296
847.294	23277
847.429	23239
847.565	23132
847.701	23474
847.837	23105
847.972	22911
848.108	23010
848.244	22999
848.379	22911
848.515	22820
848.65	22820
848.786	22694
848.921	22710
849.057	23006
849.192	23014
849.328	22843
849.463	22881
849.598	22892
849.734	22687
849.869	22786
850.004	22752
850.14	22580
850.275	22672
850.41	22497
850.545	22512
850.68	22443
850.815	22577
850.95	22615
851.085	22847
851.22	22664
851.355	22535
851.49	22542
851.625	22577
851.76	22512
851.895	22550
852.03	22508
852.165	22569
852.299	22637
852.434	22538
852.569	22599
852.703	22607
852.838	22577
852.973	22717
853.107	22615
853.242	22634
853.376	22447
853.511	22242
853.645	22386
853.78	22592
853.914	22497
854.048	22527
854.183	22443
854.317	22360
854.451	22500
854.585	22466
854.72	22459
854.854	22527
854.988	22371
855.122	22504
855.256	22276
855.39	22485
855.524	22535
855.658	22535
855.792	22466
855.926	22314
856.06	22523
856.194	22596
856.327	22398
856.461	22322
856.595	22432
856.729	22352
856.862	22493
856.996	22440
857.13	22436
857.263	22417
857.397	22497
857.53	22462
857.664	22573
857.797	22474
857.931	22470
858.064	22424
858.197	22455
858.331	22398
858.464	22265
858.597	22276
858.731	22363
858.864	22413
858.997	22367
859.13	22497
859.263	22432
859.396	22580
859.529	22428
859.662	22424
859.795	22344
859.928	22371
860.061	22531
860.194	22618
860.327	22379
860.46	22489
860.592	22546
860.725	22478
860.858	22451
860.99	22409
861.123	22318
861.256	22314
861.388	22367
861.521	23178
861.653	22143
861.786	22124
861.918	22299
862.05	22322
862.183	22371
862.315	22428
862.447	22356
862.58	22329
862.712	22101
862.844	22074
862.976	22070
863.108	22150
863.24	22405
863.372	22143
863.504	22025
863.636	22074
863.768	22082
863.9	22147
864.032	22074
864.164	22147
864.296	22219
864.428	22120
864.559	22150
864.691	22158
864.823	21964
864.954	22090
865.086	22010
865.217	22055
865.349	22002
865.48	21911
865.612	21998
865.743	22093
865.875	21972
866.006	21941
866.137	21941
866.269	21983
866.4	21991
866.531	21892
866.662	21994
866.793	21918
866.924	21789
867.055	21953
867.186	21895
867.317	21960
867.448	21816
867.579	21732
867.71	21857
867.841	21736
867.972	21850
868.103	21892
868.233	21922
868.364	21873
868.495	21907
868.625	22059
868.756	22226
868.886	22067
869.017	22051
869.147	22234
869.278	22234
869.408	22200
869.539	22078
869.669	22093
869.799	22139
869.929	22303
870.06	22265
870.19	22466
870.32	22363
870.45	22363
870.58	22645
870.71	22698
870.84	22542
870.97	22485
871.1	22542
871.23	22729
871.36	22767
871.489	22660
871.619	22713
871.749	22809
871.879	22755
872.008	22881
872.138	22694
872.267	22713
872.397	22702
872.526	22500
872.656	22653
872.785	22561
872.915	22706
873.044	22892
873.173	22767
873.303	22809
873.432	22790
873.561	22869
873.69	22809
873.819	22733
873.948	22812
874.077	22820
874.206	22778
874.335	22873
874.464	22980
874.593	23060
874.722	22991
874.851	22976
874.979	22984
875.108	23033
875.237	22854
875.365	22881
875.494	22869
875.623	23003
875.751	22949
875.88	23044
876.008	23033
876.136	23197
876.265	23334
876.393	23505
876.521	23417
876.65	23478
876.778	23417
876.906	23296
877.034	23387
877.162	23311
877.29	23284
877.418	23315
877.546	23337
877.674	23360
877.802	23284
877.93	23261
878.058	23296
878.185	23246
878.313	23269
878.441	23303
878.568	23246
878.696	23307
878.824	23349
878.951	23391
879.079	23520
879.206	23509
879.333	23531
879.461	23429
879.588	23284
879.715	23337
879.842	23516
879.97	23379
880.097	23189
880.224	23067
880.351	23220
880.478	23128
880.605	23056
880.732	23048
880.859	23322
880.986	23105
881.112	23140
881.239	23071
881.366	22812
881.493	22812
881.619	22812
881.746	22801
881.872	22778
881.999	22752
882.125	22710
882.252	22675
882.378	22500
882.505	22877
882.631	22580
882.757	22462
882.883	22394
883.01	22428
883.136	22341
883.262	22173
883.388	22196
883.514	22398
883.64	22371
883.766	22246
883.892	22150
884.018	22188
884.143	22253
884.269	22386
884.395	22158
884.52	21949
884.646	21926
884.772	21975
884.897	21876
885.023	22040
885.148	22059
885.274	22162
885.399	22128
885.524	21983
885.65	22067
885.775	22044
885.9	22021
886.025	22166
886.15	21998
886.275	21857
886.4	21911
886.525	21903
886.65	21930
886.775	21861
886.9	22017
887.025	22200
887.149	21915
887.274	21949
887.399	21804
887.523	21747
887.648	21823
887.773	21785
887.897	21808
888.021	21797
888.146	21705
888.27	21770
888.395	21717
888.519	21857
888.643	21804
888.767	21888
888.891	21629
889.015	21538
889.139	21549
889.263	21519
889.387	21610
889.511	21720
889.635	21622
889.759	21549
889.883	21428
890.006	21477
890.13	21739
890.254	21576
890.377	21294
890.501	21378
890.624	21241
890.748	21294
890.871	21116
890.995	21081
891.118	21165
891.241	21104
891.364	21077
891.488	21302
891.611	21226
891.734	21112
891.857	21119
891.98	21150
892.103	21116
892.226	21093
892.349	21013
892.471	20861
892.594	21047
892.717	21142
892.839	21032
892.962	21043
893.085	21096
893.207	21058
893.33	20857
893.452	20933
893.575	21032
893.697	20956
893.819	21138
893.941	21116
894.064	21108
894.186	20918
894.308	20785
894.43	21051
894.552	21249
894.674	21096
894.796	20845
894.918	20956
895.04	20971
895.161	21116
895.283	20944
895.405	20941
895.526	20948
895.648	20948
895.769	21058
895.891	20975
896.012	20937
896.134	21005
896.255	20963
896.376	20956
896.498	20937
896.619	21017
896.74	21013
896.861	21043
896.982	21389
897.103	21393
897.224	21252
897.345	21199
897.466	21119
897.587	21070
897.708	21214
897.828	21146
897.949	21070
898.07	21036
898.19	21165
898.311	21199
898.431	21131
898.552	21043
898.672	21256
898.792	21226
898.913	21298
899.033	21093
899.153	20979
899.273	20864
899.393	20902
899.513	20914
899.633	21051
899.753	20971
899.873	20701
899.993	20895
900.113	20842
900.232	20971
900.352	20823
900.472	20701
900.591	20754
900.711	20686
900.83	20712
900.95	20632
901.069	20834
901.189	20526
901.308	20362
901.427	20282
901.546	20248
901.665	20446
901.784	20351
901.904	20122
902.023	19951
902.141	19780
902.26	19841
902.379	19925
902.498	19734
902.617	19765
902.735	19681
902.854	19704
902.973	19601
903.091	19392
903.21	19457
903.328	19392
903.446	19228
903.565	19259
903.683	19129
903.801	19110
903.919	19072
904.038	19038
904.156	19050
904.274	19015
904.392	19027
904.51	18909
904.627	18947
904.745	19072
904.863	19012
904.981	18821
905.098	18703
905.216	18635
905.334	18612
905.451	18627
905.569	18585
905.686	18635
905.803	18688
905.921	18475
906.038	18422
906.155	18551
906.272	18391
906.389	18372
906.506	18186
906.623	18190
906.74	18201
906.857	18079
906.974	18136
907.091	18262
907.208	18258
907.324	18114
907.441	18011
907.557	17920
907.674	17882
907.79	17760
907.907	17958
908.023	17920
908.139	17836
908.256	17760
908.372	17627
908.488	17737
908.604	17581
908.72	17604
908.836	17611
908.952	17516
909.068	17543
909.184	17687
909.3	17661
909.415	17505
909.531	17562
909.647	17330
909.762	17360
909.878	17170
909.993	17311
910.108	17193
910.224	17235
910.339	17261
910.454	17060
910.57	17136
910.685	17109
910.8	17204
910.915	17197
911.03	17025
911.145	16877
911.259	16843
911.374	16942
911.489	16717
911.604	16687
911.718	16660
911.833	16729
911.947	16497
912.062	16417
912.176	16584
912.291	16687
912.405	16588
912.519	16702
912.633	16786
912.748	16672
912.862	16607
912.976	16417
913.09	16280
913.204	16386
913.318	16306
913.431	16527
913.545	16512
913.659	16485
913.772	16337
913.886	16211
914	16181
914.113	16314
914.226	16287
914.34	16322
914.453	16109
914.566	16284
914.68	16135
914.793	16010
914.906	15892
915.019	15755
915.132	15717
915.245	15808
915.358	15739
915.47	15728
915.583	15766
915.696	15854
915.809	15880
915.921	15827
916.034	15580
916.146	15618
916.259	15679
916.371	15781
916.483	15606
916.595	15542
916.708	15629
916.82	15633
916.932	15591
917.044	15526
917.156	15572
917.268	15458
917.38	15466
917.491	15332
917.603	15389
917.715	15500
917.826	15397
917.938	15237
918.049	15207
918.161	15355
918.272	15477
918.384	15412
918.495	15291
918.606	15192
918.717	15119
918.828	15214
918.939	15184
919.05	15188
919.161	15100
919.272	14921
919.383	15020
919.494	15135
919.604	15298
919.715	15138
919.826	15028
919.936	15169
920.047	15188
920.157	15138
920.267	15241
920.378	15123
920.488	15127
920.598	15302
920.708	15378
920.818	15222
920.928	15211
921.038	15401
921.148	15329
921.258	15024
921.368	14971
921.477	14773
921.587	14872
921.697	14648
921.806	14861
921.916	14686
922.025	14488
922.134	14461
922.244	14419
922.353	14495
922.462	14465
922.571	14237
922.68	14180
922.789	14111
922.898	14126
923.007	13959
923.116	14107
923.224	14073
923.333	14054
923.442	13921
923.55	13875
923.659	14012
923.767	13925
923.876	13902
923.984	13894
924.092	13818
924.201	13871
924.309	13883
924.417	13833
924.525	13715
924.633	13715
924.741	14480
924.849	13537
924.956	13803
925.064	13563
925.172	13377
925.279	13502
925.387	13537
925.494	13438
925.602	13594
925.709	13483
925.816	13289
925.924	13544
926.031	13578
926.138	13343
926.245	13480
926.352	13285
926.459	13460
926.566	13510
926.673	13392
926.779	13198
926.886	13209
926.993	13027
927.099	13103
927.206	12962
927.312	12962
927.419	13015
927.525	13031
927.631	13031
927.737	12970
927.843	12867
927.95	12779
928.056	12939
928.162	12817
928.267	12886
928.373	13563
928.479	12897
928.585	12764
928.69	12863
928.796	12875
928.901	12707
929.007	12460
929.112	12673
929.218	12608
929.323	12555
929.428	12566
929.533	12623
929.638	12467
929.743	12506
929.848	12547
929.953	12502
930.058	12399
930.163	12216
930.267	12163
930.372	12369
930.477	12186
930.581	12384
930.685	12270
930.79	12136
930.894	12060
930.998	12106
931.103	12163
931.207	11863
931.311	11809
931.415	11642
931.519	11455
931.623	11497
