Data from test_V78500241_2677.txt Node
Date: Fri Mar 25 16:00:20 CST 2022
User: usil
Spectrometer: V785-0024
Trigger mode: 0
Integration Time (sec): 4.000000E-1
Scans to average: 1
Nonlinearity correction enabled: false
Boxcar width: 0
Storing dark spectrum: false
XAxis mode: Wavelengths
Number of Pixels in Spectrum: 1024
>>>>>Begin Spectral Data<<<<<
801.071	28812
801.214	28698
801.356	28497
801.499	28653
801.641	28413
801.783	28318
801.926	28409
802.068	28443
802.211	28337
802.353	28344
802.496	28249
802.638	28177
802.78	28131
802.923	28013
803.065	28074
803.208	28048
803.35	28150
803.492	28348
803.635	28398
803.777	28261
803.919	28455
804.061	28721
804.204	28462
804.346	28398
804.488	28276
804.63	28322
804.773	28303
804.915	28405
805.057	28478
805.199	28249
805.341	28322
805.483	28451
805.626	28421
805.768	28451
805.91	28478
806.052	28512
806.194	28466
806.336	28656
806.478	28584
806.62	28500
806.762	28516
806.904	28656
807.046	28980
807.188	29060
807.33	28991
807.472	28995
807.614	28949
807.756	28923
807.898	28748
808.04	28786
808.182	28713
808.324	28888
808.465	28915
808.607	29094
808.749	29246
808.891	29307
809.033	29330
809.174	29288
809.316	29235
809.458	29326
809.6	29132
809.741	29246
809.883	29360
810.025	29452
810.166	29493
810.308	29604
810.45	29444
810.591	29391
810.733	29315
810.875	29162
811.016	29071
811.158	29155
811.299	29246
811.441	29482
811.582	29337
811.724	29143
811.865	29178
812.007	29216
812.148	29239
812.29	29368
812.431	29254
812.573	29486
812.714	29653
812.855	29668
812.997	29870
813.138	29897
813.279	29741
813.421	29859
813.562	29611
813.703	29592
813.845	29520
813.986	29090
814.127	28980
814.268	28915
814.41	29014
814.551	28873
814.692	29041
814.833	28801
814.974	28942
815.115	28999
815.256	28824
815.397	28759
815.539	28801
815.68	28698
815.821	28694
815.962	28782
816.103	28710
816.244	28615
816.385	28603
816.526	28611
816.666	28318
816.807	28192
816.948	28337
817.089	28344
817.23	28344
817.371	28215
817.512	28249
817.653	28291
817.793	28246
817.934	28280
818.075	28211
818.216	28158
818.356	28207
818.497	28051
818.638	27975
818.778	27945
818.919	28002
819.06	28059
819.2	28223
819.341	28375
819.481	28291
819.622	28478
819.762	28618
819.903	28394
820.043	28333
820.184	28474
820.324	28417
820.465	28500
820.605	28356
820.746	28352
820.886	28181
821.026	28310
821.167	28261
821.307	28382
821.447	28436
821.588	28249
821.728	28196
821.868	27873
822.008	27781
822.149	27667
822.289	27709
822.429	27481
822.569	27351
822.709	27572
822.849	27332
822.99	27310
823.13	27203
823.27	27374
823.41	27020
823.55	26986
823.69	26956
823.83	27077
823.97	27112
824.11	26937
824.25	26842
824.389	26853
824.529	26807
824.669	26872
824.809	27074
824.949	26910
825.089	27024
825.228	26921
825.368	26807
825.508	26754
825.648	26682
825.787	26697
825.927	26910
826.067	26826
826.206	26716
826.346	26758
826.485	26849
826.625	26769
826.765	26838
826.904	26727
827.044	26518
827.183	26537
827.323	26552
827.462	26480
827.601	26495
827.741	26374
827.88	26480
828.02	26431
828.159	26450
828.298	26393
828.437	26511
828.577	26427
828.716	26533
828.855	26484
828.994	26180
829.134	26172
829.273	26161
829.412	26149
829.551	26092
829.69	26153
829.829	26157
829.968	26309
830.107	26229
830.246	26206
830.385	26244
830.524	26107
830.663	25894
830.802	25898
830.941	25624
831.08	25658
831.219	25776
831.357	25883
831.496	26035
831.635	25776
831.774	25731
831.913	25826
832.051	25544
832.19	25647
832.329	25643
832.467	25499
832.606	25422
832.744	25487
832.883	25449
833.022	25537
833.16	25495
833.299	25483
833.437	25434
833.576	25468
833.714	25422
833.852	25605
833.991	25533
834.129	25666
834.267	25590
834.406	25632
834.544	25506
834.682	25445
834.821	25476
834.959	25674
835.097	25483
835.235	25510
835.373	25647
835.511	25537
835.65	25400
835.788	25327
835.926	25324
836.064	25053
836.202	25152
836.34	25327
836.478	25396
836.615	25285
836.753	25293
836.891	25411
837.029	25400
837.167	25263
837.305	25244
837.443	25194
837.58	25126
837.718	25274
837.856	25152
837.993	25126
838.131	25175
838.269	25080
838.406	25057
838.544	24943
838.681	24734
838.819	24802
838.956	24696
839.094	24566
839.231	24688
839.369	24844
839.506	25088
839.643	24795
839.781	24642
839.918	24498
840.055	24620
840.193	24505
840.33	24639
840.467	24574
840.604	24578
840.742	24833
840.879	24505
841.016	24437
841.153	24490
841.29	24658
841.427	24582
841.564	24578
841.701	24574
841.838	24513
841.975	24342
842.112	24338
842.249	24460
842.385	24308
842.522	24388
842.659	24353
842.796	24327
842.933	24346
843.069	24213
843.206	24296
843.343	24338
843.479	24194
843.616	24194
843.752	24030
843.889	24144
844.025	24194
844.162	24072
844.298	24182
844.435	24087
844.571	23996
844.708	24068
844.844	24243
844.98	24186
845.117	24239
845.253	23977
845.389	23958
845.525	23965
845.661	23950
845.798	23767
845.934	23942
846.07	23703
846.206	23748
846.342	23969
846.478	23802
846.614	23531
846.75	23471
846.886	23570
847.022	23505
847.158	23592
847.294	23398
847.429	23337
847.565	23573
847.701	23783
847.837	23307
847.972	23079
848.108	23379
848.244	23303
848.379	23098
848.515	23269
848.65	22980
848.786	23178
848.921	23121
849.057	23246
849.192	23265
849.328	23204
849.463	23117
849.598	22968
849.734	23071
849.869	22919
850.004	22717
850.14	22915
850.275	22877
850.41	22824
850.545	22831
850.68	22896
850.815	22911
850.95	22858
851.085	22965
851.22	22949
851.355	22915
851.49	22892
851.625	22854
851.76	22866
851.895	22843
852.03	22752
852.165	22915
852.299	22908
852.434	22938
852.569	22862
852.703	22995
852.838	23010
852.973	22938
853.107	22984
853.242	22809
853.376	22626
853.511	22584
853.645	22637
853.78	22793
853.914	22759
854.048	22660
854.183	22668
854.317	22698
854.451	22828
854.585	22736
854.72	22736
854.854	22672
854.988	22618
855.122	22733
855.256	22634
855.39	22584
855.524	22809
855.658	22660
855.792	22691
855.926	22668
856.06	22626
856.194	22759
856.327	22634
856.461	22641
856.595	22694
856.729	22641
856.862	22805
856.996	22710
857.13	22763
857.263	22816
857.397	22763
857.53	22717
857.664	22713
857.797	22755
857.931	22721
858.064	22797
858.197	22748
858.331	22675
858.464	22653
858.597	22618
858.731	22660
858.864	22755
858.997	22573
859.13	22717
859.263	22687
859.396	22755
859.529	22660
859.662	22557
859.795	22603
859.928	22664
860.061	22892
860.194	22866
860.327	22748
860.46	22672
860.592	22755
860.725	22866
860.858	22820
860.99	22752
861.123	22519
861.256	22710
861.388	22729
861.521	23292
861.653	22500
861.786	22386
861.918	22554
862.05	22538
862.183	22565
862.315	22519
862.447	22622
862.58	22607
862.712	22344
862.844	22272
862.976	22538
863.108	22363
863.24	22946
863.372	22299
863.504	22322
863.636	22379
863.768	22451
863.9	22367
864.032	22386
864.164	22337
864.296	22348
864.428	22462
864.559	22481
864.691	22379
864.823	22344
864.954	22322
865.086	22557
865.217	22287
865.349	22158
865.48	22268
865.612	22299
865.743	22436
865.875	22242
866.006	22249
866.137	22265
866.269	22325
866.4	22253
866.531	22257
866.662	22147
866.793	22070
866.924	22272
867.055	22200
867.186	22204
867.317	22188
867.448	22192
867.579	22158
867.71	22063
867.841	22135
867.972	22124
868.103	22032
868.233	22234
868.364	22109
868.495	22325
868.625	22386
868.756	22489
868.886	22348
869.017	22318
869.147	22557
869.278	22459
869.408	22379
869.539	22481
869.669	22481
869.799	22531
869.929	22478
870.06	22573
870.19	22801
870.32	22733
870.45	22691
870.58	22683
870.71	23014
870.84	22938
870.97	22733
871.1	22805
871.23	22957
871.36	23060
871.489	22892
871.619	23025
871.749	23109
871.879	23094
872.008	23220
872.138	23136
872.267	23037
872.397	22995
872.526	22812
872.656	22885
872.785	22915
872.915	23155
873.044	23159
873.173	23105
873.303	23124
873.432	23075
873.561	23113
873.69	22972
873.819	23029
873.948	23193
874.077	23105
874.206	23044
874.335	23052
874.464	23041
874.593	23334
874.722	23200
874.851	23353
874.979	23273
875.108	23471
875.237	23067
875.365	23136
875.494	23132
875.623	23307
875.751	23334
875.88	23261
876.008	23402
876.136	23303
876.265	23589
876.393	23687
876.521	23798
876.65	23707
876.778	23615
876.906	23611
877.034	23695
877.162	23592
877.29	23672
877.418	23638
877.546	23516
877.674	23668
877.802	23608
877.93	23729
878.058	23630
878.185	23391
878.313	23566
878.441	23528
878.568	23368
878.696	23497
878.824	23589
878.951	23710
879.079	23866
879.206	23874
879.333	23855
879.461	23581
879.588	23684
879.715	23714
879.842	23863
879.97	23687
880.097	23524
880.224	23429
880.351	23334
880.478	23318
880.605	23376
880.732	23421
880.859	23615
880.986	23463
881.112	23528
881.239	23410
881.366	23105
881.493	23109
881.619	23003
881.746	22850
881.872	22953
881.999	22999
882.125	22965
882.252	22934
882.378	22919
882.505	22968
882.631	22847
882.757	22615
882.883	22694
883.01	22675
883.136	22626
883.262	22546
883.388	22508
883.514	22580
883.64	22729
883.766	22588
883.892	22447
884.018	22421
884.143	22580
884.269	22637
884.395	22344
884.52	22421
884.646	22291
884.772	22284
884.897	22204
885.023	22390
885.148	22390
885.274	22417
885.399	22363
885.524	22284
885.65	22215
885.775	22268
885.9	22230
886.025	22371
886.15	22363
886.275	22234
886.4	22181
886.525	22280
886.65	22173
886.775	22234
886.9	22299
887.025	22451
887.149	22211
887.274	22112
887.399	22021
887.523	22143
887.648	21941
887.773	22029
887.897	22067
888.021	22048
888.146	21838
888.27	22082
888.395	22158
888.519	22070
888.643	22162
888.767	22143
888.891	21991
889.015	21941
889.139	21899
889.263	21755
889.387	21956
889.511	22090
889.635	21934
889.759	21884
889.883	21838
890.006	21846
890.13	21842
890.254	21732
890.377	21850
890.501	21648
890.624	21622
890.748	21606
890.871	21428
890.995	21454
891.118	21336
891.241	21435
891.364	21359
891.488	21458
891.611	21450
891.734	21310
891.857	21454
891.98	21317
892.103	21355
892.226	21313
892.349	21325
892.471	21123
892.594	21321
892.717	21325
892.839	21161
892.962	21428
893.085	21374
893.207	21214
893.33	21150
893.452	21184
893.575	21363
893.697	21268
893.819	21348
893.941	21488
894.064	21321
894.186	21135
894.308	21096
894.43	21249
894.552	21397
894.674	21249
894.796	21135
894.918	21169
895.04	21260
895.161	21268
895.283	21188
895.405	21192
895.526	21268
895.648	21150
895.769	21279
895.891	21211
896.012	21287
896.134	21207
896.255	21207
896.376	21135
896.498	21272
896.619	21188
896.74	21317
896.861	21188
896.982	21485
897.103	21785
897.224	21447
897.345	21428
897.466	21389
897.587	21428
897.708	21488
897.828	21515
897.949	21405
898.07	21199
898.19	21317
898.311	21469
898.431	21473
898.552	21504
898.672	21435
898.792	21450
898.913	21359
899.033	21233
899.153	21317
899.273	21066
899.393	21195
899.513	21169
899.633	21104
899.753	21272
899.873	21100
899.993	21211
900.113	21104
900.232	21180
900.352	21096
900.472	21017
900.591	20891
900.711	21013
900.83	20975
900.95	21051
901.069	20952
901.189	20819
901.308	20617
901.427	20450
901.546	20415
901.665	20587
901.784	20450
901.904	20324
902.023	20278
902.141	20008
902.26	19997
902.379	20043
902.498	19940
902.617	19989
902.735	19974
902.854	19921
902.973	19955
903.091	19666
903.21	19655
903.328	19727
903.446	19578
903.565	19392
903.683	19499
903.801	19335
903.919	19301
904.038	19327
904.156	19255
904.274	19304
904.392	19183
904.51	19225
904.627	19232
904.745	19297
904.863	19263
904.981	18954
905.098	18848
905.216	18802
905.334	18993
905.451	18977
905.569	18776
905.686	18863
905.803	18875
905.921	18715
906.038	18707
906.155	18589
906.272	18574
906.389	18601
906.506	18296
906.623	18395
906.74	18395
906.857	18262
906.974	18270
907.091	18369
907.208	18544
907.324	18448
907.441	18258
907.557	18228
907.674	18140
907.79	18117
907.907	18026
908.023	18167
908.139	18152
908.256	18026
908.372	17901
908.488	18019
908.604	17752
908.72	17752
908.836	17729
908.952	17771
909.068	17836
909.184	17897
909.3	17760
909.415	17718
909.531	17756
909.647	17570
909.762	17562
909.878	17395
909.993	17566
910.108	17452
910.224	17406
910.339	17383
910.454	17296
910.57	17330
910.685	17231
910.8	17562
910.915	17516
911.03	17288
911.145	17128
911.259	17105
911.374	17014
911.489	16991
911.604	16946
911.718	16778
911.833	16866
911.947	16733
912.062	16622
912.176	16850
912.291	16812
912.405	16862
912.519	17022
912.633	16972
912.748	16938
912.862	16717
912.976	16660
913.09	16565
913.204	16565
913.318	16577
913.431	16687
913.545	16634
913.659	16698
913.772	16664
913.886	16352
914	16428
914.113	16554
914.226	16630
914.34	16527
914.453	16325
914.566	16428
914.68	16261
914.793	16246
914.906	16112
915.019	16082
915.132	16021
915.245	15964
915.358	16013
915.47	15907
915.583	15956
915.696	15983
915.809	16093
915.921	16169
916.034	15979
916.146	15854
916.259	15975
916.371	15930
916.483	15987
916.595	15781
916.708	15793
916.82	15793
916.932	15686
917.044	15831
917.156	15789
917.268	15648
917.38	15652
917.491	15584
917.603	15584
917.715	15614
917.826	15808
917.938	15538
918.049	15545
918.161	15561
918.272	15732
918.384	15637
918.495	15622
918.606	15469
918.717	15348
918.828	15401
918.939	15454
919.05	15336
919.161	15420
919.272	15169
919.383	15211
919.494	15481
919.604	15564
919.715	15340
919.826	15275
919.936	15336
920.047	15393
920.157	15382
920.267	15534
920.378	15348
920.488	15249
920.598	15420
920.708	15641
920.818	15488
920.928	15477
921.038	15599
921.148	15572
921.258	15340
921.368	15237
921.477	15131
921.587	15032
921.697	14956
921.806	15097
921.916	14929
922.025	14773
922.134	14678
922.244	14735
922.353	14693
922.462	14541
922.571	14644
922.68	14358
922.789	14298
922.898	14358
923.007	14282
923.116	14370
923.224	14282
923.333	14278
923.442	14229
923.55	14096
923.659	14172
923.767	14271
923.876	14046
923.984	14050
924.092	14088
924.201	14100
924.309	14043
924.417	14119
924.525	13959
924.633	13974
924.741	14815
924.849	13814
924.956	13978
925.064	13788
925.172	13662
925.279	13674
925.387	13780
925.494	13639
925.602	13791
925.709	13753
925.816	13582
925.924	13601
926.031	13655
926.138	13651
926.245	13693
926.352	13548
926.459	13658
926.566	13765
926.673	13537
926.779	13525
926.886	13449
926.993	13247
927.099	13320
927.206	13179
927.312	13091
927.419	13297
927.525	13301
927.631	13209
927.737	13008
927.843	13050
927.95	12939
928.056	13046
928.162	13088
928.267	13107
928.373	13537
928.479	13110
928.585	12856
928.69	13061
928.796	13019
928.901	12886
929.007	12753
929.112	12837
929.218	12920
929.323	12715
929.428	12658
929.533	12863
929.638	12738
929.743	12787
929.848	12730
929.953	12757
930.058	12578
930.163	12357
930.267	12399
930.372	12525
930.477	12376
930.581	12589
930.685	12502
930.79	12289
930.894	12308
930.998	12277
931.103	12437
931.207	11984
931.311	11988
931.415	11897
931.519	11680
931.623	11611
