Data from test_V78500241_2650.txt Node
Date: Fri Mar 25 16:00:09 CST 2022
User: usil
Spectrometer: V785-0024
Trigger mode: 0
Integration Time (sec): 4.000000E-1
Scans to average: 1
Nonlinearity correction enabled: false
Boxcar width: 0
Storing dark spectrum: false
XAxis mode: Wavelengths
Number of Pixels in Spectrum: 1024
>>>>>Begin Spectral Data<<<<<
801.071	28584
801.214	28637
801.356	28485
801.499	28382
801.641	28314
801.783	28223
801.926	28246
802.068	28230
802.211	28097
802.353	28082
802.496	27972
802.638	28021
802.78	27823
802.923	27774
803.065	27804
803.208	27823
803.35	27979
803.492	28032
803.635	28059
803.777	28090
803.919	28234
804.061	28561
804.204	28246
804.346	28051
804.488	28044
804.63	28124
804.773	28074
804.915	28314
805.057	28226
805.199	28135
805.341	28173
805.483	28398
805.626	28196
805.768	28249
805.91	28150
806.052	28303
806.194	28207
806.336	28535
806.478	28344
806.62	28211
806.762	28409
806.904	28603
807.046	28786
807.188	28691
807.33	28752
807.472	28850
807.614	28809
807.756	28793
807.898	28565
808.04	28470
808.182	28493
808.324	28634
808.465	28592
808.607	28919
808.749	29022
808.891	29067
809.033	29128
809.174	29178
809.316	28888
809.458	29018
809.6	29147
809.741	29022
809.883	29159
810.025	29341
810.166	29258
810.308	29204
810.45	29273
810.591	29147
810.733	28847
810.875	29113
811.016	28995
811.158	28877
811.299	29079
811.441	29246
811.582	29113
811.724	29128
811.865	28999
812.007	29079
812.148	28980
812.29	29143
812.431	29189
812.573	29364
812.714	29387
812.855	29512
812.997	29581
813.138	29760
813.279	29684
813.421	29554
813.562	29345
813.703	29429
813.845	29425
813.986	28946
814.127	28869
814.268	28816
814.41	28672
814.551	28793
814.692	28896
814.833	28592
814.974	28702
815.115	28797
815.256	28455
815.397	28497
815.539	28592
815.68	28409
815.821	28421
815.962	28554
816.103	28421
816.244	28352
816.385	28360
816.526	28276
816.666	28074
816.807	27972
816.948	28177
817.089	28059
817.23	28215
817.371	28139
817.512	27941
817.653	28032
817.793	27964
817.934	27983
818.075	27994
818.216	28032
818.356	28055
818.497	27899
818.638	27720
818.778	27911
818.919	27816
819.06	27880
819.2	27816
819.341	28230
819.481	28090
819.622	28192
819.762	28493
819.903	28257
820.043	28219
820.184	28131
820.324	28090
820.465	28322
820.605	28082
820.746	28173
820.886	27934
821.026	28246
821.167	28086
821.307	28188
821.447	28006
821.588	27953
821.728	27842
821.868	27713
822.008	27606
822.149	27450
822.289	27515
822.429	27176
822.569	27275
822.709	27287
822.849	27055
822.99	27150
823.13	27024
823.27	27020
823.41	26804
823.55	26731
823.69	26785
823.83	26727
823.97	26815
824.11	26708
824.25	26693
824.389	26625
824.529	26648
824.669	26636
824.809	26655
824.949	26804
825.089	26883
825.228	26746
825.368	26484
825.508	26503
825.648	26697
825.787	26518
825.927	26617
826.067	26488
826.206	26560
826.346	26469
826.485	26484
826.625	26438
826.765	26727
826.904	26606
827.044	26328
827.183	26278
827.323	26221
827.462	26218
827.601	26248
827.741	26267
827.88	26366
828.02	26176
828.159	26214
828.298	26275
828.437	26343
828.577	26199
828.716	26408
828.855	26237
828.994	26005
829.134	25921
829.273	26100
829.412	25890
829.551	25902
829.69	26008
829.829	26035
829.968	26043
830.107	26024
830.246	25902
830.385	25925
830.524	25677
830.663	25765
830.802	25883
830.941	25438
831.08	25438
831.219	25670
831.357	25662
831.496	25746
831.635	25616
831.774	25487
831.913	25422
832.051	25419
832.19	25312
832.329	25304
832.467	25236
832.606	25080
832.744	25076
832.883	25270
833.022	25137
833.16	25346
833.299	25236
833.437	25251
833.576	25331
833.714	25289
833.852	25422
833.991	25373
834.129	25468
834.267	25396
834.406	25266
834.544	25289
834.682	25346
834.821	25190
834.959	25556
835.097	25084
835.235	25415
835.373	25312
835.511	25312
835.65	25145
835.788	25168
835.926	25289
836.064	24863
836.202	24935
836.34	25061
836.478	25236
836.615	25053
836.753	25110
836.891	25168
837.029	25137
837.167	25095
837.305	25080
837.443	25000
837.58	25023
837.718	25103
837.856	24913
837.993	24776
838.131	24890
838.269	24741
838.406	24814
838.544	24817
838.681	24681
838.819	24719
838.956	24395
839.094	24448
839.231	24509
839.369	24502
839.506	24837
839.643	24738
839.781	24441
839.918	24289
840.055	24471
840.193	24353
840.33	24319
840.467	24315
840.604	24281
840.742	24563
840.879	24258
841.016	24247
841.153	24235
841.29	24475
841.427	24277
841.564	24319
841.701	24254
841.838	24247
841.975	24182
842.112	24270
842.249	24163
842.385	24110
842.522	24357
842.659	24117
842.796	24072
842.933	24095
843.069	24018
843.206	24045
843.343	24015
843.479	24117
843.616	24057
843.752	23878
843.889	23794
844.025	23954
844.162	23878
844.298	23988
844.435	23847
844.571	23954
844.708	23980
844.844	23999
844.98	23946
845.117	24022
845.253	23813
845.389	23611
845.525	23764
845.661	23760
845.798	23585
845.934	23676
846.07	23558
846.206	23596
846.342	23665
846.478	23577
846.614	23497
846.75	23174
846.886	23307
847.022	23417
847.158	23292
847.294	23250
847.429	23277
847.565	23269
847.701	23543
847.837	23056
847.972	22987
848.108	23018
848.244	23105
848.379	22843
848.515	22828
848.65	22862
848.786	22976
848.921	22965
849.057	23132
849.192	22999
849.328	22934
849.463	22782
849.598	22812
849.734	22835
849.869	22694
850.004	22603
850.14	22683
850.275	22691
850.41	22466
850.545	22565
850.68	22622
850.815	22729
850.95	22713
851.085	22805
851.22	22805
851.355	22668
851.49	22702
851.625	22637
851.76	22641
851.895	22527
852.03	22538
852.165	22630
852.299	22710
852.434	22759
852.569	22641
852.703	22778
852.838	22668
852.973	22763
853.107	22740
853.242	22611
853.376	22580
853.511	22291
853.645	22436
853.78	22531
853.914	22664
854.048	22485
854.183	22451
854.317	22531
854.451	22569
854.585	22500
854.72	22603
854.854	22588
854.988	22440
855.122	22538
855.256	22367
855.39	22538
855.524	22592
855.658	22516
855.792	22493
855.926	22538
856.06	22432
856.194	22493
856.327	22459
856.461	22417
856.595	22512
856.729	22405
856.862	22675
856.996	22470
857.13	22584
857.263	22713
857.397	22557
857.53	22459
857.664	22493
857.797	22569
857.931	22641
858.064	22478
858.197	22584
858.331	22382
858.464	22451
858.597	22485
858.731	22443
858.864	22390
858.997	22546
859.13	22440
859.263	22546
859.396	22596
859.529	22394
859.662	22417
859.795	22443
859.928	22504
860.061	22656
860.194	22664
860.327	22550
860.46	22474
860.592	22577
860.725	22626
860.858	22660
860.99	22462
861.123	22242
861.256	22394
861.388	22500
861.521	23265
861.653	22356
861.786	22337
861.918	22257
862.05	22280
862.183	22413
862.315	22280
862.447	22413
862.58	22402
862.712	22303
862.844	22177
862.976	22215
863.108	22242
863.24	22500
863.372	22150
863.504	22177
863.636	22109
863.768	22234
863.9	22169
864.032	22078
864.164	22215
864.296	22299
864.428	22246
864.559	22287
864.691	22284
864.823	22112
864.954	22097
865.086	22135
865.217	22154
865.349	22074
865.48	22006
865.612	22078
865.743	22215
865.875	22154
866.006	21953
866.137	22093
866.269	22067
866.4	22044
866.531	21911
866.662	21960
866.793	22017
866.924	21956
867.055	22021
867.186	22017
867.317	21972
867.448	21895
867.579	21907
867.71	21804
867.841	21907
867.972	21911
868.103	21899
868.233	21956
868.364	22021
868.495	22032
868.625	22158
868.756	22390
868.886	22139
869.017	22223
869.147	22360
869.278	22451
869.408	22223
869.539	22162
869.669	22341
869.799	22344
869.929	22344
870.06	22382
870.19	22561
870.32	22527
870.45	22641
870.58	22622
870.71	22809
870.84	22740
870.97	22618
871.1	22588
871.23	22938
871.36	22816
871.489	22660
871.619	22710
871.749	22809
871.879	22843
872.008	22980
872.138	22835
872.267	22839
872.397	22577
872.526	22687
872.656	22721
872.785	22683
872.915	22915
873.044	22987
873.173	22725
873.303	22835
873.432	22885
873.561	22881
873.69	22866
873.819	22797
873.948	22858
874.077	22824
874.206	22733
874.335	22915
874.464	22919
874.593	23090
874.722	22984
874.851	23025
874.979	23220
875.108	23170
875.237	22896
875.365	22953
875.494	23044
875.623	23086
875.751	23086
875.88	23147
876.008	23280
876.136	23056
876.265	23490
876.393	23520
876.521	23463
876.65	23482
876.778	23444
876.906	23368
877.034	23353
877.162	23425
877.29	23376
877.418	23452
877.546	23402
877.674	23353
877.802	23379
877.93	23531
878.058	23341
878.185	23353
878.313	23326
878.441	23334
878.568	23307
878.696	23372
878.824	23410
878.951	23425
879.079	23634
879.206	23710
879.333	23585
879.461	23425
879.588	23604
879.715	23592
879.842	23642
879.97	23360
880.097	23223
880.224	23277
880.351	23299
880.478	23299
880.605	23166
880.732	23277
880.859	23356
880.986	23185
881.112	23147
881.239	23102
881.366	23006
881.493	22946
881.619	22717
881.746	22953
881.872	22816
881.999	22755
882.125	22759
882.252	22961
882.378	22774
882.505	22877
882.631	22599
882.757	22417
882.883	22569
883.01	22531
883.136	22303
883.262	22310
883.388	22318
883.514	22478
883.64	22363
883.766	22363
883.892	22219
884.018	22257
884.143	22356
884.269	22329
884.395	22173
884.52	22074
884.646	22128
884.772	21972
884.897	22006
885.023	22131
885.148	22223
885.274	22344
885.399	22242
885.524	21964
885.65	22040
885.775	22002
885.9	22124
886.025	22200
886.15	22173
886.275	22044
886.4	21945
886.525	22025
886.65	21930
886.775	22017
886.9	22185
887.025	22097
887.149	22101
887.274	21888
887.399	21854
887.523	21835
887.648	21762
887.773	21751
887.897	21869
888.021	21854
888.146	21709
888.27	22040
888.395	21956
888.519	21880
888.643	21785
888.767	21888
888.891	21652
889.015	21641
889.139	21675
889.263	21686
889.387	21762
889.511	21861
889.635	21812
889.759	21538
889.883	21656
890.006	21800
890.13	21705
890.254	21557
890.377	21504
890.501	21405
890.624	21329
890.748	21443
890.871	21211
890.995	21192
891.118	21260
891.241	21176
891.364	21150
891.488	21473
891.611	21230
891.734	21173
891.857	21157
891.98	21283
892.103	21138
892.226	21142
892.349	21127
892.471	21104
892.594	21036
892.717	21119
892.839	21123
892.962	21161
893.085	21203
893.207	21051
893.33	21093
893.452	20963
893.575	21161
893.697	21081
893.819	21176
893.941	21207
894.064	21154
894.186	21192
894.308	21039
894.43	21180
894.552	21241
894.674	21131
894.796	21089
894.918	21096
895.04	21077
895.161	21119
895.283	21154
895.405	20967
895.526	21123
895.648	21070
895.769	21085
895.891	21070
896.012	21123
896.134	21058
896.255	21085
896.376	20990
896.498	21051
896.619	21085
896.74	20971
896.861	20956
896.982	21393
897.103	21435
897.224	21306
897.345	21245
897.466	21256
897.587	21264
897.708	21336
897.828	21393
897.949	21214
898.07	21066
898.19	21100
898.311	21340
898.431	21249
898.552	21214
898.672	21214
898.792	21420
898.913	21245
899.033	21226
899.153	21013
899.273	20826
899.393	20944
899.513	20979
899.633	21039
899.753	21047
899.873	20937
899.993	21028
900.113	21043
900.232	20906
900.352	20952
900.472	20838
900.591	20769
900.711	20788
900.83	20651
900.95	20849
901.069	20807
901.189	20579
901.308	20309
901.427	20351
901.546	20244
901.665	20366
901.784	20309
901.904	20164
902.023	20157
902.141	19898
902.26	19921
902.379	19951
902.498	19864
902.617	19803
902.735	19959
902.854	19826
902.973	19689
903.091	19472
903.21	19506
903.328	19495
903.446	19373
903.565	19251
903.683	19381
903.801	19251
903.919	19289
904.038	19255
904.156	19152
904.274	19103
904.392	19015
904.51	18966
904.627	19038
904.745	19122
904.863	19129
904.981	18935
905.098	18642
905.216	18650
905.334	18726
905.451	18768
905.569	18658
905.686	18776
905.803	18715
905.921	18513
906.038	18555
906.155	18513
906.272	18441
906.389	18429
906.506	18330
906.623	18182
906.74	18133
906.857	18083
906.974	18129
907.091	18315
907.208	18342
907.324	18232
907.441	18083
907.557	18026
907.674	17916
907.79	17828
907.907	17790
908.023	18022
908.139	17859
908.256	17863
908.372	17863
908.488	17718
908.604	17813
908.72	17668
908.836	17748
908.952	17589
909.068	17703
909.184	17714
909.3	17642
909.415	17649
909.531	17691
909.647	17452
909.762	17337
909.878	17284
909.993	17296
910.108	17379
910.224	17330
910.339	17318
910.454	17307
910.57	17197
910.685	17025
910.8	17410
910.915	17322
911.03	17090
911.145	16915
911.259	16892
911.374	17045
911.489	16824
911.604	16831
911.718	16694
911.833	16615
911.947	16573
912.062	16584
912.176	16702
912.291	16736
912.405	16771
912.519	16858
912.633	16812
912.748	16706
912.862	16717
912.976	16508
913.09	16375
913.204	16424
913.318	16481
913.431	16615
913.545	16634
913.659	16497
913.772	16440
913.886	16249
914	16242
914.113	16379
914.226	16466
914.34	16367
914.453	16188
914.566	16268
914.68	16192
914.793	15983
914.906	15918
915.019	15842
915.132	15827
915.245	15724
915.358	15869
915.47	15827
915.583	15892
915.696	15800
915.809	15945
915.921	15888
916.034	15679
916.146	15705
916.259	15671
916.371	15869
916.483	15838
916.595	15656
916.708	15667
916.82	15637
916.932	15633
917.044	15690
917.156	15534
917.268	15542
917.38	15469
917.491	15408
917.603	15496
917.715	15504
917.826	15519
917.938	15355
918.049	15386
918.161	15401
918.272	15595
918.384	15564
918.495	15408
918.606	15264
918.717	15173
918.828	15249
918.939	15207
919.05	15077
919.161	15173
919.272	15066
919.383	15081
919.494	15249
919.604	15473
919.715	15176
919.826	15100
919.936	15157
920.047	15245
920.157	15173
920.267	15260
920.378	15154
920.488	15070
920.598	15272
920.708	15496
920.818	15275
920.928	15294
921.038	15462
921.148	15382
921.258	15108
921.368	15085
921.477	14876
921.587	14933
921.697	14864
921.806	14838
921.916	14720
922.025	14568
922.134	14476
922.244	14568
922.353	14526
922.462	14476
922.571	14324
922.68	14172
922.789	14130
922.898	14206
923.007	14115
923.116	14153
923.224	14103
923.333	14180
923.442	14046
923.55	13913
923.659	14046
923.767	14046
923.876	13909
923.984	14024
924.092	13799
924.201	13921
924.309	13830
924.417	13887
924.525	13780
924.633	13868
924.741	14746
924.849	13655
924.956	13746
925.064	13677
925.172	13578
925.279	13521
925.387	13476
925.494	13544
925.602	13700
925.709	13563
925.816	13422
925.924	13556
926.031	13575
926.138	13510
926.245	13476
926.352	13373
926.459	13487
926.566	13552
926.673	13438
926.779	13324
926.886	13324
926.993	13110
927.099	13038
927.206	13076
927.312	13004
927.419	13133
927.525	13099
927.631	13118
927.737	13076
927.843	12863
927.95	12890
928.056	12886
928.162	12928
928.267	12928
928.373	13426
928.479	12973
928.585	12741
928.69	12825
928.796	12837
928.901	12715
929.007	12623
929.112	12745
929.218	12692
929.323	12658
929.428	12650
929.533	12665
929.638	12578
929.743	12513
929.848	12635
929.953	12570
930.058	12418
930.163	12224
930.267	12346
930.372	12410
930.477	12194
930.581	12471
930.685	12273
930.79	12133
930.894	12121
930.998	12083
931.103	12235
931.207	11965
931.311	11824
931.415	11817
931.519	11562
931.623	11535
