Data from test_V78500241_590.txt Node
Date: Fri Mar 25 15:45:53 CST 2022
User: usil
Spectrometer: V785-0024
Trigger mode: 0
Integration Time (sec): 4.000000E-1
Scans to average: 1
Nonlinearity correction enabled: false
Boxcar width: 0
Storing dark spectrum: false
XAxis mode: Wavelengths
Number of Pixels in Spectrum: 1024
>>>>>Begin Spectral Data<<<<<
801.071	27751
801.214	27580
801.356	27344
801.499	27150
801.641	27009
801.783	27104
801.926	27252
802.068	27089
802.211	27009
802.353	27055
802.496	26773
802.638	26857
802.78	26788
802.923	26724
803.065	26682
803.208	26762
803.35	26762
803.492	26861
803.635	27005
803.777	26838
803.919	27020
804.061	27256
804.204	26868
804.346	26804
804.488	26796
804.63	26845
804.773	26842
804.915	26948
805.057	27005
805.199	26876
805.341	26979
805.483	26940
805.626	26975
805.768	27070
805.91	26967
806.052	27089
806.194	27131
806.336	27249
806.478	27062
806.62	27302
806.762	27283
806.904	27359
807.046	27698
807.188	27427
807.33	27538
807.472	27526
807.614	27435
807.756	27351
807.898	27359
808.04	27367
808.182	27264
808.324	27370
808.465	27207
808.607	27519
808.749	27603
808.891	27568
809.033	27728
809.174	27812
809.316	27652
809.458	27755
809.6	27717
809.741	27778
809.883	27884
810.025	27998
810.166	27895
810.308	27994
810.45	27930
810.591	28048
810.733	27717
810.875	27808
811.016	27701
811.158	27660
811.299	27850
811.441	27892
811.582	27907
811.724	27869
811.865	27762
812.007	27778
812.148	27816
812.29	27838
812.431	27895
812.573	28147
812.714	28131
812.855	28185
812.997	28348
813.138	28401
813.279	28478
813.421	28363
813.562	28124
813.703	27888
813.845	27979
813.986	27660
814.127	27553
814.268	27504
814.41	27500
814.551	27370
814.692	27348
814.833	27397
814.974	27321
815.115	27340
815.256	27245
815.397	27192
815.539	27226
815.68	27214
815.821	27142
815.962	27192
816.103	27184
816.244	27047
816.385	27005
816.526	27066
816.666	26765
816.807	26587
816.948	26731
817.089	26800
817.23	26731
817.371	26678
817.512	26693
817.653	26731
817.793	26549
817.934	26594
818.075	26731
818.216	26796
818.356	26640
818.497	26678
818.638	26507
818.778	26545
818.919	26461
819.06	26423
819.2	26488
819.341	26674
819.481	26651
819.622	26880
819.762	26956
819.903	26979
820.043	26960
820.184	26689
820.324	26785
820.465	26830
820.605	26724
820.746	26807
820.886	26754
821.026	26758
821.167	26743
821.307	26815
821.447	26796
821.588	26602
821.728	26488
821.868	26347
822.008	26252
822.149	26149
822.289	26172
822.429	25852
822.569	25814
822.709	25791
822.849	25704
822.99	25731
823.13	25582
823.27	25590
823.41	25453
823.55	25381
823.69	25506
823.83	25499
823.97	25343
824.11	25232
824.25	25247
824.389	25285
824.529	25392
824.669	25381
824.809	25491
824.949	25411
825.089	25411
825.228	25445
825.368	25228
825.508	25331
825.648	25244
825.787	25244
825.927	25133
826.067	25091
826.206	25129
826.346	25091
826.485	25137
826.625	25278
826.765	25228
826.904	25129
827.044	24730
827.183	24875
827.323	24886
827.462	25057
827.601	24894
827.741	24951
827.88	24916
828.02	24768
828.159	24890
828.298	24894
828.437	24958
828.577	24806
828.716	24977
828.855	24817
828.994	24669
829.134	24479
829.273	24639
829.412	24532
829.551	24547
829.69	24601
829.829	24544
829.968	24787
830.107	24711
830.246	24692
830.385	24380
830.524	24433
830.663	24414
830.802	24311
830.941	24190
831.08	24213
831.219	24216
831.357	24281
831.496	24433
831.635	24110
831.774	24133
831.913	24178
832.051	23855
832.19	24083
832.329	23889
832.467	23863
832.606	23817
832.744	23817
832.883	23783
833.022	23878
833.16	23859
833.299	23969
833.437	23855
833.576	24015
833.714	24022
833.852	24041
833.991	23920
834.129	24136
834.267	23863
834.406	23920
834.544	23927
834.682	23958
834.821	23946
834.959	24038
835.097	23863
835.235	23984
835.373	23863
835.511	23969
835.65	23691
835.788	23752
835.926	23680
836.064	23592
836.202	23512
836.34	23859
836.478	23942
836.615	23710
836.753	23684
836.891	23794
837.029	23710
837.167	23828
837.305	23604
837.443	23600
837.58	23433
837.718	23741
837.856	23642
837.993	23505
838.131	23604
838.269	23493
838.406	23455
838.544	23372
838.681	23162
838.819	23185
838.956	23064
839.094	23079
839.231	23067
839.369	23299
839.506	23417
839.643	23326
839.781	23010
839.918	22942
840.055	23105
840.193	23056
840.33	22972
840.467	23083
840.604	23140
840.742	23261
840.879	22873
841.016	22957
841.153	22866
841.29	23197
841.427	22942
841.564	22961
841.701	22949
841.838	23010
841.975	22824
842.112	22987
842.249	22839
842.385	22847
842.522	23003
842.659	22873
842.796	22744
842.933	22641
843.069	22546
843.206	22649
843.343	22710
843.479	22569
843.616	22767
843.752	22550
843.889	22455
844.025	22649
844.162	22436
844.298	22603
844.435	22508
844.571	22527
844.708	22554
844.844	22664
844.98	22554
845.117	22656
845.253	22462
845.389	22291
845.525	22348
845.661	22303
845.798	22147
845.934	22291
846.07	22128
846.206	22200
846.342	22440
846.478	22306
846.614	22097
846.75	21983
846.886	21884
847.022	22025
847.158	21991
847.294	21960
847.429	22063
847.565	21869
847.701	22177
847.837	21705
847.972	21633
848.108	21804
848.244	21789
848.379	21656
848.515	21599
848.65	21622
848.786	21492
848.921	21545
849.057	21583
849.192	21736
849.328	21595
849.463	21477
849.598	21462
849.734	21443
849.869	21370
850.004	21336
850.14	21329
850.275	21283
850.41	21203
850.545	21207
850.68	21313
850.815	21317
850.95	21256
851.085	21488
851.22	21367
851.355	21428
851.49	21313
851.625	21310
851.76	21241
851.895	21279
852.03	21272
852.165	21291
852.299	21348
852.434	21363
852.569	21329
852.703	21367
852.838	21370
852.973	21523
853.107	21534
853.242	21344
853.376	21237
853.511	20925
853.645	21085
853.78	21245
853.914	21256
854.048	21256
854.183	20990
854.317	21112
854.451	21397
854.585	21245
854.72	21108
854.854	21142
854.988	21047
855.122	21142
855.256	21009
855.39	21017
855.524	21157
855.658	21165
855.792	21154
855.926	21214
856.06	21218
856.194	21173
856.327	21233
856.461	21165
856.595	21108
856.729	21138
856.862	21245
856.996	21275
857.13	21138
857.263	21294
857.397	21302
857.53	21165
857.664	21207
857.797	21291
857.931	21180
858.064	21173
858.197	21207
858.331	21165
858.464	21085
858.597	20956
858.731	21176
858.864	21005
858.997	21131
859.13	20967
859.263	21127
859.396	21230
859.529	21127
859.662	21062
859.795	21074
859.928	21093
860.061	21237
860.194	21230
860.327	21184
860.46	21176
860.592	21150
860.725	21252
860.858	21294
860.99	21184
861.123	21017
861.256	21161
861.388	21070
861.521	21641
861.653	21116
861.786	20895
861.918	20998
862.05	21001
862.183	21013
862.315	21062
862.447	21127
862.58	21013
862.712	20918
862.844	20727
862.976	20872
863.108	20937
863.24	21435
863.372	20750
863.504	20880
863.636	20876
863.768	20800
863.9	20963
864.032	20811
864.164	20819
864.296	20819
864.428	20960
864.559	20956
864.691	20861
864.823	20743
864.954	20781
865.086	20697
865.217	20754
865.349	20613
865.48	20857
865.612	20644
865.743	20902
865.875	20735
866.006	20667
866.137	20705
866.269	20773
866.4	20712
866.531	20674
866.662	20621
866.793	20651
866.924	20792
867.055	20670
867.186	20674
867.317	20659
867.448	20602
867.579	20735
867.71	20571
867.841	20484
867.972	20769
868.103	20727
868.233	20826
868.364	20602
868.495	20731
868.625	20906
868.756	20891
868.886	20933
869.017	20902
869.147	21009
869.278	20975
869.408	21024
869.539	20986
869.669	21100
869.799	20944
869.929	21020
870.06	21093
870.19	21176
870.32	21161
870.45	21218
870.58	21256
870.71	21370
870.84	21420
870.97	21439
871.1	21279
871.23	21572
871.36	21500
871.489	21374
871.619	21477
871.749	21469
871.879	21557
872.008	21686
872.138	21599
872.267	21416
872.397	21492
872.526	21302
872.656	21340
872.785	21260
872.915	21507
873.044	21561
873.173	21618
873.303	21572
873.432	21519
873.561	21622
873.69	21519
873.819	21557
873.948	21603
874.077	21523
874.206	21488
874.335	21450
874.464	21618
874.593	21766
874.722	21713
874.851	21873
874.979	21816
875.108	21823
875.237	21816
875.365	21610
875.494	21785
875.623	21907
875.751	21762
875.88	21759
876.008	21937
876.136	21903
876.265	22188
876.393	22257
876.521	22322
876.65	22261
876.778	22242
876.906	22162
877.034	22116
877.162	22124
877.29	22032
877.418	22105
877.546	22181
877.674	22158
877.802	22051
877.93	22051
878.058	22029
878.185	22101
878.313	22109
878.441	22234
878.568	21945
878.696	22116
878.824	22169
878.951	22219
879.079	22177
879.206	22474
879.333	22394
879.461	21972
879.588	22143
879.715	22242
879.842	22371
879.97	22173
880.097	21915
880.224	21983
880.351	22010
880.478	21991
880.605	21880
880.732	21869
880.859	22246
880.986	22021
881.112	21968
881.239	21804
881.366	21709
881.493	21633
881.619	21549
881.746	21500
881.872	21580
881.999	21492
882.125	21405
882.252	21477
882.378	21466
882.505	21561
882.631	21340
882.757	21279
882.883	21226
883.01	21230
883.136	21142
883.262	21077
883.388	21051
883.514	21325
883.64	21165
883.766	21074
883.892	20956
884.018	21051
884.143	21055
884.269	21245
884.395	20921
884.52	20891
884.646	20960
884.772	20872
884.897	20823
885.023	20864
885.148	20944
885.274	20906
885.399	20842
885.524	20891
885.65	20925
885.775	20902
885.9	20796
886.025	20910
886.15	20979
886.275	20785
886.4	20857
886.525	20918
886.65	20826
886.775	20765
886.9	21017
887.025	20952
887.149	20918
887.274	20762
887.399	20526
887.523	20602
887.648	20701
887.773	20556
887.897	20617
888.021	20724
888.146	20545
888.27	20762
888.395	20811
888.519	20648
888.643	20625
888.767	20708
888.891	20587
889.015	20549
889.139	20427
889.263	20408
889.387	20549
889.511	20697
889.635	20632
889.759	20381
889.883	20377
890.006	20339
890.13	20499
890.254	20336
890.377	20412
890.501	20142
890.624	20020
890.748	20172
890.871	20138
890.995	20024
891.118	19963
891.241	20138
891.364	19894
891.488	20126
891.611	20081
891.734	19997
891.857	20119
891.98	19894
892.103	19989
892.226	19982
892.349	20039
892.471	19856
892.594	19921
892.717	19955
892.839	19845
892.962	19807
893.085	20058
893.207	19883
893.33	19868
893.452	19791
893.575	19944
893.697	19837
893.819	20039
893.941	20233
894.064	20035
894.186	19906
894.308	19856
894.43	19944
894.552	20134
894.674	19936
894.796	19723
894.918	19944
895.04	19864
895.161	19947
895.283	20027
895.405	19906
895.526	19967
895.648	19925
895.769	19978
895.891	20050
896.012	19890
896.134	19909
896.255	19921
896.376	19799
896.498	19913
896.619	19967
896.74	19967
896.861	19974
896.982	20161
897.103	20385
897.224	20202
897.345	20138
897.466	20043
897.587	20168
897.708	20256
897.828	20183
897.949	20122
898.07	19970
898.19	20039
898.311	20214
898.431	20084
898.552	20065
898.672	20176
898.792	20290
898.913	20134
899.033	20039
899.153	20062
899.273	19917
899.393	19776
899.513	19875
899.633	19921
899.753	19959
899.873	19849
899.993	19989
900.113	19898
900.232	19868
900.352	19791
900.472	19803
900.591	19693
900.711	19635
900.83	19655
900.95	19753
901.069	19681
901.189	19575
901.308	19434
901.427	19316
901.546	19293
901.665	19285
901.784	19270
901.904	19145
902.023	19076
902.141	18863
902.26	18821
902.379	18973
902.498	18772
902.617	18684
902.735	18875
902.854	18688
902.973	18726
903.091	18441
903.21	18403
903.328	18429
903.446	18426
903.565	18277
903.683	18273
903.801	18186
903.919	18220
904.038	18167
904.156	18076
904.274	18098
904.392	18019
904.51	18011
904.627	18026
904.745	18095
904.863	18148
904.981	17927
905.098	17676
905.216	17676
905.334	17726
905.451	17767
905.569	17668
905.686	17771
905.803	17642
905.921	17528
906.038	17608
906.155	17497
906.272	17356
906.389	17429
906.506	17231
906.623	17239
906.74	17239
906.857	17178
906.974	17064
907.091	17379
907.208	17337
907.324	17269
907.441	17079
907.557	17018
907.674	17006
907.79	16984
907.907	16938
908.023	16869
908.139	17048
908.256	16828
908.372	16839
908.488	16820
908.604	16736
908.72	16675
908.836	16713
908.952	16615
909.068	16702
909.184	16721
909.3	16744
909.415	16736
909.531	16618
909.647	16493
909.762	16421
909.878	16417
909.993	16371
910.108	16253
910.224	16428
910.339	16424
910.454	16196
910.57	16188
910.685	16063
910.8	16462
910.915	16386
911.03	16169
911.145	15994
911.259	15972
911.374	16036
911.489	15880
911.604	15861
911.718	15747
911.833	15698
911.947	15785
912.062	15530
912.176	15728
912.291	15778
912.405	15682
912.519	16025
912.633	15926
912.748	15785
912.862	15709
912.976	15568
913.09	15279
913.204	15416
913.318	15633
913.431	15584
913.545	15679
913.659	15633
913.772	15511
913.886	15420
914	15428
914.113	15420
914.226	15408
914.34	15447
914.453	15180
914.566	15382
914.68	15241
914.793	15230
914.906	14994
915.019	15032
915.132	14918
915.245	14956
915.358	14906
915.47	14868
915.583	15005
915.696	14887
915.809	15123
915.921	15051
916.034	14937
916.146	14796
916.259	14823
916.371	14921
916.483	14864
916.595	14880
916.708	14853
916.82	14769
916.932	14743
917.044	14727
917.156	14758
917.268	14530
917.38	14663
917.491	14686
917.603	14617
917.715	14678
917.826	14705
917.938	14556
918.049	14446
918.161	14484
918.272	14750
918.384	14663
918.495	14568
918.606	14427
918.717	14324
918.828	14473
918.939	14434
919.05	14317
919.161	14362
919.272	14252
919.383	14282
919.494	14396
919.604	14579
919.715	14362
919.826	14221
919.936	14355
920.047	14415
920.157	14377
920.267	14533
920.378	14374
920.488	14286
920.598	14556
920.708	14697
920.818	14507
920.928	14434
921.038	14537
921.148	14533
921.258	14320
921.368	14256
921.477	14058
921.587	14065
921.697	13970
921.806	14111
921.916	13909
922.025	13864
922.134	13693
922.244	13670
922.353	13799
922.462	13700
922.571	13499
922.68	13453
922.789	13377
922.898	13430
923.007	13327
923.116	13411
923.224	13369
923.333	13312
923.442	13175
923.55	13217
923.659	13282
923.767	13282
923.876	13164
923.984	13320
924.092	13046
924.201	13118
924.309	13141
924.417	13107
924.525	13110
924.633	13133
924.741	14069
924.849	12935
924.956	13053
925.064	12863
925.172	12749
925.279	12726
925.387	12814
925.494	12825
925.602	13019
925.709	12875
925.816	12681
925.924	12707
926.031	12875
926.138	12738
926.245	12726
926.352	12627
926.459	12741
926.566	12848
926.673	12787
926.779	12604
926.886	12559
926.993	12388
927.099	12441
927.206	12376
927.312	12311
927.419	12448
927.525	12350
927.631	12426
927.737	12300
927.843	12254
927.95	12064
928.056	12235
928.162	12277
928.267	12292
928.373	12791
928.479	12330
928.585	12091
928.69	12163
928.796	12209
928.901	12030
929.007	11878
929.112	12045
929.218	12026
929.323	11946
929.428	11923
929.533	12038
929.638	11840
929.743	11798
929.848	11874
929.953	11893
930.058	11851
930.163	11707
930.267	11665
930.372	11832
930.477	11566
930.581	11870
930.685	11695
930.79	11608
930.894	11581
930.998	11570
931.103	11611
931.207	11330
931.311	11265
931.415	11060
931.519	10866
931.623	10820
