Data from test_V78500241_2737.txt Node
Date: Fri Mar 25 16:00:45 CST 2022
User: usil
Spectrometer: V785-0024
Trigger mode: 0
Integration Time (sec): 4.000000E-1
Scans to average: 1
Nonlinearity correction enabled: false
Boxcar width: 0
Storing dark spectrum: false
XAxis mode: Wavelengths
Number of Pixels in Spectrum: 1024
>>>>>Begin Spectral Data<<<<<
801.071	28622
801.214	28546
801.356	28447
801.499	28337
801.641	28280
801.783	28181
801.926	28253
802.068	28295
802.211	28192
802.353	28238
802.496	27991
802.638	27979
802.78	27717
802.923	27709
803.065	27755
803.208	27899
803.35	28036
803.492	28040
803.635	28059
803.777	27903
803.919	28253
804.061	28440
804.204	28166
804.346	28109
804.488	28093
804.63	28112
804.773	28063
804.915	28219
805.057	28249
805.199	28196
805.341	28185
805.483	28249
805.626	28306
805.768	28185
805.91	28246
806.052	28322
806.194	28280
806.336	28386
806.478	28344
806.62	28303
806.762	28580
806.904	28561
807.046	28725
807.188	28904
807.33	28744
807.472	28763
807.614	28630
807.756	28763
807.898	28596
808.04	28577
808.182	28557
808.324	28634
808.465	28618
808.607	28866
808.749	28911
808.891	29029
809.033	29132
809.174	29041
809.316	28862
809.458	28927
809.6	28919
809.741	29056
809.883	29052
810.025	29223
810.166	29220
810.308	29239
810.45	29223
810.591	29079
810.733	29033
810.875	29003
811.016	28919
811.158	28797
811.299	29121
811.441	29098
811.582	29197
811.724	29037
811.865	28866
812.007	28858
812.148	28877
812.29	29105
812.431	29166
812.573	29379
812.714	29379
812.855	29410
812.997	29570
813.138	29703
813.279	29676
813.421	29539
813.562	29433
813.703	29220
813.845	29239
813.986	28820
814.127	28786
814.268	28645
814.41	28736
814.551	28698
814.692	28793
814.833	28531
814.974	28546
815.115	28497
815.256	28755
815.397	28611
815.539	28592
815.68	28554
815.821	28363
815.962	28493
816.103	28493
816.244	28325
816.385	28234
816.526	28204
816.666	28006
816.807	27926
816.948	28036
817.089	28051
817.23	28006
817.371	27918
817.512	27998
817.653	27914
817.793	28040
817.934	27926
818.075	27956
818.216	28055
818.356	27884
818.497	27941
818.638	27838
818.778	27892
818.919	27728
819.06	27797
819.2	27865
819.341	28006
819.481	27934
819.622	28166
819.762	28284
819.903	28394
820.043	28246
820.184	28055
820.324	28360
820.465	28192
820.605	28200
820.746	28230
820.886	27972
821.026	28162
821.167	28048
821.307	27991
821.447	27998
821.588	27922
821.728	27808
821.868	27663
822.008	27545
822.149	27595
822.289	27435
822.429	27211
822.569	27070
822.709	27252
822.849	27085
822.99	27142
823.13	26994
823.27	27058
823.41	26849
823.55	26758
823.69	26872
823.83	26731
823.97	26712
824.11	26579
824.25	26583
824.389	26598
824.529	26800
824.669	26655
824.809	26899
824.949	26701
825.089	26811
825.228	26705
825.368	26442
825.508	26511
825.648	26594
825.787	26617
825.927	26598
826.067	26537
826.206	26697
826.346	26537
826.485	26545
826.625	26511
826.765	26575
826.904	26621
827.044	26248
827.183	26278
827.323	26206
827.462	26233
827.601	26275
827.741	26225
827.88	26332
828.02	26145
828.159	26381
828.298	26187
828.437	26176
828.577	26214
828.716	26233
828.855	26191
828.994	25989
829.134	26103
829.273	25875
829.412	25921
829.551	25936
829.69	25947
829.829	26035
829.968	26050
830.107	26001
830.246	25921
830.385	25928
830.524	25871
830.663	25856
830.802	25677
830.941	25525
831.08	25556
831.219	25601
831.357	25632
831.496	25780
831.635	25472
831.774	25510
831.913	25362
832.051	25365
832.19	25388
832.329	25403
832.467	25331
832.606	25137
832.744	25175
832.883	25255
833.022	25148
833.16	25297
833.299	25202
833.437	25198
833.576	25377
833.714	25278
833.852	25236
833.991	25327
834.129	25426
834.267	25415
834.406	25369
834.544	25278
834.682	25228
834.821	25365
834.959	25506
835.097	25126
835.235	25339
835.373	25232
835.511	25244
835.65	25076
835.788	25103
835.926	25004
836.064	24954
836.202	24977
836.34	25046
836.478	25190
836.615	25012
836.753	25023
836.891	25042
837.029	25031
837.167	25076
837.305	25053
837.443	25012
837.58	24897
837.718	25057
837.856	24867
837.993	24848
838.131	24901
838.269	24795
838.406	24901
838.544	24817
838.681	24616
838.819	24688
838.956	24353
839.094	24388
839.231	24365
839.369	24616
839.506	24837
839.643	24684
839.781	24380
839.918	24243
840.055	24361
840.193	24296
840.33	24292
840.467	24194
840.604	24338
840.742	24551
840.879	24209
841.016	24140
841.153	24228
841.29	24338
841.427	24395
841.564	24319
841.701	24369
841.838	24140
841.975	24258
842.112	24262
842.249	24136
842.385	24174
842.522	24201
842.659	24030
842.796	24049
842.933	24072
843.069	23851
843.206	23996
843.343	24194
843.479	23950
843.616	24171
843.752	23965
843.889	23882
844.025	23855
844.162	23946
844.298	23950
844.435	23855
844.571	23783
844.708	23901
844.844	24007
844.98	24007
845.117	23988
845.253	23737
845.389	23699
845.525	23805
845.661	23699
845.798	23589
845.934	23608
846.07	23539
846.206	23577
846.342	23623
846.478	23566
846.614	23322
846.75	23242
846.886	23250
847.022	23372
847.158	23391
847.294	23284
847.429	23372
847.565	23345
847.701	23478
847.837	23075
847.972	22991
848.108	23193
848.244	23094
848.379	22938
848.515	22843
848.65	22877
848.786	22866
848.921	22896
849.057	23094
849.192	22866
849.328	22923
849.463	22976
849.598	22835
849.734	22778
849.869	22698
850.004	22599
850.14	22618
850.275	22660
850.41	22611
850.545	22649
850.68	22668
850.815	22653
850.95	22660
851.085	22786
851.22	22801
851.355	22660
851.49	22782
851.625	22596
851.76	22645
851.895	22538
852.03	22611
852.165	22622
852.299	22740
852.434	22702
852.569	22607
852.703	22713
852.838	22702
852.973	22862
853.107	22782
853.242	22409
853.376	22607
853.511	22348
853.645	22470
853.78	22554
853.914	22504
854.048	22535
854.183	22436
854.317	22409
854.451	22603
854.585	22344
854.72	22478
854.854	22516
854.988	22443
855.122	22550
855.256	22360
855.39	22508
855.524	22436
855.658	22569
855.792	22432
855.926	22603
856.06	22478
856.194	22569
856.327	22455
856.461	22413
856.595	22470
856.729	22386
856.862	22561
856.996	22485
857.13	22402
857.263	22493
857.397	22470
857.53	22512
857.664	22398
857.797	22523
857.931	22573
858.064	22489
858.197	22554
858.331	22440
858.464	22451
858.597	22398
858.731	22432
858.864	22341
858.997	22447
859.13	22550
859.263	22398
859.396	22455
859.529	22398
859.662	22649
859.795	22451
859.928	22466
860.061	22618
860.194	22634
860.327	22542
860.46	22447
860.592	22497
860.725	22596
860.858	22660
860.99	22478
861.123	22424
861.256	22436
861.388	22428
861.521	23189
861.653	22314
861.786	22253
861.918	22402
862.05	22276
862.183	22333
862.315	22531
862.447	22432
862.58	22440
862.712	22166
862.844	22192
862.976	22310
863.108	22295
863.24	22752
863.372	22196
863.504	22348
863.636	22097
863.768	22280
863.9	22135
864.032	22112
864.164	22143
864.296	22150
864.428	22181
864.559	22219
864.691	22192
864.823	22287
864.954	22238
865.086	22253
865.217	22112
865.349	22097
865.48	22059
865.612	22097
865.743	22143
865.875	22124
866.006	21918
866.137	22017
866.269	22036
866.4	22082
866.531	21937
866.662	21953
866.793	21915
866.924	22036
867.055	21998
867.186	21979
867.317	21857
867.448	21876
867.579	21964
867.71	21797
867.841	21915
867.972	21998
868.103	21960
868.233	21956
868.364	22017
868.495	22078
868.625	22200
868.756	22337
868.886	22188
869.017	22238
869.147	22299
869.278	22272
869.408	22128
869.539	22116
869.669	22215
869.799	22356
869.929	22455
870.06	22261
870.19	22417
870.32	22440
870.45	22554
870.58	22641
870.71	22668
870.84	22759
870.97	22512
871.1	22641
871.23	22717
871.36	22778
871.489	22774
871.619	22797
871.749	22854
871.879	22778
872.008	22877
872.138	22782
872.267	22820
872.397	22752
872.526	22713
872.656	22687
872.785	22672
872.915	22858
873.044	22946
873.173	22797
873.303	22892
873.432	22885
873.561	22839
873.69	22889
873.819	22820
873.948	22820
874.077	22797
874.206	22896
874.335	22691
874.464	22885
874.593	23109
874.722	23025
874.851	23044
874.979	22946
875.108	23060
875.237	23075
875.365	22991
875.494	22934
875.623	23098
875.751	23060
875.88	23132
876.008	23200
876.136	23208
876.265	23497
876.393	23528
876.521	23512
876.65	23577
876.778	23497
876.906	23482
877.034	23463
877.162	23433
877.29	23368
877.418	23402
877.546	23562
877.674	23296
877.802	23448
877.93	23425
878.058	23379
878.185	23239
878.313	23376
878.441	23299
878.568	23181
878.696	23364
878.824	23497
878.951	23330
879.079	23558
879.206	23585
879.333	23562
879.461	23391
879.588	23566
879.715	23566
879.842	23687
879.97	23410
880.097	23288
880.224	23170
880.351	23326
880.478	23185
880.605	23185
880.732	23098
880.859	23322
880.986	23140
881.112	23121
881.239	23105
881.366	22968
881.493	22824
881.619	22801
881.746	22812
881.872	22710
881.999	22820
882.125	22679
882.252	22839
882.378	22717
882.505	22847
882.631	22645
882.757	22424
882.883	22519
883.01	22386
883.136	22519
883.262	22337
883.388	22215
883.514	22363
883.64	22443
883.766	22413
883.892	22200
884.018	22226
884.143	22337
884.269	22588
884.395	22188
884.52	22109
884.646	22059
884.772	21949
884.897	21956
885.023	22097
885.148	22238
885.274	22211
885.399	22219
885.524	22173
885.65	22215
885.775	22101
885.9	21960
886.025	22379
886.15	22158
886.275	22040
886.4	21991
886.525	22143
886.65	21991
886.775	21998
886.9	22017
887.025	22268
887.149	22025
887.274	21800
887.399	21918
887.523	21865
887.648	21743
887.773	21831
887.897	21934
888.021	21831
888.146	21785
888.27	21949
888.395	22006
888.519	21918
888.643	21979
888.767	21926
888.891	21793
889.015	21633
889.139	21618
889.263	21705
889.387	21717
889.511	21949
889.635	21842
889.759	21523
889.883	21572
890.006	21595
890.13	21751
890.254	21561
890.377	21538
890.501	21481
890.624	21359
890.748	21382
890.871	21203
890.995	21275
891.118	21131
891.241	21233
891.364	21100
891.488	21195
891.611	21161
891.734	21230
891.857	21184
891.98	21249
892.103	21264
892.226	21058
892.349	21070
892.471	21066
892.594	21123
892.717	21020
892.839	21066
892.962	21070
893.085	21127
893.207	21150
893.33	21017
893.452	20990
893.575	21077
893.697	21062
893.819	21154
893.941	21389
894.064	21157
894.186	21161
894.308	20967
894.43	21226
894.552	21123
894.674	21085
894.796	20906
894.918	21066
895.04	20990
895.161	21081
895.283	21074
895.405	20918
895.526	21074
895.648	21009
895.769	20880
895.891	21028
896.012	20998
896.134	21032
896.255	21009
896.376	21001
896.498	21051
896.619	21119
896.74	20967
896.861	21104
896.982	21351
897.103	21428
897.224	21306
897.345	21370
897.466	21161
897.587	21245
897.708	21306
897.828	21313
897.949	21241
898.07	21074
898.19	21127
898.311	21329
898.431	21154
898.552	21211
898.672	21325
898.792	21332
898.913	21127
899.033	21131
899.153	20990
899.273	20960
899.393	20921
899.513	21051
899.633	20963
899.753	20994
899.873	20948
899.993	20994
900.113	21013
900.232	20849
900.352	20868
900.472	20788
900.591	20773
900.711	20796
900.83	20648
900.95	20864
901.069	20788
901.189	20541
901.308	20267
901.427	20339
901.546	20298
901.665	20305
901.784	20305
901.904	20233
902.023	20161
902.141	20005
902.26	19826
902.379	19883
902.498	19780
902.617	19776
902.735	19833
902.854	19696
902.973	19738
903.091	19552
903.21	19445
903.328	19499
903.446	19339
903.565	19278
903.683	19324
903.801	19164
903.919	19263
904.038	19198
904.156	19072
904.274	19072
904.392	19034
904.51	18993
904.627	19069
904.745	19065
904.863	19091
904.981	18730
905.098	18703
905.216	18658
905.334	18681
905.451	18696
905.569	18753
905.686	18551
905.803	18711
905.921	18475
906.038	18661
906.155	18429
906.272	18407
906.389	18334
906.506	18270
906.623	18152
906.74	18224
906.857	18072
906.974	18129
907.091	18403
907.208	18323
907.324	18273
907.441	18171
907.557	17965
907.674	17916
907.79	17874
907.907	17916
908.023	17859
908.139	17977
908.256	17889
908.372	17828
908.488	17805
908.604	17611
908.72	17611
908.836	17684
908.952	17646
909.068	17649
909.184	17741
909.3	17581
909.415	17699
909.531	17691
909.647	17421
909.762	17387
909.878	17265
909.993	17368
910.108	17208
910.224	17254
910.339	17277
910.454	17258
910.57	17140
910.685	17094
910.8	17235
910.915	17307
911.03	17147
911.145	17025
911.259	16953
911.374	16889
911.489	16790
911.604	16793
911.718	16554
911.833	16679
911.947	16508
912.062	16558
912.176	16679
912.291	16675
912.405	16645
912.519	16809
912.633	16930
912.748	16694
912.862	16569
912.976	16409
913.09	16424
913.204	16367
913.318	16398
913.431	16550
913.545	16550
913.659	16626
913.772	16428
913.886	16360
914	16261
914.113	16352
914.226	16394
914.34	16325
914.453	16204
914.566	16268
914.68	16173
914.793	16074
914.906	15835
915.019	15846
915.132	15762
915.245	15800
915.358	15903
915.47	15804
915.583	15800
915.696	15926
915.809	15880
915.921	15930
916.034	15766
916.146	15766
916.259	15755
916.371	15865
916.483	15789
916.595	15606
916.708	15671
916.82	15595
916.932	15633
917.044	15603
917.156	15660
917.268	15466
917.38	15561
917.491	15340
917.603	15549
917.715	15595
917.826	15492
917.938	15488
918.049	15340
918.161	15367
918.272	15481
918.384	15481
918.495	15428
918.606	15241
918.717	15184
918.828	15199
918.939	15252
919.05	15150
919.161	15135
919.272	15036
919.383	15089
919.494	15237
919.604	15336
919.715	15203
919.826	15047
919.936	15123
920.047	15336
920.157	15108
920.267	15393
920.378	15146
920.488	15150
920.598	15260
920.708	15405
920.818	15256
920.928	15173
921.038	15428
921.148	15272
921.258	15089
921.368	15028
921.477	14845
921.587	14891
921.697	14746
921.806	14853
921.916	14792
922.025	14610
922.134	14476
922.244	14419
922.353	14579
922.462	14389
922.571	14244
922.68	14138
922.789	14111
922.898	14210
923.007	14005
923.116	14229
923.224	14225
923.333	14191
923.442	14046
923.55	13978
923.659	14062
923.767	14084
923.876	13898
923.984	13989
924.092	13890
924.201	13955
924.309	13871
924.417	13883
924.525	13731
924.633	13811
924.741	14701
924.849	13552
924.956	13753
925.064	13548
925.172	13548
925.279	13487
925.387	13563
925.494	13590
925.602	13639
925.709	13540
925.816	13495
925.924	13502
926.031	13616
926.138	13495
926.245	13525
926.352	13403
926.459	13483
926.566	13529
926.673	13358
926.779	13358
926.886	13213
926.993	13145
927.099	13141
927.206	13000
927.312	13046
927.419	13110
927.525	13015
927.631	13110
927.737	13012
927.843	12943
927.95	12711
928.056	12882
928.162	12894
928.267	12943
928.373	13365
928.479	12985
928.585	12730
928.69	12894
928.796	12863
928.901	12783
929.007	12665
929.112	12707
929.218	12631
929.323	12635
929.428	12684
929.533	12741
929.638	12502
929.743	12612
929.848	12593
929.953	12544
930.058	12456
930.163	12224
930.267	12247
930.372	12441
930.477	12243
930.581	12547
930.685	12304
930.79	12152
930.894	12175
930.998	12140
931.103	12323
931.207	11927
931.311	11790
931.415	11665
931.519	11436
931.623	11505
