Data from test_V78500241_999.txt Node
Date: Fri Mar 25 15:48:43 CST 2022
User: usil
Spectrometer: V785-0024
Trigger mode: 0
Integration Time (sec): 4.000000E-1
Scans to average: 1
Nonlinearity correction enabled: false
Boxcar width: 0
Storing dark spectrum: false
XAxis mode: Wavelengths
Number of Pixels in Spectrum: 1024
>>>>>Begin Spectral Data<<<<<
801.071	28188
801.214	28196
801.356	27880
801.499	27972
801.641	27755
801.783	27823
801.926	27827
802.068	27694
802.211	27759
802.353	27644
802.496	27504
802.638	27488
802.78	27450
802.923	27340
803.065	27370
803.208	27332
803.35	27431
803.492	27481
803.635	27603
803.777	27526
803.919	27618
804.061	27911
804.204	27656
804.346	27656
804.488	27606
804.63	27663
804.773	27519
804.915	27572
805.057	27652
805.199	27523
805.341	27747
805.483	27888
805.626	27823
805.768	27572
805.91	27747
806.052	27804
806.194	27736
806.336	28010
806.478	27789
806.62	27800
806.762	27880
806.904	28124
807.046	28390
807.188	28303
807.33	28211
807.472	28356
807.614	28128
807.756	28246
807.898	27987
808.04	28196
808.182	28086
808.324	28181
808.465	28090
808.607	28265
808.749	28538
808.891	28573
809.033	28626
809.174	28580
809.316	28512
809.458	28375
809.6	28356
809.741	28656
809.883	28717
810.025	28911
810.166	28782
810.308	28812
810.45	28790
810.591	28713
810.733	28443
810.875	28401
811.016	28310
811.158	28249
811.299	28611
811.441	28664
811.582	28675
811.724	28580
811.865	28459
812.007	28523
812.148	28459
812.29	28462
812.431	28812
812.573	28763
812.714	28949
812.855	29132
812.997	29044
813.138	29185
813.279	29121
813.421	29105
813.562	28938
813.703	28828
813.845	28801
813.986	28436
814.127	28295
814.268	28154
814.41	28242
814.551	28219
814.692	28341
814.833	28074
814.974	28261
815.115	28135
815.256	27979
815.397	28029
815.539	28017
815.68	27922
815.821	27907
815.962	27975
816.103	27972
816.244	27762
816.385	27778
816.526	27804
816.666	27454
816.807	27420
816.948	27435
817.089	27648
817.23	27466
817.371	27401
817.512	27427
817.653	27348
817.793	27427
817.934	27583
818.075	27690
818.216	27561
818.356	27397
818.497	27275
818.638	27218
818.778	27241
818.919	27340
819.06	27408
819.2	27462
819.341	27492
819.481	27545
819.622	27580
819.762	27899
819.903	27599
820.043	27675
820.184	27534
820.324	27595
820.465	27576
820.605	27557
820.746	27526
820.886	27511
821.026	27667
821.167	27344
821.307	27511
821.447	27477
821.588	27408
821.728	27325
821.868	27009
822.008	27013
822.149	26990
822.289	27001
822.429	26697
822.569	26705
822.709	26606
822.849	26530
822.99	26518
823.13	26298
823.27	26389
823.41	26286
823.55	26103
823.69	26271
823.83	26400
823.97	26377
824.11	26081
824.25	26062
824.389	26138
824.529	26259
824.669	26282
824.809	26271
824.949	26221
825.089	26221
825.228	26142
825.368	25947
825.508	25997
825.648	26012
825.787	26058
825.927	26100
826.067	26008
826.206	26081
826.346	26081
826.485	26119
826.625	26062
826.765	25966
826.904	25978
827.044	25776
827.183	25704
827.323	25696
827.462	25765
827.601	25837
827.741	25772
827.88	25772
828.02	25757
828.159	25655
828.298	25769
828.437	25677
828.577	25708
828.716	25887
828.855	25632
828.994	25457
829.134	25506
829.273	25441
829.412	25419
829.551	25381
829.69	25468
829.829	25578
829.968	25544
830.107	25362
830.246	25407
830.385	25419
830.524	25369
830.663	25198
830.802	25187
830.941	25164
831.08	25042
831.219	25148
831.357	25190
831.496	25316
831.635	25175
831.774	24943
831.913	24875
832.051	24894
832.19	24802
832.329	24856
832.467	24692
832.606	24665
832.744	24703
832.883	24730
833.022	24658
833.16	24703
833.299	24707
833.437	24719
833.576	24878
833.714	24753
833.852	24768
833.991	24783
834.129	24757
834.267	24890
834.406	24738
834.544	24783
834.682	24726
834.821	24627
834.959	24951
835.097	24749
835.235	24776
835.373	24829
835.511	24741
835.65	24604
835.788	24616
835.926	24429
836.064	24350
836.202	24426
836.34	24498
836.478	24745
836.615	24505
836.753	24627
836.891	24620
837.029	24536
837.167	24429
837.305	24410
837.443	24513
837.58	24414
837.718	24566
837.856	24338
837.993	24403
838.131	24399
838.269	24262
838.406	24330
838.544	24205
838.681	24121
838.819	24072
838.956	23847
839.094	23878
839.231	23988
839.369	24041
839.506	24323
839.643	24243
839.781	23893
839.918	23802
840.055	23878
840.193	23851
840.33	23691
840.467	23775
840.604	23893
840.742	24182
840.879	23767
841.016	23748
841.153	23722
841.29	23847
841.427	23691
841.564	23741
841.701	23779
841.838	23668
841.975	23786
842.112	23756
842.249	23539
842.385	23649
842.522	23790
842.659	23649
842.796	23653
842.933	23493
843.069	23589
843.206	23524
843.343	23509
843.479	23630
843.616	23611
843.752	23425
843.889	23391
844.025	23512
844.162	23299
844.298	23402
844.435	23311
844.571	23356
844.708	23330
844.844	23463
844.98	23463
845.117	23425
845.253	23261
845.389	23166
845.525	23349
845.661	23162
845.798	22976
845.934	23079
846.07	22957
846.206	23056
846.342	23143
846.478	22919
846.614	22896
846.75	22687
846.886	22763
847.022	22812
847.158	22820
847.294	22858
847.429	22904
847.565	22717
847.701	23014
847.837	22413
847.972	22382
848.108	22672
848.244	22580
848.379	22405
848.515	22367
848.65	22413
848.786	22405
848.921	22284
849.057	22432
849.192	22481
849.328	22394
849.463	22405
849.598	22211
849.734	22223
849.869	22215
850.004	22070
850.14	22048
850.275	22158
850.41	22074
850.545	22013
850.68	22078
850.815	22169
850.95	22105
851.085	22242
851.22	22192
851.355	22272
851.49	22010
851.625	22143
851.76	22116
851.895	22036
852.03	22055
852.165	22181
852.299	22067
852.434	22177
852.569	22090
852.703	22101
852.838	22147
852.973	22337
853.107	22242
853.242	22181
853.376	22013
853.511	21850
853.645	21926
853.78	22070
853.914	21899
854.048	21865
854.183	21979
854.317	22067
854.451	22135
854.585	21930
854.72	21987
854.854	21945
854.988	21937
855.122	21831
855.256	21705
855.39	21873
855.524	22131
855.658	21994
855.792	21937
855.926	22017
856.06	21972
856.194	21972
856.327	21876
856.461	21838
856.595	21926
856.729	21884
856.862	22067
856.996	21956
857.13	21956
857.263	22181
857.397	22078
857.53	21964
857.664	21930
857.797	22112
857.931	22051
858.064	21975
858.197	21915
858.331	21899
858.464	21816
858.597	21842
858.731	21941
858.864	21918
858.997	21937
859.13	22013
859.263	21964
859.396	22036
859.529	21972
859.662	21930
859.795	21895
859.928	22067
860.061	22192
860.194	22143
860.327	21987
860.46	22002
860.592	21998
860.725	22196
860.858	22044
860.99	22059
861.123	21827
861.256	21873
861.388	21838
861.521	22683
861.653	21751
861.786	21846
861.918	21694
862.05	21842
862.183	21903
862.315	21892
862.447	21968
862.58	21766
862.712	21656
862.844	21618
862.976	21755
863.108	21663
863.24	21915
863.372	21610
863.504	21694
863.636	21587
863.768	21797
863.9	21660
864.032	21572
864.164	21576
864.296	21743
864.428	21770
864.559	21808
864.691	21538
864.823	21694
864.954	21587
865.086	21641
865.217	21523
865.349	21500
865.48	21583
865.612	21545
865.743	21667
865.875	21633
866.006	21428
866.137	21553
866.269	21454
866.4	21576
866.531	21530
866.662	21466
866.793	21477
866.924	21435
867.055	21515
867.186	21583
867.317	21507
867.448	21336
867.579	21367
867.71	21359
867.841	21416
867.972	21538
868.103	21454
868.233	21622
868.364	21439
868.495	21629
868.625	21583
868.756	21793
868.886	21603
869.017	21660
869.147	21812
869.278	21876
869.408	21762
869.539	21698
869.669	21759
869.799	21747
869.929	21930
870.06	21865
870.19	22082
870.32	22017
870.45	21926
870.58	22097
870.71	22261
870.84	22238
870.97	22078
871.1	22013
871.23	22379
871.36	22299
871.489	22070
871.619	22238
871.749	22226
871.879	22405
872.008	22379
872.138	22440
872.267	22322
872.397	22230
872.526	22116
872.656	22135
872.785	22109
872.915	22344
873.044	22398
873.173	22314
873.303	22352
873.432	22405
873.561	22367
873.69	22402
873.819	22379
873.948	22413
874.077	22379
874.206	22341
874.335	22382
874.464	22481
874.593	22626
874.722	22550
874.851	22531
874.979	22611
875.108	22546
875.237	22470
875.365	22402
875.494	22630
875.623	22500
875.751	22459
875.88	22630
876.008	22592
876.136	22793
876.265	22991
876.393	23090
876.521	23083
876.65	23014
876.778	22873
876.906	22885
877.034	22984
877.162	22824
877.29	22748
877.418	22892
877.546	22915
877.674	22793
877.802	22843
877.93	22904
878.058	22721
878.185	22615
878.313	22873
878.441	22869
878.568	22725
878.696	22763
878.824	22850
878.951	22915
879.079	23006
879.206	23174
879.333	23075
879.461	22904
879.588	23010
879.715	23086
879.842	23193
879.97	23006
880.097	22767
880.224	22596
880.351	22748
880.478	22847
880.605	22622
880.732	22584
880.859	23003
880.986	22721
881.112	22683
881.239	22508
881.366	22344
881.493	22398
881.619	22211
881.746	22261
881.872	22207
881.999	22322
882.125	22196
882.252	22303
882.378	22417
882.505	22394
882.631	22036
882.757	22013
882.883	22029
883.01	21972
883.136	21915
883.262	21842
883.388	21819
883.514	22040
883.64	21895
883.766	21793
883.892	21701
884.018	21625
884.143	21926
884.269	21873
884.395	21705
884.52	21549
884.646	21625
884.772	21644
884.897	21500
885.023	21679
885.148	21629
885.274	21793
885.399	21846
885.524	21564
885.65	21610
885.775	21637
885.9	21553
886.025	21690
886.15	21564
886.275	21629
886.4	21564
886.525	21583
886.65	21549
886.775	21523
886.9	21766
887.025	21728
887.149	21481
887.274	21355
887.399	21428
887.523	21268
887.648	21260
887.773	21138
887.897	21393
888.021	21336
888.146	21283
888.27	21507
888.395	21412
888.519	21420
888.643	21424
888.767	21397
888.891	21260
889.015	21237
889.139	21264
889.263	21165
889.387	21180
889.511	21237
889.635	21260
889.759	21043
889.883	21028
890.006	21112
890.13	21294
890.254	20982
890.377	21017
890.501	21024
890.624	20853
890.748	20994
890.871	20883
890.995	20659
891.118	20724
891.241	20788
891.364	20720
891.488	20975
891.611	20697
891.734	20689
891.857	20785
891.98	20697
892.103	20804
892.226	20632
892.349	20758
892.471	20609
892.594	20583
892.717	20689
892.839	20514
892.962	20583
893.085	20670
893.207	20590
893.33	20625
893.452	20526
893.575	20644
893.697	20606
893.819	20769
893.941	20796
894.064	20648
894.186	20473
894.308	20545
894.43	20720
894.552	20708
894.674	20670
894.796	20598
894.918	20579
895.04	20514
895.161	20724
895.283	20693
895.405	20545
895.526	20632
895.648	20575
895.769	20568
895.891	20606
896.012	20705
896.134	20632
896.255	20526
896.376	20590
896.498	20609
896.619	20606
896.74	20568
896.861	20598
896.982	20910
897.103	21085
897.224	20788
897.345	20823
897.466	20777
897.587	20735
897.708	20826
897.828	20933
897.949	20781
898.07	20606
898.19	20621
898.311	20910
898.431	20918
898.552	20777
898.672	20918
898.792	20891
898.913	20773
899.033	20712
899.153	20659
899.273	20541
899.393	20537
899.513	20648
899.633	20545
899.753	20507
899.873	20583
899.993	20499
900.113	20629
900.232	20469
900.352	20488
900.472	20412
900.591	20290
900.711	20317
900.83	20248
900.95	20537
901.069	20328
901.189	20168
901.308	20050
901.427	19871
901.546	19947
901.665	19818
901.784	19883
901.904	19925
902.023	19666
902.141	19499
902.26	19495
902.379	19460
902.498	19415
902.617	19316
902.735	19521
902.854	19441
902.973	19228
903.091	19042
903.21	19019
903.328	19076
903.446	18913
903.565	18897
903.683	18973
903.801	18749
903.919	18817
904.038	18859
904.156	18677
904.274	18692
904.392	18642
904.51	18597
904.627	18582
904.745	18623
904.863	18757
904.981	18513
905.098	18216
905.216	18407
905.334	18342
905.451	18285
905.569	18296
905.686	18323
905.803	18285
905.921	18152
906.038	18213
906.155	18087
906.272	18076
906.389	18045
906.506	17828
906.623	17817
906.74	17840
906.857	17767
906.974	17775
907.091	17874
907.208	18083
907.324	17847
907.441	17824
907.557	17543
907.674	17528
907.79	17467
907.907	17455
908.023	17532
908.139	17543
908.256	17463
908.372	17463
908.488	17448
908.604	17265
908.72	17208
908.836	17189
908.952	17220
909.068	17303
909.184	17345
909.3	17288
909.415	17258
909.531	17231
909.647	17025
909.762	16949
909.878	17018
909.993	16980
910.108	16984
910.224	16831
910.339	16946
910.454	16854
910.57	16713
910.685	16736
910.8	16953
910.915	16923
911.03	16828
911.145	16580
911.259	16497
911.374	16523
911.489	16405
911.604	16409
911.718	16280
911.833	16322
911.947	16287
912.062	16135
912.176	16367
912.291	16382
912.405	16185
912.519	16535
912.633	16500
912.748	16268
912.862	16276
912.976	16090
913.09	15975
913.204	16086
913.318	16112
913.431	16249
913.545	16154
913.659	16207
913.772	16013
913.886	15941
914	15869
914.113	16059
914.226	16013
914.34	15842
914.453	15850
914.566	15941
914.68	15789
914.793	15743
914.906	15595
915.019	15435
915.132	15439
915.245	15405
915.358	15542
915.47	15496
915.583	15492
915.696	15545
915.809	15545
915.921	15625
916.034	15408
916.146	15363
916.259	15313
916.371	15504
916.483	15412
916.595	15344
916.708	15272
916.82	15340
916.932	15237
917.044	15256
917.156	15283
917.268	15138
917.38	15165
917.491	15104
917.603	15108
917.715	15325
917.826	15176
917.938	15062
918.049	15055
918.161	15123
918.272	15214
918.384	15123
918.495	15024
918.606	14952
918.717	14765
918.828	14929
918.939	14883
919.05	14804
919.161	14861
919.272	14629
919.383	14697
919.494	14864
919.604	15039
919.715	14868
919.826	14750
919.936	14906
920.047	15017
920.157	14887
920.267	15089
920.378	14777
920.488	14880
920.598	15024
920.708	15146
920.818	14941
920.928	15028
921.038	15024
921.148	15039
921.258	14857
921.368	14708
921.477	14598
921.587	14606
921.697	14526
921.806	14541
921.916	14400
922.025	14275
922.134	14161
922.244	14134
922.353	14237
922.462	14001
922.571	13978
922.68	13909
922.789	13818
922.898	13803
923.007	13875
923.116	13879
923.224	13811
923.333	13750
923.442	13666
923.55	13620
923.659	13681
923.767	13712
923.876	13605
923.984	13655
924.092	13556
924.201	13563
924.309	13597
924.417	13525
924.525	13502
924.633	13476
924.741	14389
924.849	13354
924.956	13400
925.064	13266
925.172	13278
925.279	13228
925.387	13301
925.494	13221
925.602	13312
925.709	13373
925.816	13126
925.924	13118
926.031	13244
926.138	13152
926.245	13149
926.352	13084
926.459	13141
926.566	13266
926.673	13095
926.779	12973
926.886	12993
926.993	12821
927.099	12856
927.206	12795
927.312	12669
927.419	12852
927.525	12757
927.631	12833
927.737	12677
927.843	12673
927.95	12521
928.056	12631
928.162	12650
928.267	12658
928.373	13228
928.479	12673
928.585	12513
928.69	12646
928.796	12597
928.901	12357
929.007	12426
929.112	12467
929.218	12357
929.323	12338
929.428	12376
929.533	12502
929.638	12254
929.743	12334
929.848	12365
929.953	12334
930.058	12167
930.163	11988
930.267	12079
930.372	12197
930.477	12038
930.581	12251
930.685	12133
930.79	11851
930.894	11923
930.998	11851
931.103	12053
931.207	11710
931.311	11520
931.415	11497
931.519	11337
931.623	11269
