Data from test_V78500241_1660.txt Node
Date: Fri Mar 25 15:53:18 CST 2022
User: usil
Spectrometer: V785-0024
Trigger mode: 0
Integration Time (sec): 4.000000E-1
Scans to average: 1
Nonlinearity correction enabled: false
Boxcar width: 0
Storing dark spectrum: false
XAxis mode: Wavelengths
Number of Pixels in Spectrum: 1024
>>>>>Begin Spectral Data<<<<<
801.071	28272
801.214	28325
801.356	28120
801.499	28002
801.641	27911
801.783	27975
801.926	27857
802.068	27979
802.211	27781
802.353	27793
802.496	27587
802.638	27568
802.78	27504
802.923	27427
803.065	27477
803.208	27515
803.35	27587
803.492	27682
803.635	27774
803.777	27709
803.919	27842
804.061	28268
804.204	27903
804.346	27663
804.488	27572
804.63	27762
804.773	27724
804.915	27884
805.057	28006
805.199	27793
805.341	27804
805.483	27960
805.626	27793
805.768	27728
805.91	27918
806.052	28063
806.194	27960
806.336	28158
806.478	27956
806.62	27865
806.762	28112
806.904	28257
807.046	28409
807.188	28386
807.33	28329
807.472	28401
807.614	28485
807.756	28276
807.898	28166
808.04	28143
808.182	28192
808.324	28398
808.465	28246
808.607	28390
808.749	28683
808.891	28710
809.033	28767
809.174	28664
809.316	28755
809.458	28618
809.6	28679
809.741	28721
809.883	28721
810.025	28835
810.166	28987
810.308	28923
810.45	28862
810.591	28824
810.733	28668
810.875	28588
811.016	28603
811.158	28455
811.299	28611
811.441	28778
811.582	28835
811.724	28637
811.865	28550
812.007	28660
812.148	28611
812.29	28698
812.431	28976
812.573	28984
812.714	29079
812.855	29090
812.997	29166
813.138	29421
813.279	29261
813.421	29155
813.562	29094
813.703	28987
813.845	28991
813.986	28656
814.127	28485
814.268	28295
814.41	28333
814.551	28238
814.692	28394
814.833	28329
814.974	28185
815.115	28390
815.256	28200
815.397	28051
815.539	28257
815.68	28166
815.821	27983
815.962	28200
816.103	28112
816.244	27941
816.385	27808
816.526	27797
816.666	27698
816.807	27614
816.948	27591
817.089	27625
817.23	27660
817.371	27637
817.512	27625
817.653	27701
817.793	27515
817.934	27705
818.075	27606
818.216	27576
818.356	27591
818.497	27439
818.638	27306
818.778	27317
818.919	27454
819.06	27287
819.2	27526
819.341	27698
819.481	27793
819.622	27762
819.762	27975
819.903	27854
820.043	27857
820.184	27736
820.324	27850
820.465	27705
820.605	27652
820.746	27675
820.886	27625
821.026	27732
821.167	27709
821.307	27701
821.447	27610
821.588	27549
821.728	27363
821.868	27165
822.008	26994
822.149	26979
822.289	27157
822.429	26845
822.569	26804
822.709	26868
822.849	26522
822.99	26602
823.13	26545
823.27	26530
823.41	26389
823.55	26415
823.69	26457
823.83	26415
823.97	26362
824.11	26199
824.25	26122
824.389	26301
824.529	26252
824.669	26195
824.809	26339
824.949	26393
825.089	26366
825.228	26286
825.368	26050
825.508	26043
825.648	26172
825.787	26237
825.927	26065
826.067	26119
826.206	26149
826.346	26225
826.485	26195
826.625	26035
826.765	26176
826.904	26126
827.044	25875
827.183	25871
827.323	25898
827.462	25845
827.601	25765
827.741	25788
827.88	25890
828.02	25811
828.159	25875
828.298	25818
828.437	25909
828.577	25811
828.716	25974
828.855	25651
828.994	25529
829.134	25594
829.273	25601
829.412	25388
829.551	25540
829.69	25544
829.829	25681
829.968	25533
830.107	25616
830.246	25419
830.385	25491
830.524	25377
830.663	25285
830.802	25263
830.941	25156
831.08	25160
831.219	25285
831.357	25114
831.496	25369
831.635	25053
831.774	25099
831.913	25069
832.051	24981
832.19	25107
832.329	24871
832.467	24829
832.606	24810
832.744	24768
832.883	24787
833.022	24916
833.16	24810
833.299	24798
833.437	24886
833.576	24916
833.714	24825
833.852	25008
833.991	24992
834.129	24943
834.267	24825
834.406	24871
834.544	24890
834.682	24844
834.821	24916
834.959	25027
835.097	24738
835.235	24817
835.373	24814
835.511	24738
835.65	24753
835.788	24703
835.926	24623
836.064	24437
836.202	24418
836.34	24631
836.478	24768
836.615	24631
836.753	24715
836.891	24684
837.029	24715
837.167	24661
837.305	24673
837.443	24601
837.58	24612
837.718	24677
837.856	24589
837.993	24532
838.131	24559
838.269	24327
838.406	24441
838.544	24361
838.681	24239
838.819	24243
838.956	23874
839.094	24011
839.231	23988
839.369	24205
839.506	24350
839.643	24247
839.781	23996
839.918	23992
840.055	23984
840.193	23988
840.33	23893
840.467	23980
840.604	24011
840.742	24190
840.879	23672
841.016	23843
841.153	23771
841.29	23897
841.427	23809
841.564	24003
841.701	23912
841.838	23786
841.975	23874
842.112	23901
842.249	23680
842.385	23726
842.522	23817
842.659	23703
842.796	23710
842.933	23615
843.069	23478
843.206	23592
843.343	23745
843.479	23630
843.616	23638
843.752	23444
843.889	23463
844.025	23516
844.162	23444
844.298	23528
844.435	23547
844.571	23322
844.708	23448
844.844	23455
844.98	23459
845.117	23634
845.253	23318
845.389	23349
845.525	23311
845.661	23280
845.798	23166
845.934	23208
846.07	23162
846.206	23159
846.342	23200
846.478	23075
846.614	22862
846.75	22736
846.886	22915
847.022	22900
847.158	22900
847.294	22934
847.429	22942
847.565	22763
847.701	23006
847.837	22634
847.972	22634
848.108	22607
848.244	22622
848.379	22573
848.515	22470
848.65	22485
848.786	22405
848.921	22580
849.057	22637
849.192	22485
849.328	22516
849.463	22417
849.598	22379
849.734	22363
849.869	22295
850.004	22284
850.14	22238
850.275	22352
850.41	22109
850.545	22242
850.68	22219
850.815	22295
850.95	22162
851.085	22303
851.22	22386
851.355	22158
851.49	22215
851.625	22230
851.76	22131
851.895	22185
852.03	22124
852.165	22238
852.299	22204
852.434	22169
852.569	22169
852.703	22128
852.838	22253
852.973	22344
853.107	22371
853.242	22150
853.376	22029
853.511	21968
853.645	22010
853.78	22116
853.914	22116
854.048	22067
854.183	21998
854.317	22021
854.451	22166
854.585	22101
854.72	22078
854.854	22143
854.988	22006
855.122	22017
855.256	21987
855.39	21915
855.524	22116
855.658	22181
855.792	22067
855.926	22112
856.06	22105
856.194	22116
856.327	21979
856.461	21953
856.595	21934
856.729	22112
856.862	22215
856.996	22120
857.13	22101
857.263	22166
857.397	22128
857.53	21949
857.664	22070
857.797	22158
857.931	22265
858.064	22181
858.197	22188
858.331	22040
858.464	22044
858.597	21994
858.731	22010
858.864	22082
858.997	21937
859.13	22131
859.263	22169
859.396	22196
859.529	22032
859.662	21979
859.795	21907
859.928	22070
860.061	22249
860.194	22238
860.327	22143
860.46	22010
860.592	22120
860.725	22158
860.858	22188
860.99	22131
861.123	21949
861.256	21892
861.388	22143
861.521	22805
861.653	21846
861.786	21884
861.918	21888
862.05	21850
862.183	21953
862.315	21918
862.447	22036
862.58	22074
862.712	21709
862.844	21679
862.976	21918
863.108	21842
863.24	22295
863.372	21709
863.504	21793
863.636	21713
863.768	21770
863.9	21808
864.032	21682
864.164	21720
864.296	21713
864.428	21895
864.559	21774
864.691	21793
864.823	21755
864.954	21717
865.086	21736
865.217	21701
865.349	21545
865.48	21709
865.612	21736
865.743	21751
865.875	21743
866.006	21743
866.137	21633
866.269	21724
866.4	21534
866.531	21500
866.662	21603
866.793	21606
866.924	21603
867.055	21701
867.186	21538
867.317	21610
867.448	21523
867.579	21534
867.71	21519
867.841	21359
867.972	21424
868.103	21633
868.233	21701
868.364	21435
868.495	21606
868.625	21835
868.756	21838
868.886	21785
869.017	21705
869.147	21797
869.278	21854
869.408	21903
869.539	21918
869.669	21972
869.799	21816
869.929	21922
870.06	21842
870.19	22242
870.32	22021
870.45	22139
870.58	22322
870.71	22280
870.84	22215
870.97	22150
871.1	22200
871.23	22348
871.36	22356
871.489	22306
871.619	22409
871.749	22413
871.879	22436
872.008	22470
872.138	22375
872.267	22451
872.397	22112
872.526	22261
872.656	22303
872.785	22246
872.915	22557
873.044	22440
873.173	22440
873.303	22554
873.432	22557
873.561	22512
873.69	22451
873.819	22485
873.948	22489
874.077	22421
874.206	22455
874.335	22481
874.464	22615
874.593	22664
874.722	22531
874.851	22717
874.979	22736
875.108	22702
875.237	22721
875.365	22607
875.494	22516
875.623	22771
875.751	22694
875.88	22603
876.008	22839
876.136	22809
876.265	23071
876.393	23140
876.521	23246
876.65	23269
876.778	23014
876.906	23060
877.034	22980
877.162	22972
877.29	22987
877.418	23067
877.546	22987
877.674	22927
877.802	23041
877.93	22938
878.058	22942
878.185	22942
878.313	22930
878.441	22927
878.568	22961
878.696	22927
878.824	23102
878.951	23067
879.079	23170
879.206	23421
879.333	23102
879.461	22915
879.588	23143
879.715	23033
879.842	23193
879.97	23048
880.097	22873
880.224	22801
880.351	22858
880.478	22816
880.605	22816
880.732	22793
880.859	23071
880.986	22797
881.112	22790
881.239	22710
881.366	22561
881.493	22512
881.619	22443
881.746	22413
881.872	22333
881.999	22363
882.125	22318
882.252	22367
882.378	22459
882.505	22569
882.631	22200
882.757	22051
882.883	22135
883.01	22044
883.136	22067
883.262	21937
883.388	21907
883.514	22101
883.64	22097
883.766	21998
883.892	21937
884.018	21804
884.143	21953
884.269	21922
884.395	21724
884.52	21671
884.646	21720
884.772	21625
884.897	21614
885.023	21732
885.148	21755
885.274	21827
885.399	21850
885.524	21720
885.65	21713
885.775	21819
885.9	21667
886.025	21732
886.15	21690
886.275	21663
886.4	21564
886.525	21690
886.65	21591
886.775	21530
886.9	21854
887.025	21831
887.149	21736
887.274	21530
887.399	21355
887.523	21526
887.648	21378
887.773	21462
887.897	21591
888.021	21500
888.146	21397
888.27	21519
888.395	21587
888.519	21477
888.643	21397
888.767	21580
888.891	21401
889.015	21256
889.139	21287
889.263	21256
889.387	21378
889.511	21420
889.635	21450
889.759	21275
889.883	21287
890.006	21192
890.13	21222
890.254	21211
890.377	21093
890.501	21013
890.624	20921
890.748	21058
890.871	20998
890.995	20800
891.118	20857
891.241	20853
891.364	20792
891.488	20883
891.611	20830
891.734	20845
891.857	20944
891.98	20762
892.103	20830
892.226	20792
892.349	20777
892.471	20659
892.594	20693
892.717	20781
892.839	20682
892.962	20735
893.085	20781
893.207	20727
893.33	20621
893.452	20568
893.575	20792
893.697	20705
893.819	20765
893.941	20960
894.064	20781
894.186	20598
894.308	20571
894.43	20891
894.552	20887
894.674	20819
894.796	20701
894.918	20739
895.04	20629
895.161	20769
895.283	20758
895.405	20564
895.526	20701
895.648	20682
895.769	20689
895.891	20693
896.012	20743
896.134	20800
896.255	20659
896.376	20606
896.498	20655
896.619	20731
896.74	20815
896.861	20823
896.982	21020
897.103	21161
897.224	21032
897.345	20975
897.466	20765
897.587	20906
897.708	21081
897.828	20948
897.949	20781
898.07	20724
898.19	20902
898.311	20921
898.431	20796
898.552	20849
898.672	20944
898.792	20899
898.913	20933
899.033	20785
899.153	20773
899.273	20575
899.393	20708
899.513	20632
899.633	20686
899.753	20701
899.873	20526
899.993	20537
900.113	20389
900.232	20571
900.352	20609
900.472	20503
900.591	20347
900.711	20396
900.83	20332
900.95	20465
901.069	20549
901.189	20294
901.308	20092
901.427	19947
901.546	20069
901.665	20016
901.784	19921
901.904	19894
902.023	19799
902.141	19540
902.26	19548
902.379	19480
902.498	19521
902.617	19422
902.735	19571
902.854	19453
902.973	19502
903.091	19183
903.21	19042
903.328	19217
903.446	19137
903.565	18894
903.683	18947
903.801	18753
903.919	18894
904.038	18909
904.156	18730
904.274	18856
904.392	18772
904.51	18547
904.627	18631
904.745	18897
904.863	18817
904.981	18589
905.098	18346
905.216	18414
905.334	18426
905.451	18460
905.569	18502
905.686	18517
905.803	18372
905.921	18235
906.038	18357
906.155	18182
906.272	18053
906.389	18057
906.506	17813
906.623	18079
906.74	17973
906.857	17931
906.974	17802
907.091	17923
907.208	18087
907.324	17874
907.441	17817
907.557	17695
907.674	17695
907.79	17570
907.907	17646
908.023	17699
908.139	17661
908.256	17581
908.372	17547
908.488	17539
908.604	17318
908.72	17356
908.836	17345
908.952	17265
909.068	17368
909.184	17474
909.3	17337
909.415	17410
909.531	17296
909.647	17166
909.762	17193
909.878	17056
909.993	17227
910.108	17014
910.224	17124
910.339	17083
910.454	17006
910.57	16866
910.685	16862
910.8	17090
910.915	17056
911.03	16965
911.145	16713
911.259	16618
911.374	16683
911.489	16672
911.604	16538
911.718	16341
911.833	16512
911.947	16386
912.062	16280
912.176	16462
912.291	16497
912.405	16390
912.519	16588
912.633	16588
912.748	16443
912.862	16455
912.976	16242
913.09	16131
913.204	16207
913.318	16348
913.431	16341
913.545	16303
913.659	16394
913.772	16131
913.886	16116
914	16112
914.113	16010
914.226	16071
914.34	16143
914.453	15983
914.566	15941
914.68	15979
914.793	15850
914.906	15732
915.019	15663
915.132	15568
915.245	15511
915.358	15564
915.47	15564
915.583	15542
915.696	15637
915.809	15686
915.921	15694
916.034	15595
916.146	15595
916.259	15523
916.371	15534
916.483	15492
916.595	15382
916.708	15580
916.82	15382
916.932	15370
917.044	15374
917.156	15401
917.268	15283
917.38	15329
917.491	15241
917.603	15211
917.715	15294
917.826	15306
917.938	15165
918.049	15108
918.161	15230
918.272	15321
918.384	15279
918.495	15218
918.606	15020
918.717	14880
918.828	15081
918.939	15036
919.05	14899
919.161	14906
919.272	14872
919.383	14826
919.494	15062
919.604	15135
919.715	14929
919.826	14872
919.936	14990
920.047	15070
920.157	14956
920.267	15104
920.378	14971
920.488	14758
920.598	15055
920.708	15230
920.818	15116
920.928	15112
921.038	15321
921.148	15119
921.258	14891
921.368	14765
921.477	14739
921.587	14674
921.697	14571
921.806	14727
921.916	14514
922.025	14404
922.134	14408
922.244	14199
922.353	14347
922.462	14096
922.571	14218
922.68	13970
922.789	13974
922.898	13974
923.007	13963
923.116	14012
923.224	13894
923.333	13860
923.442	13696
923.55	13799
923.659	13753
923.767	13841
923.876	13689
923.984	13822
924.092	13715
924.201	13620
924.309	13685
924.417	13613
924.525	13582
924.633	13639
924.741	14351
924.849	13472
924.956	13552
925.064	13362
925.172	13274
925.279	13373
925.387	13354
925.494	13312
925.602	13529
925.709	13373
925.816	13289
925.924	13327
926.031	13362
926.138	13266
926.245	13285
926.352	13225
926.459	13259
926.566	13411
926.673	13236
926.779	13057
926.886	13061
926.993	12901
927.099	12928
927.206	12844
927.312	12856
927.419	12875
927.525	12837
927.631	12951
927.737	12768
927.843	12802
927.95	12650
928.056	12700
928.162	12650
928.267	12776
928.373	13339
928.479	12715
928.585	12608
928.69	12589
928.796	12688
928.901	12585
929.007	12475
929.112	12551
929.218	12540
929.323	12460
929.428	12391
929.533	12521
929.638	12330
929.743	12361
929.848	12456
929.953	12372
930.058	12209
930.163	12041
930.267	12083
930.372	12281
930.477	12136
930.581	12296
930.685	12175
930.79	11992
930.894	12003
930.998	11923
931.103	12144
931.207	11714
931.311	11691
931.415	11585
931.519	11402
931.623	11322
