Data from test_V78500241_2344.txt Node
Date: Fri Mar 25 15:58:02 CST 2022
User: usil
Spectrometer: V785-0024
Trigger mode: 0
Integration Time (sec): 4.000000E-1
Scans to average: 1
Nonlinearity correction enabled: false
Boxcar width: 0
Storing dark spectrum: false
XAxis mode: Wavelengths
Number of Pixels in Spectrum: 1024
>>>>>Begin Spectral Data<<<<<
801.071	28645
801.214	28653
801.356	28363
801.499	28253
801.641	28253
801.783	28166
801.926	28154
802.068	28112
802.211	28207
802.353	28006
802.496	28013
802.638	27857
802.78	28010
802.923	27785
803.065	27850
803.208	27869
803.35	27964
803.492	28051
803.635	28268
803.777	27994
803.919	27953
804.061	28398
804.204	28185
804.346	28131
804.488	27941
804.63	28021
804.773	28215
804.915	28147
805.057	28196
805.199	28173
805.341	28109
805.483	28238
805.626	28097
805.768	28051
805.91	28177
806.052	28253
806.194	28143
806.336	28360
806.478	28303
806.62	28226
806.762	28436
806.904	28603
807.046	28793
807.188	28626
807.33	28573
807.472	28812
807.614	28523
807.756	28641
807.898	28634
808.04	28421
808.182	28474
808.324	28459
808.465	28679
808.607	28824
808.749	28831
808.891	29067
809.033	29075
809.174	29022
809.316	28930
809.458	28850
809.6	28900
809.741	28938
809.883	28949
810.025	29174
810.166	29284
810.308	29052
810.45	29200
810.591	29181
810.733	28949
810.875	28866
811.016	28934
811.158	28717
811.299	28927
811.441	29025
811.582	29083
811.724	28957
811.865	28873
812.007	28915
812.148	29029
812.29	28915
812.431	29231
812.573	29079
812.714	29284
812.855	29368
812.997	29539
813.138	29642
813.279	29619
813.421	29478
813.562	29414
813.703	29124
813.845	29121
813.986	28790
814.127	28672
814.268	28607
814.41	28717
814.551	28584
814.692	28740
814.833	28611
814.974	28550
815.115	28630
815.256	28538
815.397	28504
815.539	28554
815.68	28424
815.821	28390
815.962	28428
816.103	28508
816.244	28390
816.385	28158
816.526	28166
816.666	28055
816.807	27892
816.948	28013
817.089	28032
817.23	27888
817.371	27949
817.512	27914
817.653	27953
817.793	27831
817.934	27850
818.075	27979
818.216	28120
818.356	27892
818.497	27842
818.638	27701
818.778	27629
818.919	27633
819.06	27869
819.2	27861
819.341	27953
819.481	27922
819.622	27899
819.762	28310
819.903	28166
820.043	28200
820.184	28154
820.324	28268
820.465	28105
820.605	28124
820.746	28067
820.886	27930
821.026	28021
821.167	28135
821.307	28044
821.447	27918
821.588	27953
821.728	27804
821.868	27576
822.008	27454
822.149	27332
822.289	27443
822.429	27157
822.569	26937
822.709	27146
822.849	26990
822.99	26918
823.13	26918
823.27	26975
823.41	26758
823.55	26838
823.69	26918
823.83	26606
823.97	26670
824.11	26587
824.25	26495
824.389	26476
824.529	26564
824.669	26492
824.809	26765
824.949	26648
825.089	26655
825.228	26621
825.368	26252
825.508	26446
825.648	26492
825.787	26408
825.927	26412
826.067	26488
826.206	26480
826.346	26514
826.485	26442
826.625	26495
826.765	26522
826.904	26499
827.044	26290
827.183	26336
827.323	26176
827.462	26244
827.601	26210
827.741	26092
827.88	26218
828.02	26065
828.159	26020
828.298	26126
828.437	26324
828.577	26172
828.716	26206
828.855	26107
828.994	25986
829.134	25845
829.273	25803
829.412	25780
829.551	25830
829.69	26008
829.829	25917
829.968	25993
830.107	25936
830.246	25887
830.385	25940
830.524	25776
830.663	25700
830.802	25540
830.941	25411
831.08	25388
831.219	25552
831.357	25441
831.496	25616
831.635	25331
831.774	25327
831.913	25358
832.051	25335
832.19	25156
832.329	25365
832.467	25183
832.606	25122
832.744	25046
832.883	25084
833.022	25015
833.16	25126
833.299	25164
833.437	25202
833.576	25232
833.714	25263
833.852	25270
833.991	25312
834.129	25331
834.267	25247
834.406	25126
834.544	25289
834.682	25255
834.821	25247
834.959	25407
835.097	25148
835.235	25217
835.373	25244
835.511	25255
835.65	24913
835.788	24951
835.926	24973
836.064	24810
836.202	24757
836.34	24966
836.478	25095
836.615	24863
836.753	25027
836.891	24989
837.029	25004
837.167	24920
837.305	24981
837.443	24890
837.58	24776
837.718	24837
837.856	24916
837.993	24848
838.131	24920
838.269	24639
838.406	24806
838.544	24779
838.681	24563
838.819	24460
838.956	24254
839.094	24254
839.231	24361
839.369	24513
839.506	24688
839.643	24559
839.781	24372
839.918	24277
840.055	24247
840.193	24281
840.33	24266
840.467	24289
840.604	24319
840.742	24471
840.879	24095
841.016	24076
841.153	24159
841.29	24247
841.427	24079
841.564	24327
841.701	24254
841.838	24072
841.975	24121
842.112	24197
842.249	24030
842.385	23893
842.522	24228
842.659	24079
842.796	23916
842.933	23794
843.069	23912
843.206	23840
843.343	24049
843.479	23984
843.616	23923
843.752	23775
843.889	23684
844.025	23870
844.162	23710
844.298	23840
844.435	23695
844.571	23703
844.708	23649
844.844	23908
844.98	23718
845.117	23802
845.253	23722
845.389	23531
845.525	23516
845.661	23562
845.798	23478
845.934	23570
846.07	23326
846.206	23490
846.342	23520
846.478	23406
846.614	23330
846.75	23052
846.886	23056
847.022	23265
847.158	23212
847.294	23216
847.429	23162
847.565	23048
847.701	23414
847.837	23006
847.972	22854
848.108	22877
848.244	22942
848.379	22812
848.515	22858
848.65	22725
848.786	22771
848.921	22752
849.057	22881
849.192	23010
849.328	22786
849.463	22854
849.598	22725
849.734	22603
849.869	22656
850.004	22588
850.14	22508
850.275	22466
850.41	22421
850.545	22394
850.68	22409
850.815	22466
850.95	22512
851.085	22691
851.22	22672
851.355	22500
851.49	22569
851.625	22569
851.76	22478
851.895	22455
852.03	22371
852.165	22569
852.299	22615
852.434	22668
852.569	22523
852.703	22592
852.838	22550
852.973	22691
853.107	22546
853.242	22421
853.376	22508
853.511	22154
853.645	22329
853.78	22413
853.914	22310
854.048	22314
854.183	22295
854.317	22265
854.451	22512
854.585	22306
854.72	22398
854.854	22417
854.988	22234
855.122	22303
855.256	22150
855.39	22379
855.524	22470
855.658	22455
855.792	22325
855.926	22382
856.06	22447
856.194	22504
856.327	22337
856.461	22173
856.595	22261
856.729	22443
856.862	22615
856.996	22428
857.13	22402
857.263	22402
857.397	22481
857.53	22310
857.664	22363
857.797	22478
857.931	22284
858.064	22337
858.197	22386
858.331	22181
858.464	22230
858.597	22238
858.731	22344
858.864	22249
858.997	22360
859.13	22360
859.263	22398
859.396	22500
859.529	22337
859.662	22341
859.795	22299
859.928	22299
860.061	22527
860.194	22504
860.327	22443
860.46	22413
860.592	22462
860.725	22485
860.858	22440
860.99	22363
861.123	22238
861.256	22363
861.388	22268
861.521	23044
861.653	22192
861.786	22238
861.918	22207
862.05	22154
862.183	22272
862.315	22249
862.447	22531
862.58	22284
862.712	22139
862.844	22002
862.976	22128
863.108	22116
863.24	22462
863.372	21994
863.504	22067
863.636	22063
863.768	22249
863.9	22010
864.032	22013
864.164	22074
864.296	22013
864.428	22154
864.559	22036
864.691	22086
864.823	22017
864.954	22116
865.086	22010
865.217	21922
865.349	21998
865.48	21869
865.612	21873
865.743	22074
865.875	22002
866.006	21907
866.137	21907
866.269	21922
866.4	21960
866.531	21854
866.662	21892
866.793	21766
866.924	21861
867.055	21873
867.186	21979
867.317	21808
867.448	21762
867.579	21968
867.71	21789
867.841	21865
867.972	21789
868.103	21781
868.233	21892
868.364	21827
868.495	22021
868.625	22150
868.756	22135
868.886	22013
869.017	22139
869.147	22173
869.278	22211
869.408	22169
869.539	22048
869.669	22265
869.799	22147
869.929	22196
870.06	22173
870.19	22470
870.32	22489
870.45	22375
870.58	22546
870.71	22634
870.84	22626
870.97	22493
871.1	22504
871.23	22599
871.36	22748
871.489	22489
871.619	22664
871.749	22782
871.879	22725
872.008	22831
872.138	22713
872.267	22622
872.397	22569
872.526	22519
872.656	22664
872.785	22573
872.915	22713
873.044	22679
873.173	22710
873.303	22858
873.432	22805
873.561	22790
873.69	22820
873.819	22702
873.948	22812
874.077	22744
874.206	22660
874.335	22710
874.464	22831
874.593	22820
874.722	22869
874.851	23056
874.979	22923
875.108	22999
875.237	23010
875.365	22748
875.494	22892
875.623	23048
875.751	22809
875.88	22911
876.008	23151
876.136	23102
876.265	23311
876.393	23383
876.521	23315
876.65	23334
876.778	23318
876.906	23212
877.034	23273
877.162	23322
877.29	23189
877.418	23372
877.546	23277
877.674	23288
877.802	23185
877.93	23204
878.058	23261
878.185	23174
878.313	23223
878.441	23322
878.568	23128
878.696	23303
878.824	23341
878.951	23398
879.079	23436
879.206	23577
879.333	23471
879.461	23159
879.588	23482
879.715	23490
879.842	23600
879.97	23345
880.097	23052
880.224	23079
880.351	23140
880.478	23159
880.605	23006
880.732	22984
880.859	23353
880.986	23090
881.112	23079
881.239	22984
881.366	22801
881.493	22812
881.619	22546
881.746	22660
881.872	22668
881.999	22637
882.125	22451
882.252	22713
882.378	22683
882.505	22630
882.631	22603
882.757	22428
882.883	22409
883.01	22489
883.136	22344
883.262	22272
883.388	22192
883.514	22344
883.64	22329
883.766	22101
883.892	22055
884.018	22040
884.143	22257
884.269	22436
884.395	22002
884.52	21987
884.646	21930
884.772	21770
884.897	21892
885.023	22006
885.148	22105
885.274	22029
885.399	21998
885.524	21968
885.65	21960
885.775	22032
885.9	21922
886.025	21960
886.15	22082
886.275	21911
886.4	21941
886.525	21827
886.65	21888
886.775	21930
886.9	22059
887.025	22226
887.149	21869
887.274	21850
887.399	21759
887.523	21804
887.648	21675
887.773	21660
887.897	21751
888.021	21759
888.146	21720
888.27	21934
888.395	21880
888.519	21755
888.643	21781
888.767	21778
888.891	21641
889.015	21473
889.139	21553
889.263	21424
889.387	21599
889.511	21633
889.635	21660
889.759	21526
889.883	21374
890.006	21625
890.13	21603
890.254	21450
890.377	21428
890.501	21237
890.624	21131
890.748	21344
890.871	21287
890.995	21036
891.118	21112
891.241	21077
891.364	21100
891.488	21154
891.611	21077
891.734	21077
891.857	21169
891.98	21085
892.103	21150
892.226	21093
892.349	21036
892.471	20941
892.594	20990
892.717	21039
892.839	20952
892.962	20975
893.085	21039
893.207	21093
893.33	20834
893.452	20845
893.575	21020
893.697	20880
893.819	21108
893.941	21211
894.064	21108
894.186	20918
894.308	20880
894.43	21020
894.552	21188
894.674	21074
894.796	20861
894.918	20861
895.04	20838
895.161	21001
895.283	21096
895.405	20845
895.526	20975
895.648	21017
895.769	20967
895.891	20960
896.012	21085
896.134	20963
896.255	21009
896.376	20883
896.498	20857
896.619	20944
896.74	20899
896.861	20941
896.982	21199
897.103	21386
897.224	21279
897.345	21249
897.466	21062
897.587	21188
897.708	21283
897.828	21214
897.949	21085
898.07	21005
898.19	21081
898.311	21241
898.431	21074
898.552	21001
898.672	21249
898.792	21211
898.913	21252
899.033	21085
899.153	20956
899.273	20910
899.393	20845
899.513	20979
899.633	20834
899.753	20853
899.873	20781
899.993	20986
900.113	20792
900.232	20868
900.352	20769
900.472	20705
900.591	20587
900.711	20667
900.83	20651
900.95	20674
901.069	20678
901.189	20484
901.308	20271
901.427	20225
901.546	20210
901.665	20153
901.784	20290
901.904	20103
902.023	20016
902.141	19723
902.26	19742
902.379	19727
902.498	19712
902.617	19712
902.735	19674
902.854	19674
902.973	19643
903.091	19430
903.21	19411
903.328	19419
903.446	19232
903.565	19270
903.683	19206
903.801	19091
903.919	19057
904.038	19095
904.156	18954
904.274	19061
904.392	18932
904.51	18993
904.627	18935
904.745	19069
904.863	18993
904.981	18730
905.098	18681
905.216	18589
905.334	18570
905.451	18696
905.569	18646
905.686	18635
905.803	18604
905.921	18426
906.038	18521
906.155	18418
906.272	18270
906.389	18334
906.506	18152
906.623	18247
906.74	18129
906.857	18026
906.974	17973
907.091	18167
907.208	18334
907.324	18045
907.441	18057
907.557	17980
907.674	17836
907.79	17802
907.907	17767
908.023	17847
908.139	17786
908.256	17737
908.372	17722
908.488	17748
908.604	17562
908.72	17661
908.836	17615
908.952	17551
909.068	17471
909.184	17623
909.3	17566
909.415	17528
909.531	17532
909.647	17288
909.762	17360
909.878	17246
909.993	17223
910.108	17250
910.224	17227
910.339	17166
910.454	17235
910.57	17025
910.685	16953
910.8	17159
910.915	17261
911.03	17071
911.145	16790
911.259	16885
911.374	16702
911.489	16835
911.604	16729
911.718	16622
911.833	16577
911.947	16596
912.062	16382
912.176	16599
912.291	16577
912.405	16360
912.519	16843
912.633	16698
912.748	16592
912.862	16531
912.976	16432
913.09	16329
913.204	16363
913.318	16306
913.431	16481
913.545	16421
913.659	16497
913.772	16158
913.886	16135
914	16196
914.113	16261
914.226	16185
914.34	16253
914.453	16059
914.566	16272
914.68	16086
914.793	15956
914.906	15934
915.019	15808
915.132	15778
915.245	15781
915.358	15854
915.47	15648
915.583	15831
915.696	15781
915.809	15854
915.921	15892
916.034	15641
916.146	15717
916.259	15652
916.371	15739
916.483	15724
916.595	15667
916.708	15534
916.82	15644
916.932	15572
917.044	15507
917.156	15469
917.268	15447
917.38	15507
917.491	15389
917.603	15291
917.715	15420
917.826	15481
917.938	15291
918.049	15344
918.161	15344
918.272	15306
918.384	15450
918.495	15348
918.606	15192
918.717	15093
918.828	15138
918.939	15237
919.05	15028
919.161	15005
919.272	14914
919.383	14986
919.494	15207
919.604	15325
919.715	15176
919.826	14956
919.936	15104
920.047	15112
920.157	15024
920.267	15180
920.378	15066
920.488	15009
920.598	15184
920.708	15420
920.818	15218
920.928	15146
921.038	15272
921.148	15268
921.258	15108
921.368	14925
921.477	14956
921.587	14788
921.697	14697
921.806	14941
921.916	14667
922.025	14579
922.134	14469
922.244	14469
922.353	14492
922.462	14332
922.571	14320
922.68	14096
922.789	14062
922.898	14161
923.007	14062
923.116	14149
923.224	14054
923.333	14020
923.442	13947
923.55	13936
923.659	13936
923.767	14046
923.876	13871
923.984	13902
924.092	13769
924.201	13898
924.309	13776
924.417	13807
924.525	13666
924.633	13822
924.741	14590
924.849	13529
924.956	13666
925.064	13552
925.172	13400
925.279	13480
925.387	13441
925.494	13487
925.602	13605
925.709	13483
925.816	13407
925.924	13422
926.031	13468
926.138	13422
926.245	13441
926.352	13308
926.459	13430
926.566	13411
926.673	13441
926.779	13247
926.886	13217
926.993	13110
927.099	13038
927.206	12993
927.312	12981
927.419	13069
927.525	12935
927.631	12954
927.737	12871
927.843	12863
927.95	12749
928.056	12852
928.162	12897
928.267	12901
928.373	13430
928.479	12905
928.585	12623
928.69	12745
928.796	12753
928.901	12593
929.007	12589
929.112	12620
929.218	12612
929.323	12566
929.428	12540
929.533	12646
929.638	12486
929.743	12464
929.848	12498
929.953	12479
930.058	12338
930.163	12228
930.267	12144
930.372	12319
930.477	12251
930.581	12426
930.685	12243
930.79	12175
930.894	12190
930.998	12098
931.103	12186
931.207	11904
931.311	11688
931.415	11638
931.519	11417
931.623	11452
