Data from test_V78500241_1740.txt Node
Date: Fri Mar 25 15:53:51 CST 2022
User: usil
Spectrometer: V785-0024
Trigger mode: 0
Integration Time (sec): 4.000000E-1
Scans to average: 1
Nonlinearity correction enabled: false
Boxcar width: 0
Storing dark spectrum: false
XAxis mode: Wavelengths
Number of Pixels in Spectrum: 1024
>>>>>Begin Spectral Data<<<<<
801.071	28733
801.214	28478
801.356	28303
801.499	28276
801.641	28226
801.783	28280
801.926	28173
802.068	28192
802.211	28154
802.353	28246
802.496	27903
802.638	27842
802.78	27736
802.923	27686
803.065	27739
803.208	27690
803.35	27968
803.492	28055
803.635	28109
803.777	27934
803.919	28051
804.061	28440
804.204	28223
804.346	28025
804.488	28006
804.63	28070
804.773	28029
804.915	28048
805.057	28363
805.199	28097
805.341	28131
805.483	28325
805.626	28405
805.768	28185
805.91	28223
806.052	28215
806.194	28207
806.336	28519
806.478	28287
806.62	28219
806.762	28280
806.904	28573
807.046	28862
807.188	28626
807.33	28691
807.472	28885
807.614	28725
807.756	28618
807.898	28660
808.04	28497
808.182	28542
808.324	28569
808.465	28611
808.607	28835
808.749	28892
808.891	29113
809.033	29014
809.174	28915
809.316	28942
809.458	28949
809.6	28934
809.741	28976
809.883	29037
810.025	29200
810.166	29105
810.308	29356
810.45	29105
810.591	29090
810.733	29010
810.875	28892
811.016	28942
811.158	28767
811.299	29105
811.441	29041
811.582	28949
811.724	28908
811.865	29048
812.007	28965
812.148	28946
812.29	29143
812.431	29056
812.573	29155
812.714	29433
812.855	29444
812.997	29695
813.138	29805
813.279	29589
813.421	29539
813.562	29322
813.703	29299
813.845	29178
813.986	28805
814.127	28839
814.268	28683
814.41	28740
814.551	28694
814.692	28755
814.833	28550
814.974	28485
815.115	28710
815.256	28538
815.397	28596
815.539	28611
815.68	28382
815.821	28447
815.962	28455
816.103	28440
816.244	28413
816.385	28276
816.526	28261
816.666	28223
816.807	27934
816.948	27956
817.089	27987
817.23	27945
817.371	27934
817.512	27926
817.653	28059
817.793	27934
817.934	27808
818.075	27994
818.216	28002
818.356	27979
818.497	27728
818.638	27755
818.778	27679
818.919	27656
819.06	27652
819.2	27850
819.341	27823
819.481	28006
819.622	28124
819.762	28386
819.903	28147
820.043	28116
820.184	28086
820.324	28105
820.465	28013
820.605	28143
820.746	28090
820.886	28006
821.026	28070
821.167	27926
821.307	28029
821.447	27994
821.588	27831
821.728	27762
821.868	27648
822.008	27466
822.149	27458
822.289	27329
822.429	27268
822.569	27188
822.709	27150
822.849	27070
822.99	26963
823.13	26880
823.27	26899
823.41	26708
823.55	26625
823.69	26883
823.83	26777
823.97	26712
824.11	26590
824.25	26629
824.389	26640
824.529	26606
824.669	26667
824.809	26716
824.949	26769
825.089	26781
825.228	26678
825.368	26366
825.508	26442
825.648	26415
825.787	26488
825.927	26484
826.067	26450
826.206	26438
826.346	26590
826.485	26571
826.625	26370
826.765	26503
826.904	26446
827.044	26191
827.183	26172
827.323	26263
827.462	26309
827.601	26278
827.741	26119
827.88	26286
828.02	25963
828.159	26134
828.298	26351
828.437	26176
828.577	26111
828.716	26202
828.855	26138
828.994	25887
829.134	25932
829.273	26012
829.412	25807
829.551	25738
829.69	25978
829.829	25898
829.968	26016
830.107	25803
830.246	25814
830.385	25757
830.524	25715
830.663	25689
830.802	25635
830.941	25514
831.08	25476
831.219	25609
831.357	25567
831.496	25715
831.635	25460
831.774	25487
831.913	25388
832.051	25320
832.19	25228
832.329	25259
832.467	25206
832.606	25183
832.744	25080
832.883	25072
833.022	25038
833.16	25084
833.299	25103
833.437	25255
833.576	25266
833.714	25190
833.852	25175
833.991	25274
834.129	25289
834.267	25202
834.406	25217
834.544	25240
834.682	25160
834.821	25217
834.959	25396
835.097	25171
835.235	25247
835.373	25179
835.511	25198
835.65	25114
835.788	25023
835.926	24996
836.064	24772
836.202	25027
836.34	24973
836.478	25126
836.615	24901
836.753	25034
836.891	25247
837.029	24966
837.167	25046
837.305	24837
837.443	24760
837.58	24829
837.718	24878
837.856	24943
837.993	24848
838.131	24817
838.269	24726
838.406	24730
838.544	24589
838.681	24574
838.819	24525
838.956	24426
839.094	24323
839.231	24357
839.369	24494
839.506	24627
839.643	24528
839.781	24319
839.918	24224
840.055	24327
840.193	24251
840.33	24114
840.467	24296
840.604	24209
840.742	24395
840.879	24045
841.016	24018
841.153	24083
841.29	24224
841.427	24091
841.564	24251
841.701	24311
841.838	24159
841.975	24091
842.112	24095
842.249	24053
842.385	24098
842.522	24205
842.659	23946
842.796	23996
842.933	23855
843.069	23988
843.206	24068
843.343	23973
843.479	23863
843.616	23999
843.752	23764
843.889	23691
844.025	24011
844.162	23729
844.298	23657
844.435	23798
844.571	23611
844.708	23805
844.844	23950
844.98	23904
845.117	23965
845.253	23661
845.389	23577
845.525	23638
845.661	23581
845.798	23490
845.934	23554
846.07	23493
846.206	23455
846.342	23608
846.478	23566
846.614	23159
846.75	23132
846.886	23178
847.022	23200
847.158	23185
847.294	23212
847.429	23094
847.565	23189
847.701	23368
847.837	22980
847.972	22942
848.108	23029
848.244	23067
848.379	22809
848.515	22885
848.65	22683
848.786	22816
848.921	22816
849.057	22866
849.192	22786
849.328	22858
849.463	22771
849.598	22691
849.734	22847
849.869	22649
850.004	22641
850.14	22622
850.275	22531
850.41	22432
850.545	22455
850.68	22656
850.815	22626
850.95	22443
851.085	22698
851.22	22603
851.355	22531
851.49	22565
851.625	22550
851.76	22489
851.895	22474
852.03	22455
852.165	22584
852.299	22611
852.434	22546
852.569	22535
852.703	22516
852.838	22603
852.973	22649
853.107	22668
853.242	22561
853.376	22375
853.511	22242
853.645	22348
853.78	22504
853.914	22360
854.048	22367
854.183	22367
854.317	22329
854.451	22519
854.585	22371
854.72	22405
854.854	22322
854.988	22337
855.122	22291
855.256	22272
855.39	22337
855.524	22489
855.658	22421
855.792	22280
855.926	22341
856.06	22447
856.194	22348
856.327	22424
856.461	22303
856.595	22181
856.729	22337
856.862	22455
856.996	22459
857.13	22440
857.263	22478
857.397	22531
857.53	22375
857.664	22398
857.797	22413
857.931	22409
858.064	22382
858.197	22440
858.331	22295
858.464	22360
858.597	22150
858.731	22314
858.864	22333
858.997	22344
859.13	22318
859.263	22436
859.396	22329
859.529	22363
859.662	22280
859.795	22375
859.928	22390
860.061	22485
860.194	22622
860.327	22382
860.46	22421
860.592	22451
860.725	22466
860.858	22497
860.99	22413
861.123	22261
861.256	22295
861.388	22432
861.521	23174
861.653	22196
861.786	22143
861.918	22242
862.05	22337
862.183	22242
862.315	22322
862.447	22287
862.58	22333
862.712	22002
862.844	22017
862.976	22070
863.108	22109
863.24	22592
863.372	22120
863.504	22078
863.636	21972
863.768	22131
863.9	21979
864.032	21987
864.164	22025
864.296	22086
864.428	22135
864.559	22097
864.691	22097
864.823	21991
864.954	22002
865.086	22010
865.217	21983
865.349	21915
865.48	21835
865.612	21926
865.743	22177
865.875	22032
866.006	21835
866.137	21937
866.269	21987
866.4	21918
866.531	21953
866.662	21922
866.793	21873
866.924	21804
867.055	21884
867.186	21884
867.317	21873
867.448	21804
867.579	21808
867.71	21789
867.841	21789
867.972	21819
868.103	21854
868.233	21899
868.364	21876
868.495	22002
868.625	22116
868.756	22204
868.886	22112
869.017	22204
869.147	22139
869.278	22249
869.408	22154
869.539	22044
869.669	22329
869.799	22253
869.929	22147
870.06	22284
870.19	22440
870.32	22337
870.45	22462
870.58	22519
870.71	22691
870.84	22649
870.97	22440
871.1	22584
871.23	22615
871.36	22573
871.489	22618
871.619	22744
871.749	22683
871.879	22736
872.008	22748
872.138	22774
872.267	22710
872.397	22599
872.526	22565
872.656	22607
872.785	22542
872.915	22752
873.044	22862
873.173	22820
873.303	22824
873.432	22664
873.561	22809
873.69	22687
873.819	22748
873.948	22877
874.077	22869
874.206	22740
874.335	22755
874.464	22820
874.593	22980
874.722	22968
874.851	22991
874.979	23041
875.108	23044
875.237	22923
875.365	22801
875.494	22847
875.623	23029
875.751	22850
875.88	22831
876.008	23022
876.136	23132
876.265	23277
876.393	23471
876.521	23379
876.65	23482
876.778	23463
876.906	23140
877.034	23242
877.162	23216
877.29	23345
877.418	23258
877.546	23280
877.674	23288
877.802	23284
877.93	23296
878.058	23162
878.185	23204
878.313	23280
878.441	23322
878.568	23136
878.696	23197
878.824	23318
878.951	23436
879.079	23417
879.206	23558
879.333	23459
879.461	23292
879.588	23353
879.715	23353
879.842	23520
879.97	23254
880.097	23071
880.224	23132
880.351	23254
880.478	23094
880.605	23033
880.732	23162
880.859	23349
880.986	23109
881.112	23200
881.239	23044
881.366	22752
881.493	22733
881.619	22607
881.746	22717
881.872	22599
881.999	22694
882.125	22531
882.252	22592
882.378	22615
882.505	22675
882.631	22466
882.757	22276
882.883	22436
883.01	22360
883.136	22352
883.262	22306
883.388	22196
883.514	22306
883.64	22310
883.766	22215
883.892	22207
884.018	22128
884.143	22192
884.269	22337
884.395	22013
884.52	21937
884.646	22010
884.772	22010
884.897	21911
885.023	21941
885.148	22006
885.274	22048
885.399	22055
885.524	21892
885.65	21949
885.775	22074
885.9	21831
886.025	21876
886.15	22086
886.275	21861
886.4	21915
886.525	21918
886.65	21842
886.775	21907
886.9	22063
887.025	22040
887.149	21884
887.274	21816
887.399	21690
887.523	21667
887.648	21667
887.773	21641
887.897	21800
888.021	21652
888.146	21606
888.27	21827
888.395	21835
888.519	21724
888.643	21793
888.767	21625
888.891	21496
889.015	21496
889.139	21755
889.263	21481
889.387	21488
889.511	21694
889.635	21591
889.759	21481
889.883	21420
890.006	21477
890.13	21572
890.254	21378
890.377	21447
890.501	21233
890.624	21188
890.748	21340
890.871	21138
890.995	21017
891.118	21066
891.241	20998
891.364	21104
891.488	21142
891.611	21039
891.734	21123
891.857	21237
891.98	20941
892.103	21043
892.226	21028
892.349	20918
892.471	20925
892.594	21096
892.717	20975
892.839	20941
892.962	21047
893.085	21039
893.207	21024
893.33	20887
893.452	20975
893.575	20982
893.697	20956
893.819	21165
893.941	21085
894.064	21058
894.186	20952
894.308	20906
894.43	20975
894.552	21119
894.674	20876
894.796	20925
894.918	20838
895.04	20864
895.161	21005
895.283	20891
895.405	20925
895.526	20967
895.648	21036
895.769	20899
895.891	20921
896.012	20956
896.134	20902
896.255	20971
896.376	20838
896.498	20963
896.619	21036
896.74	20948
896.861	20921
896.982	21283
897.103	21412
897.224	21218
897.345	21176
897.466	21085
897.587	21058
897.708	21211
897.828	21123
897.949	21104
898.07	21020
898.19	21116
898.311	21180
898.431	21112
898.552	21165
898.672	21283
898.792	21249
898.913	21131
899.033	21058
899.153	20960
899.273	20777
899.393	20899
899.513	20891
899.633	20861
899.753	20941
899.873	20876
899.993	20796
900.113	20823
900.232	20861
900.352	20701
900.472	20689
900.591	20583
900.711	20689
900.83	20552
900.95	20651
901.069	20746
901.189	20655
901.308	20396
901.427	20313
901.546	20244
901.665	20320
901.784	20275
901.904	20088
902.023	19982
902.141	19841
902.26	19833
902.379	19841
902.498	19734
902.617	19674
902.735	19769
902.854	19689
902.973	19605
903.091	19514
903.21	19373
903.328	19381
903.446	19343
903.565	19114
903.683	19209
903.801	19057
903.919	19141
904.038	19122
904.156	18878
904.274	18985
904.392	18871
904.51	18962
904.627	19004
904.745	19000
904.863	18947
904.981	18757
905.098	18604
905.216	18665
905.334	18722
905.451	18646
905.569	18528
905.686	18639
905.803	18570
905.921	18445
906.038	18498
906.155	18467
906.272	18258
906.389	18346
906.506	18251
906.623	18171
906.74	18057
906.857	18030
906.974	17923
907.091	18102
907.208	18258
907.324	18239
907.441	17996
907.557	17885
907.674	17999
907.79	17840
907.907	17889
908.023	18011
908.139	17809
908.256	17817
908.372	17771
908.488	17718
908.604	17570
908.72	17638
908.836	17684
908.952	17562
909.068	17532
909.184	17619
909.3	17467
909.415	17592
909.531	17528
909.647	17239
909.762	17398
909.878	17216
909.993	17235
910.108	17121
910.224	17239
910.339	17242
910.454	17037
910.57	17060
910.685	17006
910.8	17284
910.915	17181
911.03	17045
911.145	16892
911.259	16759
911.374	16927
911.489	16782
911.604	16675
911.718	16599
911.833	16634
911.947	16470
912.062	16459
912.176	16592
912.291	16645
912.405	16584
912.519	16843
912.633	16683
912.748	16683
912.862	16565
912.976	16436
913.09	16223
913.204	16322
913.318	16356
913.431	16512
913.545	16417
913.659	16421
913.772	16409
913.886	16223
914	16204
914.113	16246
914.226	16341
914.34	16207
914.453	16109
914.566	16253
914.68	16192
914.793	16032
914.906	15808
915.019	15808
915.132	15720
915.245	15728
915.358	15728
915.47	15622
915.583	15736
915.696	15759
915.809	15846
915.921	15873
916.034	15652
916.146	15717
916.259	15595
916.371	15755
916.483	15717
916.595	15538
916.708	15553
916.82	15557
916.932	15488
917.044	15545
917.156	15576
917.268	15348
917.38	15420
917.491	15439
917.603	15389
917.715	15477
917.826	15538
917.938	15336
918.049	15192
918.161	15321
918.272	15450
918.384	15382
918.495	15344
918.606	15184
918.717	15123
918.828	15135
918.939	15119
919.05	15024
919.161	15081
919.272	14842
919.383	14956
919.494	15218
919.604	15348
919.715	15154
919.826	14990
919.936	15104
920.047	15142
920.157	15157
920.267	15203
920.378	15097
920.488	15077
920.598	15100
920.708	15363
920.818	15268
920.928	15260
921.038	15382
921.148	15245
921.258	15024
921.368	14948
921.477	14830
921.587	14785
921.697	14750
921.806	14842
921.916	14644
922.025	14560
922.134	14427
922.244	14514
922.353	14381
922.462	14336
922.571	14237
922.68	14176
922.789	14035
922.898	14062
923.007	14012
923.116	14031
923.224	14092
923.333	14058
923.442	13913
923.55	13909
923.659	13963
923.767	13993
923.876	13890
923.984	13856
924.092	13830
924.201	13917
924.309	13864
924.417	13860
924.525	13734
924.633	13719
924.741	14518
924.849	13430
924.956	13613
925.064	13518
925.172	13407
925.279	13529
925.387	13502
925.494	13460
925.602	13616
925.709	13514
925.816	13293
925.924	13407
926.031	13571
926.138	13308
926.245	13362
926.352	13362
926.459	13430
926.566	13537
926.673	13327
926.779	13126
926.886	13160
926.993	13046
927.099	12951
927.206	12981
927.312	12932
927.419	13053
927.525	12951
927.631	13084
927.737	12852
927.843	12795
927.95	12859
928.056	12821
928.162	12814
928.267	12840
928.373	13434
928.479	12882
928.585	12665
928.69	12757
928.796	12856
928.901	12627
929.007	12509
929.112	12700
929.218	12669
929.323	12585
929.428	12452
929.533	12563
929.638	12517
929.743	12483
929.848	12563
929.953	12517
930.058	12342
930.163	12163
930.267	12182
930.372	12273
930.477	12232
930.581	12403
930.685	12205
930.79	12087
930.894	12045
930.998	12076
931.103	12216
931.207	11847
931.311	11737
931.415	11695
931.519	11493
931.623	11463
