Data from test_V78500241_1550.txt Node
Date: Fri Mar 25 15:52:32 CST 2022
User: usil
Spectrometer: V785-0024
Trigger mode: 0
Integration Time (sec): 4.000000E-1
Scans to average: 1
Nonlinearity correction enabled: false
Boxcar width: 0
Storing dark spectrum: false
XAxis mode: Wavelengths
Number of Pixels in Spectrum: 1024
>>>>>Begin Spectral Data<<<<<
801.071	27473
801.214	27557
801.356	27325
801.499	27310
801.641	27066
801.783	27214
801.926	27283
802.068	27150
802.211	27173
802.353	26967
802.496	26880
802.638	26952
802.78	26701
802.923	26750
803.065	26731
803.208	26648
803.35	26864
803.492	26887
803.635	26872
803.777	26857
803.919	26929
804.061	27237
804.204	26994
804.346	26902
804.488	26914
804.63	27028
804.773	26971
804.915	27036
805.057	27135
805.199	26895
805.341	27089
805.483	27135
805.626	26990
805.768	26902
805.91	27017
806.052	27123
806.194	27013
806.336	27119
806.478	27119
806.62	27058
806.762	27096
806.904	27291
807.046	27663
807.188	27538
807.33	27576
807.472	27583
807.614	27625
807.756	27496
807.898	27359
808.04	27401
808.182	27184
808.324	27355
808.465	27363
808.607	27648
808.749	27644
808.891	27747
809.033	27679
809.174	27686
809.316	27625
809.458	27652
809.6	27580
809.741	27682
809.883	27774
810.025	28025
810.166	27937
810.308	28029
810.45	27941
810.591	27873
810.733	27694
810.875	27728
811.016	27591
811.158	27549
811.299	27739
811.441	27850
811.582	27808
811.724	27720
811.865	27663
812.007	27717
812.148	27656
812.29	27808
812.431	27956
812.573	28051
812.714	28120
812.855	28295
812.997	28207
813.138	28466
813.279	28360
813.421	28215
813.562	28234
813.703	28055
813.845	27850
813.986	27652
814.127	27450
814.268	27401
814.41	27306
814.551	27447
814.692	27359
814.833	27268
814.974	27256
815.115	27363
815.256	27233
815.397	27173
815.539	27211
815.68	27169
815.821	27039
815.962	27192
816.103	27146
816.244	26963
816.385	26986
816.526	26940
816.666	26720
816.807	26621
816.948	26796
817.089	26842
817.23	26739
817.371	26689
817.512	26632
817.653	26750
817.793	26571
817.934	26625
818.075	26689
818.216	26617
818.356	26697
818.497	26636
818.638	26320
818.778	26461
818.919	26480
819.06	26541
819.2	26419
819.341	26549
819.481	26731
819.622	26754
819.762	26971
819.903	26861
820.043	26887
820.184	26845
820.324	26659
820.465	26785
820.605	26819
820.746	26613
820.886	26583
821.026	26724
821.167	26785
821.307	26857
821.447	26762
821.588	26545
821.728	26374
821.868	26320
822.008	26275
822.149	26043
822.289	26157
822.429	25970
822.569	25822
822.709	25837
822.849	25567
822.99	25616
823.13	25689
823.27	25491
823.41	25430
823.55	25377
823.69	25297
823.83	25312
823.97	25479
824.11	25240
824.25	25289
824.389	25141
824.529	25274
824.669	25122
824.809	25297
824.949	25411
825.089	25422
825.228	25358
825.368	25217
825.508	25168
825.648	25206
825.787	25160
825.927	25365
826.067	25152
826.206	25008
826.346	25088
826.485	25301
826.625	25080
826.765	25297
826.904	25126
827.044	24970
827.183	24970
827.323	24954
827.462	24905
827.601	24806
827.741	24772
827.88	24947
828.02	24711
828.159	24806
828.298	24905
828.437	24840
828.577	24753
828.716	24806
828.855	24681
828.994	24639
829.134	24707
829.273	24608
829.412	24513
829.551	24525
829.69	24635
829.829	24627
829.968	24665
830.107	24677
830.246	24570
830.385	24631
830.524	24502
830.663	24365
830.802	24258
830.941	24194
831.08	24087
831.219	24266
831.357	24209
831.496	24414
831.635	24106
831.774	24155
831.913	24076
832.051	24038
832.19	23977
832.329	23878
832.467	23828
832.606	23809
832.744	23802
832.883	23889
833.022	23904
833.16	23904
833.299	23969
833.437	23897
833.576	23897
833.714	23874
833.852	23999
833.991	23931
834.129	23992
834.267	23931
834.406	23901
834.544	23847
834.682	23958
834.821	23882
834.959	24034
835.097	23855
835.235	23870
835.373	24045
835.511	23885
835.65	23760
835.788	23764
835.926	23524
836.064	23543
836.202	23589
836.34	23726
836.478	23847
836.615	23756
836.753	23737
836.891	23805
837.029	23733
837.167	23691
837.305	23524
837.443	23668
837.58	23554
837.718	23562
837.856	23421
837.993	23524
838.131	23611
838.269	23490
838.406	23570
838.544	23471
838.681	23277
838.819	23231
838.956	23003
839.094	22968
839.231	23155
839.369	23121
839.506	23478
839.643	23288
839.781	23204
839.918	22949
840.055	23056
840.193	22999
840.33	22938
840.467	23025
840.604	22995
840.742	23284
840.879	22877
841.016	22946
841.153	22824
841.29	23086
841.427	22995
841.564	22980
841.701	23041
841.838	23056
841.975	22927
842.112	22801
842.249	22812
842.385	22725
842.522	23006
842.659	22828
842.796	22748
842.933	22645
843.069	22626
843.206	22653
843.343	22767
843.479	22637
843.616	22664
843.752	22493
843.889	22489
844.025	22637
844.162	22386
844.298	22584
844.435	22599
844.571	22493
844.708	22421
844.844	22713
844.98	22637
845.117	22550
845.253	22443
845.389	22265
845.525	22470
845.661	22360
845.798	22398
845.934	22246
846.07	22246
846.206	22280
846.342	22352
846.478	22196
846.614	22082
846.75	21827
846.886	21915
847.022	22051
847.158	21953
847.294	21987
847.429	21998
847.565	21934
847.701	22211
847.837	21884
847.972	21580
848.108	21736
848.244	21774
848.379	21595
848.515	21542
848.65	21469
848.786	21500
848.921	21583
849.057	21625
849.192	21682
849.328	21759
849.463	21412
849.598	21504
849.734	21466
849.869	21378
850.004	21313
850.14	21340
850.275	21405
850.41	21321
850.545	21374
850.68	21317
850.815	21348
850.95	21367
851.085	21477
851.22	21431
851.355	21363
851.49	21367
851.625	21321
851.76	21294
851.895	21279
852.03	21268
852.165	21291
852.299	21256
852.434	21443
852.569	21401
852.703	21321
852.838	21443
852.973	21435
853.107	21359
853.242	21313
853.376	21169
853.511	21100
853.645	21138
853.78	21252
853.914	21237
854.048	21108
854.183	21104
854.317	21169
854.451	21370
854.585	21154
854.72	21173
854.854	21195
854.988	21119
855.122	21116
855.256	20918
855.39	21119
855.524	21218
855.658	21165
855.792	21184
855.926	21195
856.06	21180
856.194	21294
856.327	21135
856.461	21218
856.595	21096
856.729	21089
856.862	21222
856.996	21135
857.13	21154
857.263	21195
857.397	21199
857.53	21157
857.664	21093
857.797	21226
857.931	21336
858.064	21100
858.197	21260
858.331	21199
858.464	21100
858.597	21100
858.731	21112
858.864	21192
858.997	21119
859.13	21100
859.263	21291
859.396	21195
859.529	21096
859.662	21214
859.795	21214
859.928	21176
860.061	21374
860.194	21294
860.327	21233
860.46	21077
860.592	21348
860.725	21272
860.858	21279
860.99	21089
861.123	21131
861.256	21146
861.388	21169
861.521	21629
861.653	21039
861.786	21051
861.918	20948
862.05	21001
862.183	21017
862.315	20979
862.447	21188
862.58	21085
862.712	21001
862.844	20895
862.976	20906
863.108	20842
863.24	21420
863.372	20864
863.504	20914
863.636	20910
863.768	20823
863.9	20937
864.032	20807
864.164	20815
864.296	20826
864.428	20925
864.559	20895
864.691	21001
864.823	20815
864.954	20864
865.086	20834
865.217	20682
865.349	20667
865.48	20773
865.612	20678
865.743	20937
865.875	20762
866.006	20788
866.137	20861
866.269	20815
866.4	20800
866.531	20602
866.662	20678
866.793	20663
866.924	20674
867.055	20754
867.186	20644
867.317	20693
867.448	20617
867.579	20670
867.71	20697
867.841	20484
867.972	20651
868.103	20644
868.233	20670
868.364	20583
868.495	20697
868.625	20956
868.756	21089
868.886	20853
869.017	20982
869.147	21020
869.278	21104
869.408	21001
869.539	20952
869.669	20998
869.799	21062
869.929	21150
870.06	21017
870.19	21321
870.32	21173
870.45	21256
870.58	21450
870.71	21485
870.84	21473
870.97	21336
871.1	21378
871.23	21424
871.36	21717
871.489	21466
871.619	21458
871.749	21466
871.879	21462
872.008	21675
872.138	21583
872.267	21477
872.397	21378
872.526	21336
872.656	21435
872.785	21340
872.915	21507
873.044	21690
873.173	21572
873.303	21641
873.432	21599
873.561	21587
873.69	21545
873.819	21504
873.948	21648
874.077	21443
874.206	21564
874.335	21667
874.464	21698
874.593	21812
874.722	21694
874.851	21911
874.979	21739
875.108	21854
875.237	21827
875.365	21819
875.494	21747
875.623	21911
875.751	21804
875.88	21899
876.008	21915
876.136	21949
876.265	22219
876.393	22257
876.521	22303
876.65	22158
876.778	22185
876.906	22147
877.034	22120
877.162	22185
877.29	22025
877.418	22150
877.546	22120
877.674	22207
877.802	21964
877.93	22101
878.058	22059
878.185	22086
878.313	22120
878.441	22128
878.568	21991
878.696	22063
878.824	22291
878.951	22261
879.079	22314
879.206	22382
879.333	22363
879.461	22158
879.588	22363
879.715	22238
879.842	22447
879.97	22181
880.097	21884
880.224	22063
880.351	22082
880.478	21983
880.605	21953
880.732	22036
880.859	22166
880.986	22002
881.112	22135
881.239	21804
881.366	21736
881.493	21641
881.619	21496
881.746	21542
881.872	21557
881.999	21530
882.125	21511
882.252	21614
882.378	21481
882.505	21583
882.631	21420
882.757	21230
882.883	21348
883.01	21260
883.136	21188
883.262	21211
883.388	21146
883.514	21233
883.64	21180
883.766	21051
883.892	20979
884.018	21043
884.143	21214
884.269	21218
884.395	21081
884.52	20804
884.646	20788
884.772	20807
884.897	20769
885.023	20781
885.148	20895
885.274	20921
885.399	21005
885.524	20887
885.65	20845
885.775	20823
885.9	20838
886.025	21058
886.15	20975
886.275	20842
886.4	20746
886.525	20895
886.65	20746
886.775	20872
886.9	20815
887.025	20975
887.149	20781
887.274	20716
887.399	20693
887.523	20785
887.648	20590
887.773	20507
887.897	20781
888.021	20796
888.146	20549
888.27	20754
888.395	20693
888.519	20686
888.643	20636
888.767	20708
888.891	20476
889.015	20499
889.139	20473
889.263	20347
889.387	20537
889.511	20644
889.635	20549
889.759	20408
889.883	20454
890.006	20358
890.13	20545
890.254	20290
890.377	20328
890.501	20172
890.624	20164
890.748	20301
890.871	20126
890.995	19955
891.118	19970
891.241	19936
891.364	19997
891.488	20153
891.611	20081
891.734	20119
891.857	20115
891.98	19989
892.103	20126
892.226	20062
892.349	20039
892.471	19883
892.594	19944
892.717	20054
892.839	19879
892.962	19974
893.085	20111
893.207	19909
893.33	19799
893.452	19841
893.575	20157
893.697	19925
893.819	20024
893.941	20100
894.064	20111
894.186	19898
894.308	19890
894.43	20016
894.552	20039
894.674	20054
894.796	19837
894.918	19909
895.04	19883
895.161	19925
895.283	20039
895.405	19940
895.526	19967
895.648	19898
895.769	19959
895.891	19875
896.012	19955
896.134	19909
896.255	20130
896.376	19856
896.498	19906
896.619	19951
896.74	19849
896.861	20039
896.982	20202
897.103	20499
897.224	20225
897.345	20149
897.466	20191
897.587	20187
897.708	20275
897.828	20259
897.949	20126
898.07	19978
898.19	20229
898.311	20240
898.431	20119
898.552	20168
898.672	20248
898.792	20259
898.913	20122
899.033	19974
899.153	19944
899.273	19890
899.393	19928
899.513	19917
899.633	19970
899.753	19852
899.873	19826
899.993	19936
900.113	19936
900.232	19772
900.352	19845
900.472	19594
900.591	19681
900.711	19708
900.83	19624
900.95	19727
901.069	19750
901.189	19594
901.308	19263
901.427	19263
901.546	19289
901.665	19270
901.784	19403
901.904	19122
902.023	19053
902.141	18863
902.26	18916
902.379	18901
902.498	18863
902.617	18734
902.735	18795
902.854	18829
902.973	18722
903.091	18528
903.21	18551
903.328	18437
903.446	18414
903.565	18327
903.683	18323
903.801	18224
903.919	18209
904.038	18213
904.156	18152
904.274	18144
904.392	17961
904.51	18068
904.627	18079
904.745	18155
904.863	18083
904.981	17843
905.098	17767
905.216	17684
905.334	17771
905.451	17729
905.569	17687
905.686	17729
905.803	17741
905.921	17444
906.038	17581
906.155	17497
906.272	17353
906.389	17497
906.506	17212
906.623	17269
906.74	17265
906.857	17147
906.974	17174
907.091	17254
907.208	17337
907.324	17273
907.441	17105
907.557	17083
907.674	16980
907.79	16877
907.907	16889
908.023	16968
908.139	16957
908.256	16847
908.372	16835
908.488	16854
908.604	16725
908.72	16736
908.836	16668
908.952	16683
909.068	16698
909.184	16759
909.3	16683
909.415	16713
909.531	16664
909.647	16451
909.762	16318
909.878	16337
909.993	16329
910.108	16314
910.224	16329
910.339	16394
910.454	16177
910.57	16246
910.685	16162
910.8	16417
910.915	16276
911.03	16173
911.145	16051
911.259	15994
911.374	15903
911.489	16036
911.604	15922
911.718	15774
911.833	15850
911.947	15709
912.062	15660
912.176	15800
912.291	15652
912.405	15842
912.519	15926
912.633	15907
912.748	15739
912.862	15671
912.976	15500
913.09	15511
913.204	15599
913.318	15542
913.431	15701
913.545	15564
913.659	15720
913.772	15511
913.886	15294
914	15283
914.113	15401
914.226	15542
914.34	15530
914.453	15214
914.566	15397
914.68	15199
914.793	15241
914.906	14956
915.019	15051
915.132	15028
915.245	14982
915.358	15009
915.47	14887
915.583	15017
915.696	14979
915.809	15058
915.921	15036
916.034	14880
916.146	14899
916.259	14872
916.371	15055
916.483	14960
916.595	14773
916.708	14838
916.82	14838
916.932	14746
917.044	14720
917.156	14838
917.268	14636
917.38	14670
917.491	14629
917.603	14583
917.715	14765
917.826	14746
917.938	14617
918.049	14457
918.161	14587
918.272	14716
918.384	14712
918.495	14594
918.606	14454
918.717	14320
918.828	14530
918.939	14438
919.05	14294
919.161	14393
919.272	14191
919.383	14210
919.494	14454
919.604	14556
919.715	14404
919.826	14332
919.936	14332
920.047	14419
920.157	14377
920.267	14457
920.378	14412
920.488	14343
920.598	14415
920.708	14613
920.818	14488
920.928	14469
921.038	14632
921.148	14583
921.258	14381
921.368	14309
921.477	14005
921.587	14103
921.697	14020
921.806	14142
921.916	13959
922.025	13799
922.134	13727
922.244	13704
922.353	13814
922.462	13616
922.571	13582
922.68	13426
922.789	13422
922.898	13396
923.007	13331
923.116	13403
923.224	13449
923.333	13316
923.442	13293
923.55	13263
923.659	13263
923.767	13324
923.876	13095
923.984	13255
924.092	13141
924.201	13129
924.309	13160
924.417	13228
924.525	13061
924.633	13152
924.741	14039
924.849	12882
924.956	12920
925.064	12939
925.172	12726
925.279	12837
925.387	12844
925.494	12817
925.602	12993
925.709	12783
925.816	12692
925.924	12741
926.031	12829
926.138	12768
926.245	12749
926.352	12627
926.459	12837
926.566	12913
926.673	12741
926.779	12555
926.886	12574
926.993	12528
927.099	12369
927.206	12388
927.312	12323
927.419	12452
927.525	12445
927.631	12467
927.737	12388
927.843	12285
927.95	12125
928.056	12133
928.162	12155
928.267	12327
928.373	13004
928.479	12308
928.585	12026
928.69	12167
928.796	12190
928.901	12034
929.007	11969
929.112	12053
929.218	12076
929.323	12034
929.428	11965
929.533	12064
929.638	11832
929.743	11859
929.848	12003
929.953	11942
930.058	11851
930.163	11684
930.267	11646
930.372	11821
930.477	11524
930.581	11840
930.685	11752
930.79	11505
930.894	11551
930.998	11585
931.103	11627
931.207	11273
931.311	11181
931.415	11117
931.519	10972
931.623	10972
