Data from test_V78500241_370.txt Node
Date: Fri Mar 25 15:44:21 CST 2022
User: usil
Spectrometer: V785-0024
Trigger mode: 0
Integration Time (sec): 4.000000E-1
Scans to average: 1
Nonlinearity correction enabled: false
Boxcar width: 0
Storing dark spectrum: false
XAxis mode: Wavelengths
Number of Pixels in Spectrum: 1024
>>>>>Begin Spectral Data<<<<<
801.071	29611
801.214	29699
801.356	29497
801.499	29284
801.641	29189
801.783	29098
801.926	29227
802.068	29280
802.211	29029
802.353	29014
802.496	28862
802.638	28763
802.78	28934
802.923	28942
803.065	28831
803.208	28797
803.35	28881
803.492	28919
803.635	29029
803.777	28877
803.919	29010
804.061	29421
804.204	29159
804.346	28904
804.488	29124
804.63	29094
804.773	28976
804.915	28976
805.057	29094
805.199	28984
805.341	29132
805.483	29292
805.626	29033
805.768	28949
805.91	29220
806.052	29064
806.194	29140
806.336	29383
806.478	29212
806.62	29162
806.762	29258
806.904	29493
807.046	29790
807.188	29611
807.33	29649
807.472	29661
807.614	29493
807.756	29589
807.898	29509
808.04	29444
808.182	29410
808.324	29341
808.465	29410
808.607	29710
808.749	29695
808.891	29813
809.033	30072
809.174	29859
809.316	29824
809.458	29764
809.6	29748
809.741	29794
809.883	29988
810.025	30209
810.166	30174
810.308	30068
810.45	30003
810.591	30087
810.733	29920
810.875	29779
811.016	29798
811.158	29828
811.299	29958
811.441	29965
811.582	29988
811.724	29885
811.865	29832
812.007	29904
812.148	29809
812.29	29931
812.431	29954
812.573	30133
812.714	30281
812.855	30372
812.997	30376
813.138	30460
813.279	30467
813.421	30262
813.562	30391
813.703	30148
813.845	30015
813.986	29821
814.127	29551
814.268	29585
814.41	29444
814.551	29493
814.692	29520
814.833	29334
814.974	29486
815.115	29330
815.256	29421
815.397	29292
815.539	29326
815.68	29155
815.821	29326
815.962	29436
816.103	29242
816.244	29094
816.385	28961
816.526	28900
816.666	28854
816.807	28603
816.948	28771
817.089	28801
817.23	28660
817.371	28744
817.512	28854
817.653	28725
817.793	28782
817.934	28675
818.075	28675
818.216	28698
818.356	28710
818.497	28577
818.638	28371
818.778	28569
818.919	28504
819.06	28653
819.2	28672
819.341	28767
819.481	28554
819.622	28759
819.762	29162
819.903	29079
820.043	28930
820.184	28869
820.324	28790
820.465	28881
820.605	28888
820.746	28786
820.886	28668
821.026	28736
821.167	28759
821.307	28987
821.447	28698
821.588	28675
821.728	28325
821.868	28329
822.008	28325
822.149	28139
822.289	27983
822.429	27812
822.569	27914
822.709	27781
822.849	27751
822.99	27656
823.13	27698
823.27	27656
823.41	27389
823.55	27317
823.69	27530
823.83	27321
823.97	27344
824.11	27245
824.25	27237
824.389	27374
824.529	27382
824.669	27386
824.809	27386
824.949	27264
825.089	27382
825.228	27226
825.368	27085
825.508	27150
825.648	27127
825.787	27108
825.927	27154
826.067	27157
826.206	27055
826.346	27051
826.485	27039
826.625	27116
826.765	27165
826.904	27116
827.044	26804
827.183	26940
827.323	26746
827.462	26800
827.601	26819
827.741	26697
827.88	26777
828.02	26689
828.159	26575
828.298	26777
828.437	26708
828.577	26667
828.716	26849
828.855	26629
828.994	26492
829.134	26473
829.273	26499
829.412	26492
829.551	26351
829.69	26389
829.829	26514
829.968	26457
830.107	26583
830.246	26385
830.385	26355
830.524	26305
830.663	26210
830.802	26317
830.941	26054
831.08	25966
831.219	26031
831.357	26031
831.496	26225
831.635	26062
831.774	26073
831.913	25864
832.051	25795
832.19	25624
832.329	25689
832.467	25616
832.606	25677
832.744	25597
832.883	25518
833.022	25628
833.16	25689
833.299	25712
833.437	25666
833.576	25693
833.714	25727
833.852	25769
833.991	25639
834.129	25795
834.267	25791
834.406	25689
834.544	25658
834.682	25658
834.821	25738
834.959	25822
835.097	25556
835.235	25704
835.373	25655
835.511	25639
835.65	25445
835.788	25476
835.926	25343
836.064	25244
836.202	25312
836.34	25430
836.478	25468
836.615	25582
836.753	25426
836.891	25445
837.029	25479
837.167	25346
837.305	25392
837.443	25384
837.58	25251
837.718	25346
837.856	25289
837.993	25225
838.131	25240
838.269	25251
838.406	25244
838.544	25244
838.681	24848
838.819	24916
838.956	24715
839.094	24738
839.231	24859
839.369	24958
839.506	24928
839.643	25000
839.781	24802
839.918	24661
840.055	24563
840.193	24741
840.33	24646
840.467	24639
840.604	24681
840.742	24897
840.879	24490
841.016	24475
841.153	24486
841.29	24616
841.427	24505
841.564	24551
841.701	24578
841.838	24563
841.975	24517
842.112	24376
842.249	24517
842.385	24353
842.522	24498
842.659	24426
842.796	24445
842.933	24281
843.069	24285
843.206	24342
843.343	24281
843.479	24384
843.616	24376
843.752	24205
843.889	24060
844.025	24178
844.162	24026
844.298	24148
844.435	24003
844.571	24091
844.708	24155
844.844	24296
844.98	24121
845.117	24266
845.253	24007
845.389	24057
845.525	23939
845.661	23958
845.798	23828
845.934	23710
846.07	23741
846.206	23931
846.342	23904
846.478	23714
846.614	23653
846.75	23543
846.886	23463
847.022	23440
847.158	23528
847.294	23452
847.429	23516
847.565	23520
847.701	23668
847.837	23273
847.972	23132
848.108	23326
848.244	23356
848.379	23109
848.515	23056
848.65	23060
848.786	23105
848.921	23223
849.057	23132
849.192	23109
849.328	23033
849.463	23071
849.598	23109
849.734	22942
849.869	22911
850.004	22752
850.14	22843
850.275	22889
850.41	22748
850.545	22809
850.68	22759
850.815	22820
850.95	22763
851.085	23041
851.22	22942
851.355	22831
851.49	22717
851.625	22710
851.76	22725
851.895	22706
852.03	22763
852.165	22778
852.299	22858
852.434	22987
852.569	22949
852.703	22854
852.838	22881
852.973	22877
853.107	22911
853.242	22702
853.376	22668
853.511	22538
853.645	22527
853.78	22740
853.914	22580
854.048	22592
854.183	22489
854.317	22531
854.451	22862
854.585	22599
854.72	22531
854.854	22649
854.988	22504
855.122	22584
855.256	22538
855.39	22550
855.524	22618
855.658	22577
855.792	22607
855.926	22653
856.06	22668
856.194	22645
856.327	22542
856.461	22565
856.595	22573
856.729	22561
856.862	22668
856.996	22508
857.13	22645
857.263	22725
857.397	22683
857.53	22603
857.664	22580
857.797	22626
857.931	22729
858.064	22588
858.197	22683
858.331	22550
858.464	22584
858.597	22295
858.731	22592
858.864	22470
858.997	22599
859.13	22603
859.263	22531
859.396	22626
859.529	22542
859.662	22500
859.795	22573
859.928	22550
860.061	22725
860.194	22717
860.327	22622
860.46	22626
860.592	22755
860.725	22812
860.858	22694
860.99	22599
861.123	22481
861.256	22497
861.388	22478
861.521	23223
861.653	22417
861.786	22421
861.918	22398
862.05	22500
862.183	22531
862.315	22443
862.447	22607
862.58	22478
862.712	22204
862.844	22173
862.976	22242
863.108	22265
863.24	22740
863.372	22128
863.504	22268
863.636	22215
863.768	22238
863.9	22204
864.032	22143
864.164	22223
864.296	22242
864.428	22322
864.559	22230
864.691	22169
864.823	22234
864.954	22139
865.086	22158
865.217	22192
865.349	22105
865.48	22173
865.612	22230
865.743	22215
865.875	22101
866.006	22078
866.137	22204
866.269	22143
866.4	22086
866.531	22063
866.662	21968
866.793	22032
866.924	21994
867.055	22074
867.186	21979
867.317	21941
867.448	21968
867.579	22032
867.71	21941
867.841	21960
867.972	22017
868.103	21991
868.233	22002
868.364	21994
868.495	22143
868.625	22192
868.756	22276
868.886	22143
869.017	22322
869.147	22280
869.278	22455
869.408	22257
869.539	22310
869.669	22363
869.799	22379
869.929	22428
870.06	22375
870.19	22451
870.32	22557
870.45	22675
870.58	22615
870.71	22763
870.84	22824
870.97	22618
871.1	22592
871.23	22858
871.36	22862
871.489	22729
871.619	22763
871.749	22869
871.879	22824
872.008	22946
872.138	22820
872.267	22809
872.397	22755
872.526	22569
872.656	22752
872.785	22786
872.915	22839
873.044	22923
873.173	22892
873.303	23094
873.432	23029
873.561	22938
873.69	22862
873.819	22869
873.948	23010
874.077	22919
874.206	22839
874.335	22908
874.464	22877
874.593	23121
874.722	23064
874.851	23159
874.979	23090
875.108	23178
875.237	23056
875.365	22968
875.494	23098
875.623	23136
875.751	23136
875.88	23060
876.008	23254
876.136	23265
876.265	23440
876.393	23676
876.521	23581
876.65	23528
876.778	23448
876.906	23436
877.034	23364
877.162	23547
877.29	23398
877.418	23452
877.546	23444
877.674	23353
877.802	23406
877.93	23315
878.058	23334
878.185	23246
878.313	23395
878.441	23402
878.568	23254
878.696	23303
878.824	23433
878.951	23608
879.079	23707
879.206	23634
879.333	23687
879.461	23387
879.588	23463
879.715	23661
879.842	23729
879.97	23539
880.097	23330
880.224	23246
880.351	23299
880.478	23220
880.605	23212
880.732	23261
880.859	23535
880.986	23269
881.112	23197
881.239	23071
881.366	23090
881.493	23044
881.619	22866
881.746	22782
881.872	22759
881.999	22698
882.125	22774
882.252	22793
882.378	22713
882.505	22900
882.631	22588
882.757	22500
882.883	22645
883.01	22557
883.136	22470
883.262	22413
883.388	22440
883.514	22527
883.64	22470
883.766	22424
883.892	22207
884.018	22219
884.143	22489
884.269	22580
884.395	22299
884.52	22116
884.646	22226
884.772	22120
884.897	21937
885.023	22116
885.148	22242
885.274	22249
885.399	22230
885.524	22067
885.65	22135
885.775	22090
885.9	22124
886.025	22032
886.15	22295
886.275	22147
886.4	21953
886.525	22105
886.65	22067
886.775	22101
886.9	22215
887.025	22394
887.149	22067
887.274	21907
887.399	21838
887.523	21873
887.648	21762
887.773	21755
887.897	21968
888.021	21934
888.146	21842
888.27	22021
888.395	21972
888.519	21926
888.643	21915
888.767	21907
888.891	21808
889.015	21732
889.139	21759
889.263	21671
889.387	21800
889.511	21975
889.635	21861
889.759	21713
889.883	21614
890.006	21629
890.13	21713
890.254	21610
890.377	21656
890.501	21454
890.624	21412
890.748	21515
890.871	21283
890.995	21154
891.118	21199
891.241	21192
891.364	21241
891.488	21222
891.611	21192
891.734	21211
891.857	21199
891.98	21230
892.103	21245
892.226	21173
892.349	21089
892.471	21043
892.594	21077
892.717	21108
892.839	21055
892.962	21207
893.085	21096
893.207	20944
893.33	21096
893.452	21020
893.575	21096
893.697	21024
893.819	21241
893.941	21283
894.064	21207
894.186	21039
894.308	20899
894.43	21176
894.552	21108
894.674	21138
894.796	20998
894.918	21108
895.04	21013
895.161	21176
895.283	21123
895.405	20975
895.526	21184
895.648	21081
895.769	21070
895.891	21112
896.012	21279
896.134	21085
896.255	21195
896.376	21017
896.498	21070
896.619	21085
896.74	21142
896.861	21096
896.982	21401
897.103	21549
897.224	21389
897.345	21332
897.466	21230
897.587	21195
897.708	21500
897.828	21382
897.949	21279
898.07	21176
898.19	21256
898.311	21424
898.431	21165
898.552	21310
898.672	21336
898.792	21306
898.913	21161
899.033	21157
899.153	21176
899.273	20960
899.393	21127
899.513	21131
899.633	20906
899.753	20941
899.873	20963
899.993	20994
900.113	20933
900.232	20902
900.352	20857
900.472	20800
900.591	20693
900.711	20686
900.83	20682
900.95	20819
901.069	20773
901.189	20636
901.308	20423
901.427	20339
901.546	20358
901.665	20339
901.784	20282
901.904	20248
902.023	20130
902.141	19913
902.26	19826
902.379	19845
902.498	19818
902.617	19868
902.735	19772
902.854	19734
902.973	19609
903.091	19426
903.21	19449
903.328	19438
903.446	19396
903.565	19343
903.683	19213
903.801	19217
903.919	19263
904.038	19289
904.156	18985
904.274	19050
904.392	18985
904.51	19000
904.627	18970
904.745	18966
904.863	19012
904.981	18897
905.098	18692
905.216	18719
905.334	18711
905.451	18692
905.569	18650
905.686	18692
905.803	18783
905.921	18391
906.038	18570
906.155	18357
906.272	18311
906.389	18350
906.506	18319
906.623	18178
906.74	18159
906.857	18171
906.974	18148
907.091	18182
907.208	18292
907.324	18315
907.441	18057
907.557	17813
907.674	17859
907.79	17752
907.907	17855
908.023	17912
908.139	17904
908.256	17794
908.372	17729
908.488	17680
908.604	17573
908.72	17608
908.836	17619
908.952	17562
909.068	17638
909.184	17718
909.3	17520
909.415	17604
909.531	17543
909.647	17345
909.762	17235
909.878	17193
909.993	17383
910.108	17315
910.224	17250
910.339	17296
910.454	17102
910.57	17151
910.685	16889
910.8	17128
910.915	17170
911.03	17132
911.145	16869
911.259	16869
911.374	16885
911.489	16698
911.604	16660
911.718	16554
911.833	16535
911.947	16577
912.062	16531
912.176	16660
912.291	16683
912.405	16569
912.519	16793
912.633	16702
912.748	16634
912.862	16485
912.976	16386
913.09	16295
913.204	16466
913.318	16344
913.431	16447
913.545	16402
913.659	16577
913.772	16402
913.886	16215
914	16120
914.113	16249
914.226	16280
914.34	16234
914.453	16063
914.566	16177
914.68	16002
914.793	16093
914.906	15732
915.019	15739
915.132	15808
915.245	15800
915.358	15819
915.47	15732
915.583	15785
915.696	15842
915.809	15964
915.921	15861
916.034	15694
916.146	15694
916.259	15629
916.371	15766
916.483	15762
916.595	15603
916.708	15660
916.82	15595
916.932	15545
917.044	15507
917.156	15564
917.268	15378
917.38	15370
917.491	15344
917.603	15393
917.715	15408
917.826	15462
917.938	15321
918.049	15173
918.161	15272
918.272	15348
918.384	15370
918.495	15272
918.606	15272
918.717	15062
918.828	15058
918.939	15150
919.05	14971
919.161	15112
919.272	14902
919.383	15024
919.494	15154
919.604	15237
919.715	15070
919.826	15013
919.936	15131
920.047	15138
920.157	15116
920.267	15165
920.378	15085
920.488	14971
920.598	15233
920.708	15405
920.818	15108
920.928	15233
921.038	15310
921.148	15264
921.258	15024
921.368	14887
921.477	14769
921.587	14746
921.697	14598
921.806	14842
921.916	14682
922.025	14446
922.134	14431
922.244	14366
922.353	14488
922.462	14317
922.571	14161
922.68	14077
922.789	14096
922.898	14123
923.007	13928
923.116	14046
923.224	14020
923.333	13967
923.442	13902
923.55	13845
923.659	13849
923.767	13947
923.876	13772
923.984	13898
924.092	13788
924.201	13849
924.309	13753
924.417	13738
924.525	13818
924.633	13704
924.741	14381
924.849	13491
924.956	13712
925.064	13521
925.172	13392
925.279	13388
925.387	13575
925.494	13472
925.602	13613
925.709	13533
925.816	13407
925.924	13381
926.031	13453
926.138	13377
926.245	13483
926.352	13350
926.459	13362
926.566	13502
926.673	13358
926.779	13274
926.886	13194
926.993	13034
927.099	13061
927.206	12939
927.312	12962
927.419	13023
927.525	13088
927.631	13095
927.737	12848
927.843	12875
927.95	12738
928.056	12844
928.162	12859
928.267	12848
928.373	13331
928.479	12856
928.585	12700
928.69	12802
928.796	12817
928.901	12711
929.007	12517
929.112	12673
929.218	12578
929.323	12623
929.428	12547
929.533	12616
929.638	12509
929.743	12448
929.848	12521
929.953	12414
930.058	12353
930.163	12243
930.267	12239
930.372	12300
930.477	12159
930.581	12426
930.685	12342
930.79	12125
930.894	12129
930.998	12045
931.103	12239
931.207	11912
931.311	11767
931.415	11646
931.519	11528
931.623	11444
