Data from test_V78500241_2712.txt Node
Date: Fri Mar 25 16:00:35 CST 2022
User: usil
Spectrometer: V785-0024
Trigger mode: 0
Integration Time (sec): 4.000000E-1
Scans to average: 1
Nonlinearity correction enabled: false
Boxcar width: 0
Storing dark spectrum: false
XAxis mode: Wavelengths
Number of Pixels in Spectrum: 1024
>>>>>Begin Spectral Data<<<<<
801.071	28698
801.214	28622
801.356	28428
801.499	28238
801.641	28177
801.783	28032
801.926	28196
802.068	28162
802.211	28116
802.353	27937
802.496	27945
802.638	27987
802.78	27781
802.923	27743
803.065	27774
803.208	27736
803.35	27937
803.492	28029
803.635	28078
803.777	27926
803.919	28059
804.061	28310
804.204	27968
804.346	27945
804.488	27941
804.63	28116
804.773	27903
804.915	28253
805.057	28215
805.199	28059
805.341	28124
805.483	28215
805.626	28147
805.768	28074
805.91	28257
806.052	28204
806.194	28070
806.336	28344
806.478	28230
806.62	28223
806.762	28360
806.904	28443
807.046	28675
807.188	28649
807.33	28729
807.472	28790
807.614	28656
807.756	28569
807.898	28424
808.04	28447
808.182	28523
808.324	28451
808.465	28447
808.607	28763
808.749	28911
808.891	28911
809.033	28984
809.174	28831
809.316	28847
809.458	28923
809.6	28740
809.741	28915
809.883	29006
810.025	29193
810.166	29178
810.308	29242
810.45	29136
810.591	29174
810.733	28961
810.875	28858
811.016	28793
811.158	28694
811.299	29102
811.441	29083
811.582	29025
811.724	28839
811.865	28862
812.007	28930
812.148	28938
812.29	29037
812.431	29018
812.573	29124
812.714	29315
812.855	29296
812.997	29490
813.138	29623
813.279	29589
813.421	29372
813.562	29410
813.703	29269
813.845	29064
813.986	28953
814.127	28809
814.268	28649
814.41	28660
814.551	28500
814.692	28672
814.833	28546
814.974	28470
815.115	28725
815.256	28592
815.397	28573
815.539	28459
815.68	28398
815.821	28306
815.962	28497
816.103	28489
816.244	28173
816.385	28287
816.526	28158
816.666	28101
816.807	27835
816.948	27964
817.089	27937
817.23	28010
817.371	27953
817.512	27720
817.653	27831
817.793	27850
817.934	27964
818.075	27949
818.216	27785
818.356	27713
818.497	27800
818.638	27603
818.778	27637
818.919	27614
819.06	27766
819.2	27918
819.341	27869
819.481	27991
819.622	28090
819.762	28265
819.903	28131
820.043	28139
820.184	28029
820.324	27998
820.465	28021
820.605	28036
820.746	27857
820.886	27926
821.026	27937
821.167	27922
821.307	27975
821.447	27930
821.588	27861
821.728	27682
821.868	27504
822.008	27340
822.149	27500
822.289	27412
822.429	27154
822.569	26940
822.709	27116
822.849	26998
822.99	26971
823.13	26906
823.27	26773
823.41	26644
823.55	26670
823.69	26838
823.83	26716
823.97	26781
824.11	26606
824.25	26507
824.389	26640
824.529	26629
824.669	26613
824.809	26667
824.949	26613
825.089	26560
825.228	26598
825.368	26450
825.508	26514
825.648	26431
825.787	26480
825.927	26488
826.067	26366
826.206	26579
826.346	26507
826.485	26518
826.625	26507
826.765	26507
826.904	26503
827.044	26126
827.183	26172
827.323	26180
827.462	26240
827.601	26168
827.741	26119
827.88	26145
828.02	25963
828.159	26122
828.298	26111
828.437	26271
828.577	26130
828.716	26244
828.855	26115
828.994	25845
829.134	25921
829.273	25887
829.412	25982
829.551	25776
829.69	25879
829.829	25814
829.968	26027
830.107	25932
830.246	25837
830.385	25712
830.524	25704
830.663	25685
830.802	25700
830.941	25362
831.08	25479
831.219	25605
831.357	25491
831.496	25814
831.635	25434
831.774	25464
831.913	25445
832.051	25407
832.19	25297
832.329	25221
832.467	25175
832.606	25110
832.744	25122
832.883	25088
833.022	24981
833.16	25103
833.299	25175
833.437	25118
833.576	25266
833.714	25308
833.852	25350
833.991	25285
834.129	25244
834.267	25209
834.406	25240
834.544	25217
834.682	25179
834.821	25137
834.959	25502
835.097	25023
835.235	25129
835.373	25236
835.511	25240
835.65	25050
835.788	25156
835.926	25004
836.064	24928
836.202	24932
836.34	25061
836.478	25202
836.615	24977
836.753	24996
836.891	25076
837.029	25027
837.167	24924
837.305	24844
837.443	24924
837.58	24871
837.718	24878
837.856	24909
837.993	24760
838.131	24753
838.269	24669
838.406	24856
838.544	24627
838.681	24612
838.819	24426
838.956	24296
839.094	24327
839.231	24296
839.369	24502
839.506	24764
839.643	24658
839.781	24315
839.918	24254
840.055	24304
840.193	24308
840.33	24178
840.467	24171
840.604	24258
840.742	24395
840.879	24167
841.016	24140
841.153	24133
841.29	24277
841.427	24155
841.564	24152
841.701	24140
841.838	24254
841.975	24057
842.112	24239
842.249	23927
842.385	24049
842.522	24224
842.659	24045
842.796	23935
842.933	23889
843.069	23916
843.206	23969
843.343	24098
843.479	23988
843.616	23832
843.752	23699
843.889	23840
844.025	23912
844.162	23710
844.298	23653
844.435	23832
844.571	23672
844.708	23760
844.844	23843
844.98	23832
845.117	23927
845.253	23794
845.389	23589
845.525	23707
845.661	23604
845.798	23668
845.934	23471
846.07	23627
846.206	23471
846.342	23634
846.478	23516
846.614	23277
846.75	23128
846.886	23136
847.022	23326
847.158	23155
847.294	23223
847.429	23383
847.565	23258
847.701	23452
847.837	22942
847.972	22873
848.108	22953
848.244	22976
848.379	22881
848.515	22801
848.65	22801
848.786	22771
848.921	22721
849.057	22915
849.192	22908
849.328	22744
849.463	22801
849.598	22691
849.734	22618
849.869	22603
850.004	22565
850.14	22466
850.275	22706
850.41	22382
850.545	22386
850.68	22588
850.815	22535
850.95	22508
851.085	22812
851.22	22816
851.355	22561
851.49	22561
851.625	22615
851.76	22440
851.895	22588
852.03	22508
852.165	22588
852.299	22641
852.434	22603
852.569	22519
852.703	22538
852.838	22596
852.973	22683
853.107	22706
853.242	22504
853.376	22394
853.511	22234
853.645	22360
853.78	22470
853.914	22478
854.048	22333
854.183	22306
854.317	22478
854.451	22508
854.585	22310
854.72	22394
854.854	22413
854.988	22356
855.122	22462
855.256	22249
855.39	22310
855.524	22455
855.658	22428
855.792	22413
855.926	22417
856.06	22363
856.194	22466
856.327	22284
856.461	22341
856.595	22265
856.729	22421
856.862	22424
856.996	22421
857.13	22447
857.263	22440
857.397	22542
857.53	22386
857.664	22443
857.797	22466
857.931	22451
858.064	22360
858.197	22493
858.331	22379
858.464	22417
858.597	22169
858.731	22268
858.864	22310
858.997	22360
859.13	22413
859.263	22459
859.396	22382
859.529	22318
859.662	22272
859.795	22363
859.928	22337
860.061	22531
860.194	22508
860.327	22428
860.46	22459
860.592	22447
860.725	22436
860.858	22428
860.99	22402
861.123	22386
861.256	22333
861.388	22421
861.521	23204
861.653	22234
861.786	22112
861.918	22150
862.05	22253
862.183	22303
862.315	22421
862.447	22322
862.58	22325
862.712	22169
862.844	22093
862.976	22234
863.108	22261
863.24	22542
863.372	22051
863.504	21930
863.636	22029
863.768	22131
863.9	22063
864.032	22040
864.164	22006
864.296	22078
864.428	22147
864.559	22223
864.691	22154
864.823	22040
864.954	22120
865.086	21991
865.217	21994
865.349	21857
865.48	21979
865.612	21907
865.743	22070
865.875	21956
866.006	21850
866.137	21937
866.269	21903
866.4	21819
866.531	21922
866.662	21819
866.793	21895
866.924	21964
867.055	21895
867.186	21934
867.317	21842
867.448	21686
867.579	21895
867.71	21770
867.841	21861
867.972	21918
868.103	21827
868.233	21934
868.364	21964
868.495	21930
868.625	22139
868.756	22169
868.886	22109
869.017	22116
869.147	22276
869.278	22166
869.408	22112
869.539	22150
869.669	22196
869.799	22169
869.929	22181
870.06	22230
870.19	22455
870.32	22481
870.45	22489
870.58	22527
870.71	22782
870.84	22645
870.97	22508
871.1	22485
871.23	22721
871.36	22733
871.489	22592
871.619	22637
871.749	22744
871.879	22713
872.008	22763
872.138	22793
872.267	22660
872.397	22546
872.526	22618
872.656	22561
872.785	22443
872.915	22843
873.044	22801
873.173	22710
873.303	22786
873.432	22854
873.561	22839
873.69	22744
873.819	22694
873.948	22949
874.077	22824
874.206	22721
874.335	22763
874.464	22892
874.593	23018
874.722	22968
874.851	23014
874.979	22889
875.108	23037
875.237	23014
875.365	22908
875.494	22946
875.623	23128
875.751	22984
875.88	23010
876.008	23086
876.136	23098
876.265	23353
876.393	23402
876.521	23505
876.65	23493
876.778	23448
876.906	23372
877.034	23273
877.162	23208
877.29	23235
877.418	23258
877.546	23288
877.674	23239
877.802	23193
877.93	23387
878.058	23231
878.185	23181
878.313	23280
878.441	23303
878.568	23048
878.696	23178
878.824	23174
878.951	23356
879.079	23436
879.206	23722
879.333	23512
879.461	23417
879.588	23379
879.715	23414
879.842	23585
879.97	23315
880.097	23124
880.224	23189
880.351	23143
880.478	23010
880.605	23071
880.732	23094
880.859	23326
880.986	23174
881.112	23147
881.239	22991
881.366	22900
881.493	22797
881.619	22683
881.746	22607
881.872	22672
881.999	22561
882.125	22679
882.252	22584
882.378	22668
882.505	22713
882.631	22535
882.757	22394
882.883	22451
883.01	22360
883.136	22405
883.262	22344
883.388	22246
883.514	22337
883.64	22417
883.766	22204
883.892	22173
884.018	22242
884.143	22325
884.269	22295
884.395	22074
884.52	21949
884.646	21915
884.772	21994
884.897	21861
885.023	22013
885.148	22032
885.274	22055
885.399	22044
885.524	21949
885.65	21968
885.775	21922
885.9	21979
886.025	22105
886.15	22158
886.275	21949
886.4	21979
886.525	21964
886.65	21899
886.775	21827
886.9	22013
887.025	22238
887.149	21975
887.274	21705
887.399	21759
887.523	21812
887.648	21667
887.773	21629
887.897	21831
888.021	21842
888.146	21694
888.27	21732
888.395	21861
888.519	21701
888.643	21800
888.767	21724
888.891	21720
889.015	21439
889.139	21660
889.263	21428
889.387	21603
889.511	21789
889.635	21667
889.759	21633
889.883	21583
890.006	21545
890.13	21663
890.254	21485
890.377	21466
890.501	21306
890.624	21256
890.748	21412
890.871	21211
890.995	21093
891.118	21028
891.241	21154
891.364	21081
891.488	21306
891.611	21009
891.734	21119
891.857	21123
891.98	21195
892.103	21184
892.226	21116
892.349	21058
892.471	20754
892.594	21055
892.717	20979
892.839	20979
892.962	20967
893.085	21089
893.207	21013
893.33	20918
893.452	20830
893.575	20994
893.697	21005
893.819	21180
893.941	21169
894.064	21032
894.186	20933
894.308	20739
894.43	21161
894.552	21096
894.674	21047
894.796	20861
894.918	20952
895.04	20845
895.161	21089
895.283	21077
895.405	20948
895.526	20971
895.648	20887
895.769	21039
895.891	20937
896.012	21104
896.134	21062
896.255	20952
896.376	20887
896.498	20906
896.619	21013
896.74	20967
896.861	20979
896.982	21317
897.103	21363
897.224	21283
897.345	21199
897.466	21283
897.587	21241
897.708	21378
897.828	21252
897.949	21055
898.07	21036
898.19	21108
898.311	21100
898.431	21138
898.552	21230
898.672	21264
898.792	21264
898.913	21157
899.033	20979
899.153	20941
899.273	20765
899.393	20925
899.513	20914
899.633	20750
899.753	20933
899.873	20708
899.993	20834
900.113	20902
900.232	20963
900.352	20880
900.472	20648
900.591	20594
900.711	20606
900.83	20750
900.95	20674
901.069	20876
901.189	20514
901.308	20385
901.427	20225
901.546	20248
901.665	20119
901.784	20336
901.904	20107
902.023	19978
902.141	19841
902.26	19769
902.379	19757
902.498	19674
902.617	19757
902.735	19677
902.854	19727
902.973	19693
903.091	19480
903.21	19400
903.328	19244
903.446	19377
903.565	19206
903.683	19202
903.801	19183
903.919	19156
904.038	19126
904.156	19076
904.274	18973
904.392	18935
904.51	18966
904.627	18966
904.745	18962
904.863	18951
904.981	18825
905.098	18730
905.216	18574
905.334	18604
905.451	18654
905.569	18681
905.686	18627
905.803	18738
905.921	18494
906.038	18426
906.155	18346
906.272	18330
906.389	18319
906.506	18095
906.623	18205
906.74	18224
906.857	17992
906.974	17984
907.091	18258
907.208	18224
907.324	18148
907.441	18114
907.557	17923
907.674	17843
907.79	17813
907.907	17874
908.023	17847
908.139	17843
908.256	17821
908.372	17760
908.488	17767
908.604	17623
908.72	17570
908.836	17596
908.952	17634
909.068	17585
909.184	17634
909.3	17608
909.415	17577
909.531	17558
909.647	17444
909.762	17235
909.878	17269
909.993	17360
910.108	17265
910.224	17280
910.339	17223
910.454	17143
910.57	17109
910.685	17018
910.8	17284
910.915	17250
911.03	17041
911.145	16869
911.259	16919
911.374	16885
911.489	16778
911.604	16748
911.718	16577
911.833	16558
911.947	16660
912.062	16481
912.176	16653
912.291	16675
912.405	16630
912.519	16752
912.633	16683
912.748	16653
912.862	16531
912.976	16481
913.09	16272
913.204	16306
913.318	16489
913.431	16535
913.545	16394
913.659	16481
913.772	16402
913.886	16246
914	16181
914.113	16417
914.226	16337
914.34	16177
914.453	16196
914.566	16249
914.68	16131
914.793	16010
914.906	15880
915.019	15709
915.132	15827
915.245	15770
915.358	15857
915.47	15778
915.583	15789
915.696	15797
915.809	15930
915.921	15854
916.034	15698
916.146	15720
916.259	15614
916.371	15713
916.483	15561
916.595	15553
916.708	15485
916.82	15549
916.932	15584
917.044	15519
917.156	15374
917.268	15462
917.38	15439
917.491	15268
917.603	15393
917.715	15492
917.826	15485
917.938	15439
918.049	15279
918.161	15500
918.272	15447
918.384	15443
918.495	15268
918.606	15214
918.717	15100
918.828	15211
918.939	15222
919.05	15066
919.161	15077
919.272	14967
919.383	15066
919.494	15268
919.604	15252
919.715	15138
919.826	14956
919.936	14952
920.047	15260
920.157	15135
920.267	15275
920.378	15066
920.488	15058
920.598	15313
920.708	15340
920.818	15252
920.928	15256
921.038	15416
921.148	15294
921.258	15024
921.368	14838
921.477	14861
921.587	14830
921.697	14682
921.806	14701
921.916	14708
922.025	14560
922.134	14503
922.244	14419
922.353	14488
922.462	14404
922.571	14233
922.68	14202
922.789	14145
922.898	14077
923.007	14050
923.116	14214
923.224	14054
923.333	14115
923.442	13947
923.55	13864
923.659	14024
923.767	13993
923.876	13864
923.984	13902
924.092	13811
924.201	13868
924.309	13822
924.417	13871
924.525	13734
924.633	13788
924.741	14701
924.849	13537
924.956	13708
925.064	13571
925.172	13403
925.279	13499
925.387	13559
925.494	13544
925.602	13597
925.709	13521
925.816	13403
925.924	13426
926.031	13476
926.138	13373
926.245	13441
926.352	13266
926.459	13537
926.566	13487
926.673	13362
926.779	13232
926.886	13164
926.993	13095
927.099	13046
927.206	12935
927.312	13019
927.419	13114
927.525	13000
927.631	13027
927.737	12852
927.843	12852
927.95	12810
928.056	12863
928.162	12802
928.267	12901
928.373	13419
928.479	12943
928.585	12734
928.69	12795
928.796	12844
928.901	12677
929.007	12597
929.112	12707
929.218	12612
929.323	12566
929.428	12563
929.533	12707
929.638	12452
929.743	12494
929.848	12502
929.953	12589
930.058	12350
930.163	12292
930.267	12292
930.372	12327
930.477	12182
930.581	12471
930.685	12338
930.79	12110
930.894	12148
930.998	12091
931.103	12235
931.207	11737
931.311	11790
931.415	11714
931.519	11429
931.623	11497
