Data from test_V78500241_1013.txt Node
Date: Fri Mar 25 15:48:49 CST 2022
User: usil
Spectrometer: V785-0024
Trigger mode: 0
Integration Time (sec): 4.000000E-1
Scans to average: 1
Nonlinearity correction enabled: false
Boxcar width: 0
Storing dark spectrum: false
XAxis mode: Wavelengths
Number of Pixels in Spectrum: 1024
>>>>>Begin Spectral Data<<<<<
801.071	28219
801.214	27998
801.356	27823
801.499	27743
801.641	27663
801.783	27644
801.926	27694
802.068	27622
802.211	27496
802.353	27614
802.496	27329
802.638	27291
802.78	27294
802.923	27340
803.065	27146
803.208	27317
803.35	27466
803.492	27386
803.635	27538
803.777	27382
803.919	27454
804.061	27907
804.204	27599
804.346	27473
804.488	27245
804.63	27386
804.773	27294
804.915	27572
805.057	27595
805.199	27500
805.341	27610
805.483	27675
805.626	27724
805.768	27473
805.91	27587
806.052	27568
806.194	27648
806.336	27934
806.478	27736
806.62	27686
806.762	27724
806.904	27975
807.046	28261
807.188	28207
807.33	28158
807.472	28276
807.614	28166
807.756	28044
807.898	27930
808.04	27934
808.182	27892
808.324	27778
808.465	28070
808.607	28181
808.749	28291
808.891	28421
809.033	28588
809.174	28356
809.316	28249
809.458	28341
809.6	28135
809.741	28401
809.883	28348
810.025	28759
810.166	28641
810.308	28481
810.45	28675
810.591	28459
810.733	28295
810.875	28390
811.016	28223
811.158	28303
811.299	28447
811.441	28504
811.582	28481
811.724	28367
811.865	28314
812.007	28424
812.148	28421
812.29	28379
812.431	28538
812.573	28557
812.714	28774
812.855	28911
812.997	28873
813.138	29018
813.279	28976
813.421	28904
813.562	28805
813.703	28656
813.845	28573
813.986	28234
814.127	28059
814.268	28063
814.41	28040
814.551	27968
814.692	28006
814.833	27907
814.974	27930
815.115	28048
815.256	27800
815.397	27857
815.539	27975
815.68	27895
815.821	27686
815.962	27857
816.103	27926
816.244	27736
816.385	27625
816.526	27568
816.666	27424
816.807	27340
816.948	27507
817.089	27393
817.23	27321
817.371	27321
817.512	27192
817.653	27199
817.793	27291
817.934	27279
818.075	27192
818.216	27424
818.356	27268
818.497	27157
818.638	27047
818.778	26994
818.919	27085
819.06	27047
819.2	27176
819.341	27283
819.481	27264
819.622	27595
819.762	27622
819.903	27530
820.043	27473
820.184	27401
820.324	27382
820.465	27462
820.605	27401
820.746	27420
820.886	27393
821.026	27370
821.167	27367
821.307	27504
821.447	27367
821.588	27283
821.728	27070
821.868	26864
822.008	26979
822.149	26712
822.289	26606
822.429	26503
822.569	26450
822.709	26457
822.849	26393
822.99	26408
823.13	26240
823.27	26301
823.41	26096
823.55	26058
823.69	26195
823.83	26168
823.97	26077
824.11	25894
824.25	25833
824.389	25852
824.529	26054
824.669	25909
824.809	26130
824.949	26058
825.089	26039
825.228	26016
825.368	25803
825.508	25632
825.648	25841
825.787	25791
825.927	25875
826.067	25738
826.206	25814
826.346	25765
826.485	25723
826.625	25814
826.765	25864
826.904	25944
827.044	25586
827.183	25613
827.323	25403
827.462	25411
827.601	25643
827.741	25525
827.88	25639
828.02	25548
828.159	25411
828.298	25567
828.437	25666
828.577	25438
828.716	25620
828.855	25403
828.994	25244
829.134	25240
829.273	25308
829.412	25171
829.551	25156
829.69	25187
829.829	25221
829.968	25244
830.107	25312
830.246	25206
830.385	25095
830.524	25091
830.663	25034
830.802	24894
830.941	24825
831.08	24779
831.219	24848
831.357	24821
831.496	25023
831.635	24814
831.774	24707
831.913	24703
832.051	24604
832.19	24620
832.329	24582
832.467	24467
832.606	24513
832.744	24456
832.883	24547
833.022	24426
833.16	24475
833.299	24502
833.437	24574
833.576	24601
833.714	24589
833.852	24681
833.991	24620
834.129	24563
834.267	24551
834.406	24407
834.544	24536
834.682	24532
834.821	24483
834.959	24646
835.097	24578
835.235	24391
835.373	24593
835.511	24422
835.65	24395
835.788	24456
835.926	24334
836.064	24201
836.202	24266
836.34	24456
836.478	24384
836.615	24285
836.753	24479
836.891	24342
837.029	24391
837.167	24277
837.305	24197
837.443	24209
837.58	24178
837.718	24239
837.856	24114
837.993	24117
838.131	24239
838.269	24102
838.406	24220
838.544	23988
838.681	23882
838.819	23920
838.956	23748
839.094	23604
839.231	23695
839.369	23847
839.506	24003
839.643	23984
839.781	23771
839.918	23577
840.055	23722
840.193	23695
840.33	23634
840.467	23520
840.604	23577
840.742	23786
840.879	23436
841.016	23486
841.153	23516
841.29	23680
841.427	23482
841.564	23710
841.701	23604
841.838	23554
841.975	23512
842.112	23509
842.249	23258
842.385	23383
842.522	23653
842.659	23421
842.796	23524
842.933	23318
843.069	23254
843.206	23360
843.343	23307
843.479	23440
843.616	23246
843.752	23185
843.889	23193
844.025	23322
844.162	23105
844.298	23162
844.435	23143
844.571	23079
844.708	23060
844.844	23185
844.98	23258
845.117	23212
845.253	23033
845.389	22953
845.525	23060
845.661	22930
845.798	22713
845.934	22843
846.07	22763
846.206	22835
846.342	22873
846.478	22801
846.614	22542
846.75	22478
846.886	22588
847.022	22626
847.158	22577
847.294	22428
847.429	22554
847.565	22493
847.701	22858
847.837	22299
847.972	22261
848.108	22337
848.244	22310
848.379	22341
848.515	22150
848.65	22029
848.786	22105
848.921	22249
849.057	22185
849.192	22242
849.328	22135
849.463	22169
849.598	22097
849.734	22029
849.869	22002
850.004	21972
850.14	21865
850.275	21918
850.41	21823
850.545	21869
850.68	21869
850.815	21972
850.95	21850
851.085	22048
851.22	22032
851.355	21865
851.49	21861
851.625	21876
851.76	21915
851.895	21930
852.03	21812
852.165	21869
852.299	21934
852.434	21816
852.569	21884
852.703	21846
852.838	21987
852.973	22048
853.107	21937
853.242	21854
853.376	21743
853.511	21686
853.645	21667
853.78	21922
853.914	21774
854.048	21709
854.183	21701
854.317	21789
854.451	21918
854.585	21739
854.72	21679
854.854	21918
854.988	21747
855.122	21739
855.256	21576
855.39	21576
855.524	21808
855.658	21804
855.792	21759
855.926	21770
856.06	21759
856.194	21884
856.327	21629
856.461	21614
856.595	21603
856.729	21770
856.862	21964
856.996	21873
857.13	21831
857.263	21789
857.397	21819
857.53	21732
857.664	21812
857.797	21850
857.931	21827
858.064	21759
858.197	21838
858.331	21831
858.464	21656
858.597	21618
858.731	21637
858.864	21797
858.997	21625
859.13	21701
859.263	21739
859.396	21827
859.529	21614
859.662	21675
859.795	21698
859.928	21759
860.061	21800
860.194	21949
860.327	21857
860.46	21789
860.592	21922
860.725	21945
860.858	21781
860.99	21759
861.123	21614
861.256	21656
861.388	21831
861.521	22500
861.653	21667
861.786	21568
861.918	21564
862.05	21663
862.183	21663
862.315	21595
862.447	21717
862.58	21572
862.712	21443
862.844	21302
862.976	21583
863.108	21500
863.24	21903
863.372	21374
863.504	21370
863.636	21264
863.768	21553
863.9	21454
864.032	21393
864.164	21412
864.296	21500
864.428	21526
864.559	21492
864.691	21496
864.823	21485
864.954	21325
865.086	21462
865.217	21408
865.349	21268
865.48	21291
865.612	21332
865.743	21401
865.875	21374
866.006	21306
866.137	21340
866.269	21344
866.4	21408
866.531	21336
866.662	21169
866.793	21233
866.924	21252
867.055	21374
867.186	21203
867.317	21294
867.448	21096
867.579	21252
867.71	21123
867.841	21306
867.972	21165
868.103	21150
868.233	21260
868.364	21302
868.495	21256
868.625	21572
868.756	21637
868.886	21481
869.017	21496
869.147	21538
869.278	21545
869.408	21564
869.539	21538
869.669	21557
869.799	21583
869.929	21675
870.06	21675
870.19	21762
870.32	21876
870.45	21876
870.58	21854
870.71	21949
870.84	22044
870.97	21846
871.1	21865
871.23	22128
871.36	22143
871.489	22059
871.619	22067
871.749	22207
871.879	22006
872.008	22215
872.138	22120
872.267	22162
872.397	21941
872.526	21964
872.656	21953
872.785	22006
872.915	22051
873.044	22139
873.173	22166
873.303	22234
873.432	22166
873.561	22109
873.69	22082
873.819	22070
873.948	22204
874.077	22158
874.206	22086
874.335	22055
874.464	22261
874.593	22265
874.722	22261
874.851	22394
874.979	22253
875.108	22405
875.237	22337
875.365	22261
875.494	22204
875.623	22398
875.751	22333
875.88	22318
876.008	22443
876.136	22584
876.265	22687
876.393	22915
876.521	22790
876.65	22710
876.778	22664
876.906	22755
877.034	22729
877.162	22649
877.29	22596
877.418	22713
877.546	22771
877.674	22653
877.802	22645
877.93	22641
878.058	22535
878.185	22531
878.313	22679
878.441	22736
878.568	22618
878.696	22527
878.824	22679
878.951	22717
879.079	22824
879.206	22877
879.333	22885
879.461	22717
879.588	22908
879.715	22831
879.842	23025
879.97	22725
880.097	22481
880.224	22451
880.351	22573
880.478	22599
880.605	22443
880.732	22573
880.859	22717
880.986	22569
881.112	22630
881.239	22295
881.366	22242
881.493	22086
881.619	22070
881.746	22074
881.872	22169
881.999	22010
882.125	22078
882.252	22120
882.378	22139
882.505	22196
882.631	21926
882.757	21789
882.883	21960
883.01	21770
883.136	21724
883.262	21675
883.388	21641
883.514	21709
883.64	21778
883.766	21709
883.892	21511
884.018	21625
884.143	21682
884.269	21781
884.395	21481
884.52	21313
884.646	21435
884.772	21443
884.897	21348
885.023	21348
885.148	21511
885.274	21595
885.399	21606
885.524	21245
885.65	21420
885.775	21485
885.9	21401
886.025	21462
886.15	21462
886.275	21374
886.4	21298
886.525	21344
886.65	21454
886.775	21447
886.9	21526
887.025	21538
887.149	21454
887.274	21283
887.399	21169
887.523	21249
887.648	21154
887.773	20967
887.897	21279
888.021	21138
888.146	20960
888.27	21241
888.395	21302
888.519	21226
888.643	21154
888.767	21173
888.891	21066
889.015	20914
889.139	21077
889.263	20899
889.387	21165
889.511	21192
889.635	20967
889.759	20998
889.883	21081
890.006	20975
890.13	21058
890.254	20906
890.377	20864
890.501	20682
890.624	20705
890.748	20686
890.871	20705
890.995	20530
891.118	20404
891.241	20590
891.364	20511
891.488	20815
891.611	20526
891.734	20587
891.857	20537
891.98	20640
892.103	20644
892.226	20651
892.349	20415
892.471	20218
892.594	20396
892.717	20396
892.839	20438
892.962	20343
893.085	20461
893.207	20419
893.33	20374
893.452	20377
893.575	20374
893.697	20328
893.819	20514
893.941	20594
894.064	20560
894.186	20374
894.308	20374
894.43	20621
894.552	20469
894.674	20473
894.796	20495
894.918	20347
895.04	20423
895.161	20503
895.283	20503
895.405	20358
895.526	20374
895.648	20431
895.769	20545
895.891	20549
896.012	20442
896.134	20480
896.255	20526
896.376	20351
896.498	20347
896.619	20393
896.74	20290
896.861	20450
896.982	20629
897.103	20887
897.224	20644
897.345	20568
897.466	20579
897.587	20686
897.708	20644
897.828	20674
897.949	20571
898.07	20473
898.19	20689
898.311	20712
898.431	20526
898.552	20545
898.672	20682
898.792	20716
898.913	20716
899.033	20488
899.153	20412
899.273	20374
899.393	20324
899.513	20389
899.633	20393
899.753	20366
899.873	20252
899.993	20457
900.113	20351
900.232	20244
900.352	20259
900.472	20275
900.591	20039
900.711	20153
900.83	20092
900.95	20336
901.069	20240
901.189	20073
901.308	19799
901.427	19727
901.546	19677
901.665	19719
901.784	19753
901.904	19639
902.023	19495
902.141	19316
902.26	19301
902.379	19346
902.498	19209
902.617	19168
902.735	19190
902.854	19232
902.973	19156
903.091	18939
903.21	18951
903.328	18985
903.446	18817
903.565	18692
903.683	18753
903.801	18726
903.919	18745
904.038	18578
904.156	18437
904.274	18601
904.392	18452
904.51	18437
904.627	18506
904.745	18479
904.863	18585
904.981	18300
905.098	18121
905.216	18201
905.334	18076
905.451	18079
905.569	18079
905.686	18216
905.803	18129
905.921	17999
906.038	18087
906.155	18053
906.272	17729
906.389	17901
906.506	17699
906.623	17638
906.74	17547
906.857	17497
906.974	17608
907.091	17741
907.208	17821
907.324	17798
907.441	17554
907.557	17429
907.674	17417
907.79	17311
907.907	17349
908.023	17395
908.139	17391
908.256	17345
908.372	17315
908.488	17242
908.604	17189
908.72	17029
908.836	17121
908.952	17098
909.068	17140
909.184	17311
909.3	17113
909.415	17083
909.531	17121
909.647	16957
909.762	16869
909.878	16774
909.993	16816
910.108	16748
910.224	16786
910.339	16816
910.454	16634
910.57	16542
910.685	16535
910.8	16797
910.915	16782
911.03	16615
911.145	16565
911.259	16402
911.374	16360
911.489	16382
911.604	16265
911.718	16131
911.833	16192
911.947	16082
912.062	16086
912.176	16135
912.291	16112
912.405	16192
912.519	16344
912.633	16333
912.748	16166
912.862	16040
912.976	15899
913.09	15930
913.204	15972
913.318	15991
913.431	15857
913.545	15915
913.659	16109
913.772	15907
913.886	15770
914	15743
914.113	15876
914.226	15846
914.34	15793
914.453	15656
914.566	15797
914.68	15572
914.793	15671
914.906	15412
915.019	15431
915.132	15252
915.245	15370
915.358	15389
915.47	15378
915.583	15378
915.696	15359
915.809	15454
915.921	15496
916.034	15313
916.146	15310
916.259	15222
916.371	15325
916.483	15241
916.595	15192
916.708	15150
916.82	15131
916.932	15058
917.044	15100
917.156	15142
917.268	14971
917.38	15017
917.491	14941
917.603	14982
917.715	15112
917.826	14990
917.938	15013
918.049	14849
918.161	15005
918.272	15055
918.384	15024
918.495	14895
918.606	14754
918.717	14678
918.828	14716
918.939	14720
919.05	14613
919.161	14678
919.272	14473
919.383	14571
919.494	14689
919.604	14975
919.715	14754
919.826	14693
919.936	14636
920.047	14758
920.157	14777
920.267	14872
920.378	14815
920.488	14590
920.598	14857
920.708	15009
920.818	14876
920.928	14826
921.038	15104
921.148	14933
921.258	14629
921.368	14564
921.477	14526
921.587	14442
921.697	14320
921.806	14396
921.916	14271
922.025	14107
922.134	14157
922.244	14020
922.353	14100
922.462	13917
922.571	13909
922.68	13681
922.789	13742
922.898	13738
923.007	13750
923.116	13685
923.224	13753
923.333	13651
923.442	13586
923.55	13525
923.659	13620
923.767	13643
923.876	13495
923.984	13563
924.092	13426
924.201	13491
924.309	13487
924.417	13434
924.525	13426
924.633	13346
924.741	14351
924.849	13198
924.956	13266
925.064	13209
925.172	13129
925.279	13110
925.387	13076
925.494	13038
925.602	13228
925.709	13213
925.816	12954
925.924	13114
926.031	13247
926.138	13076
926.245	13088
926.352	12981
926.459	13023
926.566	13202
926.673	13065
926.779	12894
926.886	12875
926.993	12734
927.099	12650
927.206	12612
927.312	12726
927.419	12688
927.525	12627
927.631	12753
927.737	12646
927.843	12589
927.95	12467
928.056	12418
928.162	12525
928.267	12559
928.373	13095
928.479	12608
928.585	12304
928.69	12479
928.796	12502
928.901	12330
929.007	12220
929.112	12330
929.218	12308
929.323	12235
929.428	12281
929.533	12289
929.638	12228
929.743	12190
929.848	12243
929.953	12319
930.058	12098
930.163	11790
930.267	11961
930.372	12060
930.477	11764
930.581	12095
930.685	12053
930.79	11824
930.894	11809
930.998	11809
931.103	11771
931.207	11524
931.311	11471
931.415	11337
931.519	11208
931.623	11254
