Data from test_V78500241_734.txt Node
Date: Fri Mar 25 15:46:53 CST 2022
User: usil
Spectrometer: V785-0024
Trigger mode: 0
Integration Time (sec): 4.000000E-1
Scans to average: 1
Nonlinearity correction enabled: false
Boxcar width: 0
Storing dark spectrum: false
XAxis mode: Wavelengths
Number of Pixels in Spectrum: 1024
>>>>>Begin Spectral Data<<<<<
801.071	28166
801.214	27903
801.356	27682
801.499	27781
801.641	27545
801.783	27591
801.926	27709
802.068	27538
802.211	27656
802.353	27469
802.496	27306
802.638	27230
802.78	27161
802.923	27218
803.065	27355
803.208	27211
803.35	27306
803.492	27542
803.635	27504
803.777	27473
803.919	27587
804.061	27827
804.204	27542
804.346	27443
804.488	27443
804.63	27450
804.773	27279
804.915	27595
805.057	27641
805.199	27606
805.341	27549
805.483	27641
805.626	27709
805.768	27549
805.91	27652
806.052	27564
806.194	27507
806.336	27793
806.478	27675
806.62	27572
806.762	27812
806.904	27899
807.046	28093
807.188	28196
807.33	28006
807.472	28207
807.614	27983
807.756	28093
807.898	27876
808.04	27812
808.182	27934
808.324	27930
808.465	28002
808.607	28048
808.749	28204
808.891	28337
809.033	28470
809.174	28306
809.316	28223
809.458	28280
809.6	28386
809.741	28455
809.883	28535
810.025	28561
810.166	28622
810.308	28599
810.45	28497
810.591	28440
810.733	28341
810.875	28105
811.016	28242
811.158	28185
811.299	28523
811.441	28436
811.582	28523
811.724	28466
811.865	28352
812.007	28371
812.148	28394
812.29	28200
812.431	28504
812.573	28755
812.714	28736
812.855	28904
812.997	28820
813.138	29178
813.279	29014
813.421	28847
813.562	28854
813.703	28717
813.845	28523
813.986	28318
814.127	28112
814.268	28158
814.41	28036
814.551	27991
814.692	28055
814.833	27953
814.974	28032
815.115	27934
815.256	27739
815.397	27785
815.539	27854
815.68	27778
815.821	27743
815.962	27804
816.103	27903
816.244	27686
816.385	27523
816.526	27732
816.666	27382
816.807	27203
816.948	27447
817.089	27416
817.23	27408
817.371	27329
817.512	27420
817.653	27237
817.793	27241
817.934	27226
818.075	27332
818.216	27302
818.356	27252
818.497	27207
818.638	27028
818.778	26960
818.919	27119
819.06	27093
819.2	27230
819.341	27298
819.481	27389
819.622	27416
819.762	27732
819.903	27564
820.043	27500
820.184	27439
820.324	27378
820.465	27401
820.605	27370
820.746	27348
820.886	27237
821.026	27439
821.167	27515
821.307	27492
821.447	27203
821.588	27180
821.728	27039
821.868	26925
822.008	26792
822.149	26659
822.289	26800
822.429	26552
822.569	26423
822.709	26469
822.849	26286
822.99	26244
823.13	26324
823.27	26202
823.41	26096
823.55	26100
823.69	26134
823.83	26111
823.97	25997
824.11	25883
824.25	25818
824.389	25921
824.529	26062
824.669	25913
824.809	25928
824.949	26050
825.089	25864
825.228	25982
825.368	25750
825.508	25833
825.648	25849
825.787	25997
825.927	25955
826.067	25708
826.206	25647
826.346	25890
826.485	25856
826.625	25772
826.765	25944
826.904	25788
827.044	25556
827.183	25601
827.323	25381
827.462	25563
827.601	25483
827.741	25537
827.88	25708
828.02	25419
828.159	25548
828.298	25544
828.437	25521
828.577	25556
828.716	25616
828.855	25369
828.994	25118
829.134	25183
829.273	25236
829.412	25179
829.551	25213
829.69	25232
829.829	25293
829.968	25247
830.107	25365
830.246	25213
830.385	25088
830.524	25148
830.663	25057
830.802	24848
830.941	24871
831.08	24749
831.219	24916
831.357	24989
831.496	24977
831.635	24882
831.774	24620
831.913	24688
832.051	24566
832.19	24639
832.329	24730
832.467	24445
832.606	24391
832.744	24429
832.883	24589
833.022	24456
833.16	24441
833.299	24464
833.437	24551
833.576	24597
833.714	24673
833.852	24768
833.991	24593
834.129	24677
834.267	24559
834.406	24475
834.544	24456
834.682	24582
834.821	24544
834.959	24760
835.097	24585
835.235	24517
835.373	24532
835.511	24479
835.65	24414
835.788	24418
835.926	24235
836.064	24045
836.202	24266
836.34	24300
836.478	24452
836.615	24422
836.753	24308
836.891	24399
837.029	24433
837.167	24403
837.305	24296
837.443	24273
837.58	24098
837.718	24285
837.856	24239
837.993	24239
838.131	24213
838.269	24106
838.406	24186
838.544	24060
838.681	23824
838.819	23904
838.956	23737
839.094	23889
839.231	23802
839.369	23901
839.506	24079
839.643	24015
839.781	23668
839.918	23570
840.055	23764
840.193	23509
840.33	23558
840.467	23726
840.604	23691
840.742	23794
840.879	23410
841.016	23577
841.153	23516
841.29	23653
841.427	23710
841.564	23630
841.701	23551
841.838	23581
841.975	23516
842.112	23505
842.249	23490
842.385	23337
842.522	23573
842.659	23444
842.796	23208
842.933	23440
843.069	23307
843.206	23288
843.343	23414
843.479	23326
843.616	23360
843.752	22900
843.889	23136
844.025	23353
844.162	23090
844.298	23197
844.435	23086
844.571	23083
844.708	23041
844.844	23280
844.98	23284
845.117	23307
845.253	23041
845.389	23056
845.525	23022
845.661	23006
845.798	22915
845.934	22972
846.07	22854
846.206	22721
846.342	22995
846.478	22847
846.614	22656
846.75	22466
846.886	22668
847.022	22763
847.158	22641
847.294	22611
847.429	22596
847.565	22531
847.701	22805
847.837	22386
847.972	22329
848.108	22459
848.244	22413
848.379	22154
848.515	22177
848.65	22044
848.786	22242
848.921	22207
849.057	22322
849.192	22329
849.328	22173
849.463	22169
849.598	22128
849.734	22093
849.869	22032
850.004	21983
850.14	22063
850.275	22032
850.41	21857
850.545	21960
850.68	22021
850.815	21960
850.95	21987
851.085	22097
851.22	22029
851.355	21941
851.49	21842
851.625	21994
851.76	21842
851.895	21789
852.03	21880
852.165	21953
852.299	21983
852.434	22097
852.569	21937
852.703	21956
852.838	22082
852.973	22173
853.107	21953
853.242	21770
853.376	21854
853.511	21652
853.645	21720
853.78	21941
853.914	21838
854.048	21808
854.183	21797
854.317	21850
854.451	22010
854.585	21751
854.72	21644
854.854	21816
854.988	21694
855.122	21861
855.256	21583
855.39	21713
855.524	21797
855.658	21804
855.792	21823
855.926	21816
856.06	21880
856.194	21926
856.327	21709
856.461	21679
856.595	21766
856.729	21690
856.862	21880
856.996	21846
857.13	21819
857.263	21800
857.397	21907
857.53	21755
857.664	21785
857.797	21816
857.931	21876
858.064	21846
858.197	21972
858.331	21564
858.464	21629
858.597	21709
858.731	21686
858.864	21770
858.997	21743
859.13	21766
859.263	21854
859.396	21766
859.529	21709
859.662	21724
859.795	21618
859.928	21823
860.061	21991
860.194	22036
860.327	21751
860.46	21797
860.592	21816
860.725	21907
860.858	21941
860.99	21808
861.123	21618
861.256	21667
861.388	21720
861.521	22417
861.653	21686
861.786	21549
861.918	21583
862.05	21633
862.183	21690
862.315	21682
862.447	21751
862.58	21515
862.712	21492
862.844	21454
862.976	21675
863.108	21488
863.24	21876
863.372	21435
863.504	21507
863.636	21538
863.768	21469
863.9	21511
864.032	21340
864.164	21469
864.296	21424
864.428	21606
864.559	21530
864.691	21473
864.823	21492
864.954	21447
865.086	21515
865.217	21325
865.349	21302
865.48	21321
865.612	21408
865.743	21485
865.875	21374
866.006	21260
866.137	21450
866.269	21374
866.4	21408
866.531	21287
866.662	21283
866.793	21370
866.924	21272
867.055	21348
867.186	21291
867.317	21302
867.448	21161
867.579	21211
867.71	21138
867.841	21119
867.972	21150
868.103	21241
868.233	21249
868.364	21310
868.495	21393
868.625	21496
868.756	21652
868.886	21477
869.017	21572
869.147	21671
869.278	21603
869.408	21488
869.539	21500
869.669	21648
869.799	21572
869.929	21591
870.06	21679
870.19	21884
870.32	21728
870.45	21960
870.58	21865
870.71	22040
870.84	22093
870.97	21930
871.1	22048
871.23	22006
871.36	22116
871.489	22017
871.619	22143
871.749	22070
871.879	22154
872.008	22398
872.138	21998
872.267	22135
872.397	21930
872.526	21869
872.656	22090
872.785	21930
872.915	22150
873.044	22249
873.173	22169
873.303	22166
873.432	22063
873.561	22207
873.69	22185
873.819	22181
873.948	22272
874.077	22265
874.206	22055
874.335	22135
874.464	22337
874.593	22432
874.722	22436
874.851	22417
874.979	22390
875.108	22371
875.237	22367
875.365	22185
875.494	22284
875.623	22538
875.751	22314
875.88	22390
876.008	22481
876.136	22565
876.265	22820
876.393	22835
876.521	22774
876.65	22820
876.778	22774
876.906	22816
877.034	22824
877.162	22725
877.29	22611
877.418	22733
877.546	22729
877.674	22702
877.802	22672
877.93	22630
878.058	22694
878.185	22493
878.313	22634
878.441	22649
878.568	22588
878.696	22637
878.824	22577
878.951	22927
879.079	22801
879.206	22987
879.333	22839
879.461	22683
879.588	22812
879.715	22919
879.842	22946
879.97	22790
880.097	22592
880.224	22455
880.351	22565
880.478	22527
880.605	22516
880.732	22535
880.859	22839
880.986	22516
881.112	22596
881.239	22363
881.366	22238
881.493	22310
881.619	21987
881.746	22055
881.872	22128
881.999	21922
882.125	21937
882.252	22223
882.378	22048
882.505	22272
882.631	21903
882.757	21667
882.883	21823
883.01	21736
883.136	21800
883.262	21728
883.388	21599
883.514	21709
883.64	21831
883.766	21663
883.892	21545
884.018	21625
884.143	21736
884.269	21679
884.395	21523
884.52	21340
884.646	21496
884.772	21332
884.897	21310
885.023	21416
885.148	21424
885.274	21542
885.399	21405
885.524	21389
885.65	21443
885.775	21424
885.9	21473
886.025	21614
886.15	21572
886.275	21500
886.4	21378
886.525	21386
886.65	21359
886.775	21344
886.9	21534
887.025	21511
887.149	21488
887.274	21252
887.399	21272
887.523	21173
887.648	21203
887.773	21214
887.897	21279
888.021	21169
888.146	21241
888.27	21287
888.395	21294
888.519	21310
888.643	21066
888.767	21192
888.891	21165
889.015	21051
889.139	21020
889.263	21108
889.387	21127
889.511	21195
889.635	21093
889.759	20979
889.883	20948
890.006	21055
890.13	21135
890.254	21005
890.377	20796
890.501	20785
890.624	20682
890.748	20792
890.871	20575
890.995	20469
891.118	20602
891.241	20606
891.364	20495
891.488	20640
891.611	20590
891.734	20594
891.857	20625
891.98	20560
892.103	20575
892.226	20507
892.349	20670
892.471	20355
892.594	20442
892.717	20469
892.839	20461
892.962	20427
893.085	20495
893.207	20469
893.33	20355
893.452	20374
893.575	20556
893.697	20446
893.819	20549
893.941	20583
894.064	20587
894.186	20389
894.308	20362
894.43	20438
894.552	20454
894.674	20495
894.796	20301
894.918	20408
895.04	20442
895.161	20518
895.283	20480
895.405	20313
895.526	20522
895.648	20442
895.769	20495
895.891	20442
896.012	20545
896.134	20625
896.255	20522
896.376	20282
896.498	20556
896.619	20396
896.74	20374
896.861	20469
896.982	20792
897.103	20811
897.224	20674
897.345	20598
897.466	20556
897.587	20632
897.708	20735
897.828	20606
897.949	20613
898.07	20484
898.19	20541
898.311	20792
898.431	20571
898.552	20613
898.672	20750
898.792	20735
898.913	20602
899.033	20636
899.153	20465
899.273	20343
899.393	20278
899.513	20568
899.633	20412
899.753	20514
899.873	20374
899.993	20450
900.113	20374
900.232	20351
900.352	20278
900.472	20180
900.591	20103
900.711	20256
900.83	20218
900.95	20214
901.069	20221
901.189	20035
901.308	19814
901.427	19765
901.546	19765
901.665	19776
901.784	19799
901.904	19632
902.023	19582
902.141	19232
902.26	19225
902.379	19434
902.498	19240
902.617	19304
902.735	19289
902.854	19297
902.973	19126
903.091	18878
903.21	18981
903.328	18993
903.446	18806
903.565	18806
903.683	18646
903.801	18604
903.919	18726
904.038	18673
904.156	18566
904.274	18612
904.392	18612
904.51	18445
904.627	18452
904.745	18601
904.863	18620
904.981	18342
905.098	18057
905.216	18167
905.334	18117
905.451	18159
905.569	18152
905.686	18232
905.803	18148
905.921	17954
906.038	18083
906.155	17927
906.272	17836
906.389	17851
906.506	17748
906.623	17592
906.74	17684
906.857	17615
906.974	17592
907.091	17840
907.208	17783
907.324	17707
907.441	17638
907.557	17383
907.674	17364
907.79	17387
907.907	17444
908.023	17433
908.139	17459
908.256	17417
908.372	17345
908.488	17204
908.604	17147
908.72	17159
908.836	17109
908.952	17071
909.068	17197
909.184	17258
909.3	17242
909.415	17216
909.531	17143
909.647	16927
909.762	16976
909.878	16828
909.993	16786
910.108	16778
910.224	16782
910.339	16805
910.454	16733
910.57	16759
910.685	16443
910.8	16812
910.915	16763
911.03	16550
911.145	16462
911.259	16310
911.374	16424
911.489	16295
911.604	16352
911.718	16086
911.833	16177
911.947	16078
912.062	16105
912.176	16158
912.291	16272
912.405	16226
912.519	16367
912.633	16405
912.748	16291
912.862	16154
912.976	15972
913.09	15968
913.204	15922
913.318	15998
913.431	16002
913.545	16207
913.659	15975
913.772	15953
913.886	15876
914	15857
914.113	15876
914.226	15876
914.34	15922
914.453	15713
914.566	15838
914.68	15656
914.793	15709
914.906	15526
915.019	15428
915.132	15393
915.245	15351
915.358	15447
915.47	15325
915.583	15332
915.696	15473
915.809	15420
915.921	15580
916.034	15374
916.146	15283
916.259	15275
916.371	15428
916.483	15306
916.595	15233
916.708	15195
916.82	15264
916.932	15211
917.044	15157
917.156	15062
917.268	14929
917.38	15093
917.491	14979
917.603	15036
917.715	15032
917.826	15116
917.938	14967
918.049	14891
918.161	14956
918.272	15093
918.384	15036
918.495	14963
918.606	14727
918.717	14739
918.828	14785
918.939	14876
919.05	14587
919.161	14731
919.272	14461
919.383	14556
919.494	14765
919.604	14937
919.715	14693
919.826	14693
919.936	14804
920.047	14746
920.157	14739
920.267	14925
920.378	14781
920.488	14758
920.598	14929
920.708	15089
920.818	14975
920.928	14804
921.038	14944
921.148	15001
921.258	14819
921.368	14575
921.477	14400
921.587	14434
921.697	14358
921.806	14507
921.916	14313
922.025	14069
922.134	14225
922.244	14073
922.353	14065
922.462	13947
922.571	13925
922.68	13784
922.789	13742
922.898	13769
923.007	13658
923.116	13795
923.224	13784
923.333	13769
923.442	13559
923.55	13571
923.659	13556
923.767	13495
923.876	13540
923.984	13556
924.092	13411
924.201	13540
924.309	13453
924.417	13552
924.525	13407
924.633	13381
924.741	14309
924.849	13263
924.956	13392
925.064	13225
925.172	13160
925.279	13137
925.387	13152
925.494	13133
925.602	13320
925.709	13304
925.816	13076
925.924	13050
926.031	13175
926.138	13061
926.245	13122
926.352	12996
926.459	13141
926.566	13213
926.673	12954
926.779	12852
926.886	12848
926.993	12715
927.099	12810
927.206	12722
927.312	12692
927.419	12711
927.525	12684
927.631	12711
927.737	12578
927.843	12623
927.95	12414
928.056	12483
928.162	12471
928.267	12513
928.373	13145
928.479	12608
928.585	12407
928.69	12475
928.796	12525
928.901	12475
929.007	12194
929.112	12376
929.218	12300
929.323	12296
929.428	12315
929.533	12350
929.638	12171
929.743	12254
929.848	12228
929.953	12224
930.058	12140
930.163	11980
930.267	11901
930.372	12102
930.477	11958
930.581	12076
930.685	11954
930.79	11821
930.894	11836
930.998	11786
931.103	11916
931.207	11554
931.311	11433
931.415	11406
931.519	11235
931.623	11181
