Data from test_V78500241_373.txt Node
Date: Fri Mar 25 15:44:23 CST 2022
User: usil
Spectrometer: V785-0024
Trigger mode: 0
Integration Time (sec): 4.000000E-1
Scans to average: 1
Nonlinearity correction enabled: false
Boxcar width: 0
Storing dark spectrum: false
XAxis mode: Wavelengths
Number of Pixels in Spectrum: 1024
>>>>>Begin Spectral Data<<<<<
801.071	29642
801.214	29554
801.356	29444
801.499	29375
801.641	29296
801.783	29220
801.926	29372
802.068	29280
802.211	29067
802.353	29014
802.496	28953
802.638	28854
802.78	28824
802.923	28748
803.065	28911
803.208	28797
803.35	28923
803.492	28946
803.635	28965
803.777	28854
803.919	29109
804.061	29429
804.204	29151
804.346	28847
804.488	28930
804.63	29048
804.773	29056
804.915	29064
805.057	29185
805.199	29124
805.341	29140
805.483	29216
805.626	29094
805.768	28957
805.91	29174
806.052	29105
806.194	29151
806.336	29353
806.478	29242
806.62	29204
806.762	29208
806.904	29501
807.046	29802
807.188	29718
807.33	29710
807.472	29543
807.614	29638
807.756	29570
807.898	29482
808.04	29303
808.182	29501
808.324	29452
808.465	29459
808.607	29756
808.749	29775
808.891	29885
809.033	29939
809.174	29859
809.316	29977
809.458	29794
809.6	29794
809.741	29980
809.883	29908
810.025	30194
810.166	30106
810.308	30327
810.45	30106
810.591	29958
810.733	29950
810.875	29870
811.016	29843
811.158	29760
811.299	29961
811.441	29908
811.582	30030
811.724	29813
811.865	29832
812.007	29798
812.148	29821
812.29	29824
812.431	30041
812.573	30220
812.714	30270
812.855	30319
812.997	30498
813.138	30585
813.279	30456
813.421	30338
813.562	30349
813.703	30243
813.845	30076
813.986	29843
814.127	29649
814.268	29615
814.41	29497
814.551	29547
814.692	29687
814.833	29573
814.974	29387
815.115	29524
815.256	29387
815.397	29303
815.539	29337
815.68	29341
815.821	29307
815.962	29269
816.103	29223
816.244	29124
816.385	29143
816.526	29033
816.666	28854
816.807	28820
816.948	28805
817.089	28946
817.23	28927
817.371	28801
817.512	28820
817.653	28835
817.793	28698
817.934	28649
818.075	28831
818.216	28771
818.356	28763
818.497	28637
818.638	28531
818.778	28569
818.919	28512
819.06	28721
819.2	28637
819.341	28721
819.481	28755
819.622	28790
819.762	29064
819.903	28888
820.043	28968
820.184	28980
820.324	28858
820.465	28957
820.605	28820
820.746	28987
820.886	28809
821.026	28900
821.167	28786
821.307	28835
821.447	28786
821.588	28603
821.728	28344
821.868	28382
822.008	28226
822.149	28398
822.289	28226
822.429	27854
822.569	27907
822.709	27922
822.849	27648
822.99	27736
823.13	27739
823.27	27759
823.41	27443
823.55	27412
823.69	27412
823.83	27466
823.97	27424
824.11	27161
824.25	27313
824.389	27313
824.529	27435
824.669	27405
824.809	27450
824.949	27370
825.089	27283
825.228	27256
825.368	27039
825.508	27116
825.648	27093
825.787	27211
825.927	27214
826.067	27062
826.206	27169
826.346	27157
826.485	27287
826.625	27043
826.765	27256
826.904	27138
827.044	26876
827.183	26773
827.323	26849
827.462	26876
827.601	26826
827.741	26811
827.88	26845
828.02	26617
828.159	26705
828.298	26792
828.437	26880
828.577	26670
828.716	26929
828.855	26720
828.994	26606
829.134	26552
829.273	26473
829.412	26469
829.551	26377
829.69	26507
829.829	26446
829.968	26423
830.107	26442
830.246	26476
830.385	26511
830.524	26400
830.663	26263
830.802	26248
830.941	25997
831.08	25986
831.219	26126
831.357	26202
831.496	26233
831.635	26084
831.774	25906
831.913	25928
832.051	25723
832.19	25925
832.329	25974
832.467	25708
832.606	25681
832.744	25677
832.883	25628
833.022	25738
833.16	25700
833.299	25666
833.437	25776
833.576	25696
833.714	25833
833.852	25731
833.991	25833
834.129	25875
834.267	25693
834.406	25685
834.544	25746
834.682	25731
834.821	25635
834.959	25788
835.097	25479
835.235	25753
835.373	25696
835.511	25624
835.65	25575
835.788	25502
835.926	25388
836.064	25434
836.202	25377
836.34	25525
836.478	25632
836.615	25373
836.753	25510
836.891	25597
837.029	25548
837.167	25472
837.305	25445
837.443	25350
837.58	25407
837.718	25407
837.856	25255
837.993	25304
838.131	25396
838.269	25285
838.406	25304
838.544	25091
838.681	24996
838.819	24939
838.956	24825
839.094	24863
839.231	24913
839.369	24901
839.506	25194
839.643	24913
839.781	24772
839.918	24783
840.055	24817
840.193	24730
840.33	24593
840.467	24787
840.604	24749
840.742	24939
840.879	24525
841.016	24642
841.153	24445
841.29	24760
841.427	24696
841.564	24745
841.701	24715
841.838	24532
841.975	24452
842.112	24509
842.249	24505
842.385	24464
842.522	24494
842.659	24422
842.796	24357
842.933	24277
843.069	24247
843.206	24251
843.343	24338
843.479	24429
843.616	24308
843.752	24106
843.889	24205
844.025	24174
844.162	24110
844.298	24114
844.435	24136
844.571	24057
844.708	24152
844.844	24186
844.98	24182
845.117	24087
845.253	23927
845.389	23927
845.525	24110
845.661	23923
845.798	23855
845.934	23980
846.07	23737
846.206	23901
846.342	23931
846.478	23714
846.614	23642
846.75	23554
846.886	23573
847.022	23623
847.158	23478
847.294	23467
847.429	23558
847.565	23512
847.701	23733
847.837	23345
847.972	23261
848.108	23326
848.244	23356
848.379	23147
848.515	23098
848.65	23105
848.786	23094
848.921	23060
849.057	23212
849.192	23178
849.328	23140
849.463	23067
849.598	23090
849.734	22980
849.869	22850
850.004	22889
850.14	22892
850.275	22930
850.41	22923
850.545	22706
850.68	22809
850.815	22930
850.95	22759
851.085	23086
851.22	22866
851.355	22763
851.49	22881
851.625	22668
851.76	22797
851.895	22828
852.03	22691
852.165	22755
852.299	22778
852.434	22847
852.569	22809
852.703	22866
852.838	22801
852.973	22919
853.107	23006
853.242	22710
853.376	22698
853.511	22508
853.645	22607
853.78	22687
853.914	22698
854.048	22542
854.183	22622
854.317	22603
854.451	22873
854.585	22615
854.72	22694
854.854	22694
854.988	22630
855.122	22599
855.256	22538
855.39	22607
855.524	22717
855.658	22637
855.792	22489
855.926	22668
856.06	22721
856.194	22744
856.327	22664
856.461	22538
856.595	22660
856.729	22653
856.862	22778
856.996	22615
857.13	22603
857.263	22748
857.397	22752
857.53	22573
857.664	22694
857.797	22759
857.931	22717
858.064	22679
858.197	22759
858.331	22618
858.464	22504
858.597	22512
858.731	22527
858.864	22557
858.997	22622
859.13	22580
859.263	22721
859.396	22649
859.529	22554
859.662	22535
859.795	22599
859.928	22523
860.061	22660
860.194	22778
860.327	22580
860.46	22603
860.592	22702
860.725	22679
860.858	22850
860.99	22561
861.123	22489
861.256	22360
861.388	22626
861.521	23299
861.653	22459
861.786	22318
861.918	22390
862.05	22451
862.183	22538
862.315	22485
862.447	22565
862.58	22550
862.712	22306
862.844	22215
862.976	22379
863.108	22261
863.24	22698
863.372	22154
863.504	22200
863.636	22325
863.768	22303
863.9	22196
864.032	22265
864.164	22211
864.296	22284
864.428	22352
864.559	22299
864.691	22215
864.823	22299
864.954	22242
865.086	22207
865.217	22249
865.349	22078
865.48	22036
865.612	22181
865.743	22310
865.875	22116
866.006	22162
866.137	22128
866.269	22188
866.4	22204
866.531	22097
866.662	22109
866.793	22059
866.924	22017
867.055	22181
867.186	22109
867.317	22032
867.448	22010
867.579	21960
867.71	22074
867.841	22029
867.972	22025
868.103	22067
868.233	22223
868.364	22154
868.495	22188
868.625	22257
868.756	22455
868.886	22284
869.017	22249
869.147	22455
869.278	22413
869.408	22371
869.539	22459
869.669	22470
869.799	22386
869.929	22504
870.06	22466
870.19	22706
870.32	22729
870.45	22641
870.58	22717
870.71	22748
870.84	22877
870.97	22733
871.1	22713
871.23	22862
871.36	22858
871.489	22858
871.619	22942
871.749	22972
871.879	22835
872.008	23014
872.138	22797
872.267	22946
872.397	22862
872.526	22778
872.656	22672
872.785	22767
872.915	22930
873.044	23033
873.173	22976
873.303	23044
873.432	22968
873.561	23006
873.69	22896
873.819	22854
873.948	23018
874.077	22938
874.206	22904
874.335	22991
874.464	22957
874.593	23216
874.722	23121
874.851	23250
874.979	23083
875.108	23273
875.237	23044
875.365	22972
875.494	23060
875.623	23166
875.751	23235
875.88	23155
876.008	23239
876.136	23296
876.265	23592
876.393	23764
876.521	23627
876.65	23596
876.778	23566
876.906	23474
877.034	23448
877.162	23467
877.29	23436
877.418	23421
877.546	23554
877.674	23539
877.802	23490
877.93	23600
878.058	23379
878.185	23421
878.313	23337
878.441	23501
878.568	23299
878.696	23547
878.824	23539
878.951	23516
879.079	23699
879.206	23691
879.333	23687
879.461	23577
879.588	23608
879.715	23642
879.842	23748
879.97	23570
880.097	23337
880.224	23273
880.351	23368
880.478	23391
880.605	23254
880.732	23239
880.859	23474
880.986	23277
881.112	23284
881.239	23208
881.366	23102
881.493	23003
881.619	22999
881.746	22984
881.872	22934
881.999	22793
882.125	22828
882.252	22930
882.378	22843
882.505	22961
882.631	22656
882.757	22588
882.883	22580
883.01	22580
883.136	22516
883.262	22462
883.388	22459
883.514	22618
883.64	22656
883.766	22402
883.892	22246
884.018	22466
884.143	22508
884.269	22641
884.395	22234
884.52	22253
884.646	22124
884.772	22048
884.897	22086
885.023	22090
885.148	22257
885.274	22291
885.399	22295
885.524	22223
885.65	22200
885.775	22230
885.9	22150
886.025	22276
886.15	22223
886.275	22192
886.4	21998
886.525	22215
886.65	22139
886.775	22196
886.9	22314
887.025	22417
887.149	22105
887.274	21926
887.399	21945
887.523	21937
887.648	21926
887.773	21800
887.897	21918
888.021	21899
888.146	21953
888.27	22032
888.395	21956
888.519	21945
888.643	21899
888.767	21850
888.891	21812
889.015	21663
889.139	21797
889.263	21663
889.387	21857
889.511	21876
889.635	21766
889.759	21641
889.883	21682
890.006	21743
890.13	21819
890.254	21682
890.377	21629
890.501	21481
890.624	21386
890.748	21530
890.871	21317
890.995	21279
891.118	21245
891.241	21188
891.364	21340
891.488	21485
891.611	21222
891.734	21321
891.857	21306
891.98	21176
892.103	21275
892.226	21226
892.349	21154
892.471	21138
892.594	21169
892.717	21173
892.839	21146
892.962	21108
893.085	21093
893.207	21199
893.33	21047
893.452	20986
893.575	21131
893.697	21077
893.819	21260
893.941	21386
894.064	21252
894.186	21066
894.308	21009
894.43	21245
894.552	21264
894.674	21252
894.796	21039
894.918	21077
895.04	21089
895.161	21279
895.283	21226
895.405	21116
895.526	21138
895.648	21028
895.769	21195
895.891	21230
896.012	21150
896.134	21176
896.255	21180
896.376	21036
896.498	21043
896.619	21161
896.74	21169
896.861	21252
896.982	21424
897.103	21713
897.224	21439
897.345	21332
897.466	21416
897.587	21291
897.708	21450
897.828	21355
897.949	21222
898.07	21051
898.19	21195
898.311	21393
898.431	21176
898.552	21287
898.672	21370
898.792	21291
898.913	21268
899.033	21146
899.153	21127
899.273	20941
899.393	20990
899.513	21123
899.633	21020
899.753	21077
899.873	20982
899.993	21093
900.113	21020
900.232	21184
900.352	20952
900.472	20906
900.591	20838
900.711	20872
900.83	20712
900.95	20975
901.069	20853
901.189	20663
901.308	20423
901.427	20389
901.546	20362
901.665	20415
901.784	20309
901.904	20320
902.023	20149
902.141	19936
902.26	19883
902.379	19959
902.498	19913
902.617	19788
902.735	19856
902.854	19791
902.973	19822
903.091	19647
903.21	19472
903.328	19582
903.446	19316
903.565	19297
903.683	19388
903.801	19278
903.919	19228
904.038	19247
904.156	19126
904.274	19213
904.392	19114
904.51	19061
904.627	19069
904.745	19187
904.863	19110
904.981	18924
905.098	18757
905.216	18673
905.334	18798
905.451	18757
905.569	18692
905.686	18658
905.803	18681
905.921	18475
906.038	18612
906.155	18525
906.272	18395
906.389	18494
906.506	18270
906.623	18266
906.74	18296
906.857	18186
906.974	18053
907.091	18235
907.208	18361
907.324	18292
907.441	18102
907.557	18003
907.674	17969
907.79	17851
907.907	17939
908.023	17824
908.139	17996
908.256	17912
908.372	17832
908.488	17775
908.604	17707
908.72	17684
908.836	17611
908.952	17623
909.068	17611
909.184	17752
909.3	17589
909.415	17722
909.531	17539
909.647	17452
909.762	17315
909.878	17315
909.993	17398
910.108	17254
910.224	17318
910.339	17258
910.454	17254
910.57	17181
910.685	17086
910.8	17410
910.915	17216
911.03	17170
911.145	16885
911.259	16881
911.374	16896
911.489	16771
911.604	16755
911.718	16698
911.833	16565
911.947	16554
912.062	16485
912.176	16653
912.291	16634
912.405	16645
912.519	16790
912.633	16759
912.748	16641
912.862	16607
912.976	16478
913.09	16253
913.204	16284
913.318	16428
913.431	16577
913.545	16500
913.659	16554
913.772	16344
913.886	16356
914	16246
914.113	16325
914.226	16386
914.34	16284
914.453	16139
914.566	16261
914.68	16196
914.793	16059
914.906	15800
915.019	15865
915.132	15770
915.245	15808
915.358	15823
915.47	15876
915.583	15819
915.696	15869
915.809	15953
915.921	15945
916.034	15648
916.146	15641
916.259	15690
916.371	15766
916.483	15713
916.595	15633
916.708	15584
916.82	15694
916.932	15629
917.044	15572
917.156	15625
917.268	15283
917.38	15519
917.491	15462
917.603	15374
917.715	15507
917.826	15526
917.938	15321
918.049	15241
918.161	15454
918.272	15542
918.384	15378
918.495	15279
918.606	15142
918.717	15127
918.828	15169
918.939	15154
919.05	15112
919.161	15138
919.272	14937
919.383	15013
919.494	15237
919.604	15306
919.715	15249
919.826	15047
919.936	15116
920.047	15119
920.157	15119
920.267	15321
920.378	15161
920.488	14990
920.598	15291
920.708	15344
920.818	15287
920.928	15260
921.038	15416
921.148	15355
921.258	15020
921.368	14918
921.477	14921
921.587	14842
921.697	14701
921.806	14853
921.916	14705
922.025	14514
922.134	14484
922.244	14393
922.353	14537
922.462	14347
922.571	14263
922.68	14172
922.789	14058
922.898	14161
923.007	13989
923.116	14084
923.224	14054
923.333	14123
923.442	13921
923.55	13845
923.659	13898
923.767	13993
923.876	13868
923.984	13856
924.092	13746
924.201	13856
924.309	13807
924.417	13784
924.525	13750
924.633	13700
924.741	14446
924.849	13540
924.956	13620
925.064	13506
925.172	13419
925.279	13476
925.387	13419
925.494	13495
925.602	13578
925.709	13499
925.816	13369
925.924	13384
926.031	13506
926.138	13369
926.245	13419
926.352	13232
926.459	13460
926.566	13502
926.673	13320
926.779	13255
926.886	13206
926.993	12996
927.099	12993
927.206	13053
927.312	12973
927.419	12973
927.525	13031
927.631	13061
927.737	12897
927.843	12859
927.95	12779
928.056	12802
928.162	12894
928.267	12844
928.373	13449
928.479	12867
928.585	12620
928.69	12764
928.796	12783
928.901	12734
929.007	12513
929.112	12623
929.218	12646
929.323	12601
929.428	12536
929.533	12582
929.638	12448
929.743	12441
929.848	12547
929.953	12551
930.058	12509
930.163	12194
930.267	12232
930.372	12258
930.477	12144
930.581	12407
930.685	12258
930.79	12038
930.894	12076
930.998	12087
931.103	12247
931.207	11828
931.311	11824
931.415	11752
931.519	11501
931.623	11356
