Data from test_V78500241_2100.txt Node
Date: Fri Mar 25 15:56:20 CST 2022
User: usil
Spectrometer: V785-0024
Trigger mode: 0
Integration Time (sec): 4.000000E-1
Scans to average: 1
Nonlinearity correction enabled: false
Boxcar width: 0
Storing dark spectrum: false
XAxis mode: Wavelengths
Number of Pixels in Spectrum: 1024
>>>>>Begin Spectral Data<<<<<
801.071	28949
801.214	28782
801.356	28694
801.499	28557
801.641	28596
801.783	28634
801.926	28462
802.068	28740
802.211	28516
802.353	28679
802.496	28291
802.638	28291
802.78	28211
802.923	28204
803.065	28135
803.208	28177
803.35	28246
803.492	28360
803.635	28478
803.777	28390
803.919	28637
804.061	28847
804.204	28500
804.346	28455
804.488	28561
804.63	28592
804.773	28497
804.915	28634
805.057	28683
805.199	28592
805.341	28694
805.483	28656
805.626	28626
805.768	28618
805.91	28634
806.052	28759
806.194	28565
806.336	28710
806.478	28729
806.62	28793
806.762	28752
806.904	28946
807.046	29143
807.188	29197
807.33	29071
807.472	29216
807.614	29162
807.756	29124
807.898	29064
808.04	28953
808.182	28923
808.324	29086
808.465	29147
808.607	29273
808.749	29414
808.891	29478
809.033	29436
809.174	29425
809.316	29334
809.458	29356
809.6	29383
809.741	29608
809.883	29615
810.025	29668
810.166	29642
810.308	29687
810.45	29615
810.591	29573
810.733	29493
810.875	29334
811.016	29269
811.158	29318
811.299	29391
811.441	29585
811.582	29779
811.724	29337
811.865	29375
812.007	29391
812.148	29474
812.29	29440
812.431	29535
812.573	29828
812.714	29802
812.855	29889
812.997	30018
813.138	29992
813.279	30038
813.421	29942
813.562	29882
813.703	29699
813.845	29676
813.986	29330
814.127	29258
814.268	29003
814.41	29094
814.551	29033
814.692	29098
814.833	29056
814.974	29254
815.115	29223
815.256	28946
815.397	28980
815.539	28995
815.68	29010
815.821	28713
815.962	28919
816.103	28961
816.244	28873
816.385	28744
816.526	28793
816.666	28527
816.807	28398
816.948	28523
817.089	28508
817.23	28561
817.371	28451
817.512	28432
817.653	28211
817.793	28421
817.934	28367
818.075	28462
818.216	28557
818.356	28417
818.497	28421
818.638	28097
818.778	28215
818.919	28341
819.06	28344
819.2	28333
819.341	28363
819.481	28386
819.622	28565
819.762	28710
819.903	28740
820.043	28599
820.184	28706
820.324	28550
820.465	28668
820.605	28500
820.746	28615
820.886	28382
821.026	28516
821.167	28440
821.307	28672
821.447	28565
821.588	28493
821.728	28211
821.868	27983
822.008	27911
822.149	27926
822.289	27812
822.429	27622
822.569	27549
822.709	27504
822.849	27553
822.99	27519
823.13	27534
823.27	27363
823.41	27154
823.55	27184
823.69	27241
823.83	27389
823.97	27154
824.11	27096
824.25	27039
824.389	27085
824.529	27249
824.669	27070
824.809	27260
824.949	27135
825.089	27272
825.228	27112
825.368	26998
825.508	27131
825.648	27089
825.787	26895
825.927	27039
826.067	27096
826.206	26952
826.346	27001
826.485	27188
826.625	27001
826.765	27062
826.904	27058
827.044	26765
827.183	26785
827.323	26754
827.462	26788
827.601	26777
827.741	26781
827.88	26746
828.02	26678
828.159	26674
828.298	26663
828.437	26746
828.577	26659
828.716	26819
828.855	26648
828.994	26427
829.134	26518
829.273	26511
829.412	26374
829.551	26301
829.69	26457
829.829	26503
829.968	26526
830.107	26488
830.246	26457
830.385	26290
830.524	26400
830.663	26256
830.802	26100
830.941	26115
831.08	25963
831.219	26043
831.357	26153
831.496	26229
831.635	26031
831.774	25955
831.913	25936
832.051	25803
832.19	25837
832.329	25856
832.467	25780
832.606	25655
832.744	25666
832.883	25567
833.022	25597
833.16	25799
833.299	25681
833.437	25704
833.576	25712
833.714	25788
833.852	25803
833.991	25871
834.129	25765
834.267	25856
834.406	25807
834.544	25883
834.682	25689
834.821	25765
834.959	25822
835.097	25655
835.235	25833
835.373	25791
835.511	25738
835.65	25594
835.788	25613
835.926	25502
836.064	25479
836.202	25438
836.34	25559
836.478	25708
836.615	25479
836.753	25590
836.891	25590
837.029	25620
837.167	25514
837.305	25381
837.443	25487
837.58	25343
837.718	25460
837.856	25438
837.993	25285
838.131	25308
838.269	25297
838.406	25297
838.544	25263
838.681	25088
838.819	25084
838.956	24928
839.094	24875
839.231	24935
839.369	24947
839.506	25190
839.643	24947
839.781	24897
839.918	24798
840.055	24875
840.193	24783
840.33	24711
840.467	24692
840.604	24947
840.742	25080
840.879	24677
841.016	24700
841.153	24673
841.29	24928
841.427	24707
841.564	24840
841.701	24726
841.838	24787
841.975	24650
842.112	24631
842.249	24464
842.385	24486
842.522	24719
842.659	24604
842.796	24551
842.933	24521
843.069	24391
843.206	24471
843.343	24566
843.479	24486
843.616	24589
843.752	24228
843.889	24285
844.025	24304
844.162	24243
844.298	24429
844.435	24270
844.571	24125
844.708	24372
844.844	24544
844.98	24445
845.117	24296
845.253	24243
845.389	24167
845.525	24136
845.661	24152
845.798	23996
845.934	24003
846.07	24064
846.206	24159
846.342	24140
846.478	24022
846.614	23733
846.75	23699
846.886	23771
847.022	23752
847.158	23817
847.294	23817
847.429	23824
847.565	23676
847.701	23935
847.837	23471
847.972	23406
848.108	23452
848.244	23581
848.379	23493
848.515	23261
848.65	23296
848.786	23318
848.921	23398
849.057	23364
849.192	23539
849.328	23410
849.463	23414
849.598	23341
849.734	23105
849.869	23197
850.004	23140
850.14	23064
850.275	23090
850.41	22991
850.545	23006
850.68	22984
850.815	23193
850.95	23067
851.085	23227
851.22	23181
851.355	23071
851.49	23010
851.625	22972
851.76	22972
851.895	23029
852.03	23033
852.165	23029
852.299	22949
852.434	23265
852.569	23159
852.703	23067
852.838	23140
852.973	23174
853.107	23124
853.242	22984
853.376	22835
853.511	22713
853.645	22892
853.78	22900
853.914	22774
854.048	22919
854.183	22908
854.317	22987
854.451	23132
854.585	22889
854.72	22930
854.854	22904
854.988	22862
855.122	22934
855.256	22782
855.39	22850
855.524	22965
855.658	23018
855.792	22991
855.926	22938
856.06	23079
856.194	22896
856.327	22869
856.461	22877
856.595	22767
856.729	22873
856.862	23071
856.996	22904
857.13	22873
857.263	22965
857.397	22968
857.53	22873
857.664	22972
857.797	22839
857.931	22999
858.064	22968
858.197	23044
858.331	22953
858.464	22812
858.597	22850
858.731	22805
858.864	22850
858.997	22968
859.13	22881
859.263	22896
859.396	23018
859.529	22805
859.662	22702
859.795	22786
859.928	22953
860.061	23037
860.194	23254
860.327	23025
860.46	22953
860.592	23075
860.725	23079
860.858	22927
860.99	23128
861.123	22885
861.256	22877
861.388	22881
861.521	23634
861.653	22866
861.786	22698
861.918	22717
862.05	22782
862.183	22904
862.315	22862
862.447	22812
862.58	22767
862.712	22565
862.844	22710
862.976	22733
863.108	22740
863.24	23067
863.372	22538
863.504	22603
863.636	22634
863.768	22546
863.9	22512
864.032	22500
864.164	22626
864.296	22618
864.428	22557
864.559	22649
864.691	22603
864.823	22630
864.954	22717
865.086	22565
865.217	22409
865.349	22341
865.48	22413
865.612	22451
865.743	22611
865.875	22504
866.006	22474
866.137	22462
866.269	22424
866.4	22424
866.531	22356
866.662	22432
866.793	22333
866.924	22443
867.055	22455
867.186	22360
867.317	22322
867.448	22246
867.579	22421
867.71	22367
867.841	22211
867.972	22382
868.103	22265
868.233	22280
868.364	22409
868.495	22504
868.625	22588
868.756	22790
868.886	22615
869.017	22725
869.147	22710
869.278	22797
869.408	22634
869.539	22542
869.669	22713
869.799	22550
869.929	22809
870.06	22831
870.19	22934
870.32	22858
870.45	23083
870.58	22999
870.71	23098
870.84	23208
870.97	22987
871.1	23044
871.23	23178
871.36	23311
871.489	23258
871.619	23159
871.749	23208
871.879	23231
872.008	23387
872.138	23170
872.267	23258
872.397	23117
872.526	23064
872.656	22999
872.785	23143
872.915	23067
873.044	23429
873.173	23315
873.303	23376
873.432	23292
873.561	23414
873.69	23315
873.819	23208
873.948	23185
874.077	23277
874.206	23250
874.335	23337
874.464	23322
874.593	23406
874.722	23391
874.851	23509
874.979	23395
875.108	23558
875.237	23429
875.365	23452
875.494	23455
875.623	23478
875.751	23406
875.88	23471
876.008	23786
876.136	23653
876.265	23824
876.393	24045
876.521	23851
876.65	23931
876.778	23859
876.906	23695
877.034	23703
877.162	23676
877.29	23737
877.418	23760
877.546	23866
877.674	23847
877.802	23691
877.93	23840
878.058	23653
878.185	23653
878.313	23836
878.441	23710
878.568	23570
878.696	23691
878.824	23779
878.951	23954
879.079	24026
879.206	24011
879.333	23950
879.461	23866
879.588	24114
879.715	23920
879.842	24049
879.97	23828
880.097	23680
880.224	23581
880.351	23649
880.478	23642
880.605	23608
880.732	23505
880.859	23767
880.986	23611
881.112	23684
881.239	23493
881.366	23284
881.493	23132
881.619	23132
881.746	23212
881.872	23105
881.999	23220
882.125	23075
882.252	23242
882.378	23064
882.505	23292
882.631	23018
882.757	22908
882.883	22862
883.01	22942
883.136	22713
883.262	22748
883.388	22573
883.514	22843
883.64	22908
883.766	22626
883.892	22531
884.018	22603
884.143	22721
884.269	22824
884.395	22485
884.52	22474
884.646	22394
884.772	22417
884.897	22341
885.023	22626
885.148	22489
885.274	22580
885.399	22443
885.524	22550
885.65	22424
885.775	22287
885.9	22459
886.025	22615
886.15	22573
886.275	22474
886.4	22348
886.525	22577
886.65	22375
886.775	22379
886.9	22618
887.025	22626
887.149	22405
887.274	22226
887.399	22158
887.523	22188
887.648	22223
887.773	22192
887.897	22299
888.021	22215
888.146	22238
888.27	22230
888.395	22325
888.519	22177
888.643	22325
888.767	22257
888.891	22207
889.015	22082
889.139	22017
889.263	21972
889.387	22116
889.511	22139
889.635	22059
889.759	22021
889.883	21975
890.006	21991
890.13	22040
890.254	22006
890.377	21953
890.501	21736
890.624	21671
890.748	21800
890.871	21648
890.995	21523
891.118	21492
891.241	21663
891.364	21542
891.488	21675
891.611	21595
891.734	21450
891.857	21481
891.98	21553
892.103	21644
892.226	21492
892.349	21458
892.471	21378
892.594	21526
892.717	21431
892.839	21393
892.962	21496
893.085	21389
893.207	21428
893.33	21313
893.452	21363
893.575	21298
893.697	21325
893.819	21580
893.941	21595
894.064	21614
894.186	21351
894.308	21405
894.43	21492
894.552	21473
894.674	21405
894.796	21226
894.918	21287
895.04	21252
895.161	21439
895.283	21420
895.405	21351
895.526	21408
895.648	21291
895.769	21485
895.891	21435
896.012	21587
896.134	21458
896.255	21412
896.376	21348
896.498	21310
896.619	21401
896.74	21378
896.861	21416
896.982	21747
897.103	21743
897.224	21629
897.345	21580
897.466	21435
897.587	21462
897.708	21701
897.828	21580
897.949	21420
898.07	21439
898.19	21443
898.311	21549
898.431	21576
898.552	21652
898.672	21724
898.792	21736
898.913	21492
899.033	21549
899.153	21370
899.273	21256
899.393	21283
899.513	21439
899.633	21298
899.753	21378
899.873	21188
899.993	21294
900.113	21211
900.232	21329
900.352	21214
900.472	21138
900.591	21020
900.711	21165
900.83	21051
900.95	21214
901.069	21161
901.189	20906
901.308	20750
901.427	20617
901.546	20724
901.665	20705
901.784	20674
901.904	20518
902.023	20324
902.141	20214
902.26	20195
902.379	20168
902.498	20168
902.617	20084
902.735	20202
902.854	19967
902.973	19959
903.091	19898
903.21	19833
903.328	19841
903.446	19708
903.565	19674
903.683	19601
903.801	19434
903.919	19552
904.038	19510
904.156	19441
904.274	19441
904.392	19202
904.51	19434
904.627	19331
904.745	19422
904.863	19525
904.981	19187
905.098	19072
905.216	18993
905.334	19050
905.451	19034
905.569	19050
905.686	19103
905.803	19023
905.921	18863
906.038	18852
906.155	18757
906.272	18726
906.389	18696
906.506	18559
906.623	18563
906.74	18570
906.857	18433
906.974	18365
907.091	18612
907.208	18677
907.324	18574
907.441	18361
907.557	18327
907.674	18247
907.79	18197
907.907	18155
908.023	18213
908.139	18353
908.256	18114
908.372	18102
908.488	18045
908.604	17988
908.72	17824
908.836	18007
908.952	17828
909.068	17996
909.184	18034
909.3	18091
909.415	17950
909.531	17904
909.647	17722
909.762	17577
909.878	17623
909.993	17589
910.108	17592
910.224	17615
910.339	17535
910.454	17459
910.57	17398
910.685	17360
910.8	17638
910.915	17554
911.03	17463
911.145	17311
911.259	17143
911.374	17185
911.489	17147
911.604	17037
911.718	16965
911.833	16919
911.947	16797
912.062	16850
912.176	16976
912.291	16930
912.405	17064
912.519	17223
912.633	17083
912.748	16965
912.862	16816
912.976	16782
913.09	16675
913.204	16710
913.318	16790
913.431	16854
913.545	16733
913.659	16881
913.772	16645
913.886	16626
914	16417
914.113	16672
914.226	16645
914.34	16622
914.453	16497
914.566	16599
914.68	16417
914.793	16409
914.906	16150
915.019	16128
915.132	16154
915.245	16048
915.358	16101
915.47	16109
915.583	16078
915.696	16097
915.809	16230
915.921	16128
916.034	16044
916.146	16071
916.259	15903
916.371	16044
916.483	16078
916.595	15892
916.708	15922
916.82	15880
916.932	15842
917.044	15865
917.156	15838
917.268	15838
917.38	15804
917.491	15751
917.603	15781
917.715	15854
917.826	15770
917.938	15610
918.049	15564
918.161	15663
918.272	15781
918.384	15797
918.495	15660
918.606	15443
918.717	15488
918.828	15458
918.939	15526
919.05	15408
919.161	15473
919.272	15264
919.383	15321
919.494	15526
919.604	15709
919.715	15477
919.826	15355
919.936	15397
920.047	15500
920.157	15485
920.267	15629
920.378	15336
920.488	15344
920.598	15572
920.708	15663
920.818	15576
920.928	15488
921.038	15709
921.148	15637
921.258	15382
921.368	15275
921.477	15180
921.587	15146
921.697	14971
921.806	15135
921.916	14929
922.025	14842
922.134	14720
922.244	14602
922.353	14731
922.462	14674
922.571	14617
922.68	14427
922.789	14351
922.898	14427
923.007	14362
923.116	14457
923.224	14400
923.333	14351
923.442	14263
923.55	14195
923.659	14278
923.767	14229
923.876	14183
923.984	14145
924.092	13997
924.201	14214
924.309	14084
924.417	14107
924.525	14020
924.633	14065
924.741	14963
924.849	13940
924.956	13951
925.064	13715
925.172	13715
925.279	13757
925.387	13807
925.494	13719
925.602	13845
925.709	13811
925.816	13616
925.924	13727
926.031	13822
926.138	13670
926.245	13784
926.352	13597
926.459	13761
926.566	13807
926.673	13639
926.779	13590
926.886	13441
926.993	13327
927.099	13384
927.206	13225
927.312	13247
927.419	13297
927.525	13297
927.631	13320
927.737	13190
927.843	13095
927.95	12993
928.056	13179
928.162	13168
928.267	13122
928.373	13750
928.479	13183
928.585	12882
928.69	12996
928.796	13065
928.901	12947
929.007	12829
929.112	12977
929.218	12939
929.323	12783
929.428	12867
929.533	12920
929.638	12745
929.743	12772
929.848	12897
929.953	12738
930.058	12620
930.163	12414
930.267	12536
930.372	12646
930.477	12380
930.581	12749
930.685	12486
930.79	12330
930.894	12300
930.998	12308
931.103	12483
931.207	12083
931.311	12049
931.415	11927
931.519	11824
931.623	11737
