Data from test_V78500241_1123.txt Node
Date: Fri Mar 25 15:49:34 CST 2022
User: usil
Spectrometer: V785-0024
Trigger mode: 0
Integration Time (sec): 4.000000E-1
Scans to average: 1
Nonlinearity correction enabled: false
Boxcar width: 0
Storing dark spectrum: false
XAxis mode: Wavelengths
Number of Pixels in Spectrum: 1024
>>>>>Begin Spectral Data<<<<<
801.071	28866
801.214	28580
801.356	28367
801.499	28386
801.641	28375
801.783	28306
801.926	28424
802.068	28363
802.211	28234
802.353	28207
802.496	27983
802.638	27983
802.78	27880
802.923	28002
803.065	28002
803.208	27994
803.35	28013
803.492	28139
803.635	28211
803.777	28101
803.919	28223
804.061	28660
804.204	28284
804.346	28246
804.488	28124
804.63	28207
804.773	28188
804.915	28363
805.057	28291
805.199	28287
805.341	28318
805.483	28375
805.626	28371
805.768	28287
805.91	28352
806.052	28367
806.194	28295
806.336	28599
806.478	28474
806.62	28428
806.762	28557
806.904	28641
807.046	28801
807.188	28980
807.33	28873
807.472	28991
807.614	28820
807.756	28831
807.898	28755
808.04	28694
808.182	28797
808.324	28809
808.465	28744
808.607	28915
808.749	29029
808.891	29204
809.033	29288
809.174	29364
809.316	29178
809.458	29170
809.6	28976
809.741	29356
809.883	29200
810.025	29493
810.166	29417
810.308	29337
810.45	29444
810.591	29318
810.733	29071
810.875	29136
811.016	28999
811.158	28965
811.299	29159
811.441	29250
811.582	29436
811.724	29166
811.865	29197
812.007	29006
812.148	29227
812.29	29113
812.431	29277
812.573	29223
812.714	29691
812.855	29756
812.997	29733
813.138	29893
813.279	29870
813.421	29699
813.562	29554
813.703	29406
813.845	29360
813.986	29003
814.127	28816
814.268	28892
814.41	28873
814.551	28904
814.692	28953
814.833	28839
814.974	28957
815.115	28752
815.256	28793
815.397	28767
815.539	28759
815.68	28668
815.821	28557
815.962	28672
816.103	28713
816.244	28584
816.385	28459
816.526	28401
816.666	28325
816.807	28223
816.948	28367
817.089	28333
817.23	28166
817.371	28234
817.512	28204
817.653	28265
817.793	28143
817.934	28093
818.075	28082
818.216	28120
818.356	28280
818.497	27994
818.638	28021
818.778	27926
818.919	27941
819.06	27892
819.2	28139
819.341	28181
819.481	28135
819.622	28261
819.762	28462
819.903	28401
820.043	28459
820.184	28268
820.324	28344
820.465	28417
820.605	28314
820.746	28417
820.886	28109
821.026	28318
821.167	28306
821.307	28371
821.447	28249
821.588	28055
821.728	27987
821.868	27709
822.008	27778
822.149	27732
822.289	27656
822.429	27583
822.569	27294
822.709	27378
822.849	27230
822.99	27161
823.13	27226
823.27	27032
823.41	27051
823.55	26895
823.69	26975
823.83	27085
823.97	26960
824.11	26674
824.25	26853
824.389	26804
824.529	26830
824.669	26807
824.809	26921
824.949	26929
825.089	27055
825.228	26940
825.368	26629
825.508	26594
825.648	26796
825.787	26906
825.927	26819
826.067	26689
826.206	26811
826.346	26815
826.485	26845
826.625	26743
826.765	26876
826.904	26678
827.044	26427
827.183	26453
827.323	26415
827.462	26499
827.601	26415
827.741	26503
827.88	26511
828.02	26343
828.159	26377
828.298	26408
828.437	26461
828.577	26374
828.716	26465
828.855	26461
828.994	26237
829.134	26134
829.273	26237
829.412	26084
829.551	25970
829.69	26096
829.829	26069
829.968	26282
830.107	26199
830.246	26122
830.385	25925
830.524	25947
830.663	26016
830.802	25890
830.941	25814
831.08	25799
831.219	25723
831.357	25841
831.496	25955
831.635	25811
831.774	25700
831.913	25495
832.051	25674
832.19	25502
832.329	25651
832.467	25613
832.606	25320
832.744	25362
832.883	25263
833.022	25388
833.16	25419
833.299	25506
833.437	25377
833.576	25464
833.714	25422
833.852	25666
833.991	25594
834.129	25575
834.267	25620
834.406	25487
834.544	25521
834.682	25460
834.821	25434
834.959	25635
835.097	25320
835.235	25521
835.373	25502
835.511	25559
835.65	25316
835.788	25308
835.926	25285
836.064	25141
836.202	25057
836.34	25206
836.478	25403
836.615	25183
836.753	25255
836.891	25316
837.029	25263
837.167	25247
837.305	25198
837.443	25053
837.58	25034
837.718	25228
837.856	25110
837.993	24966
838.131	25213
838.269	25004
838.406	24962
838.544	24962
838.681	24787
838.819	24715
838.956	24582
839.094	24608
839.231	24604
839.369	24757
839.506	24996
839.643	24791
839.781	24544
839.918	24570
840.055	24661
840.193	24601
840.33	24475
840.467	24486
840.604	24513
840.742	24726
840.879	24426
841.016	24338
841.153	24494
841.29	24525
841.427	24486
841.564	24517
841.701	24547
841.838	24521
841.975	24311
842.112	24308
842.249	24273
842.385	24224
842.522	24357
842.659	24251
842.796	24194
842.933	24285
843.069	24232
843.206	24213
843.343	24346
843.479	24338
843.616	24171
843.752	24022
843.889	24060
844.025	24110
844.162	24121
844.298	23999
844.435	24015
844.571	23847
844.708	23992
844.844	24171
844.98	24091
845.117	24030
845.253	23969
845.389	23828
845.525	23908
845.661	23813
845.798	23805
845.934	23821
846.07	23707
846.206	23760
846.342	23927
846.478	23627
846.614	23566
846.75	23467
846.886	23455
847.022	23493
847.158	23436
847.294	23395
847.429	23482
847.565	23326
847.701	23600
847.837	23170
847.972	23299
848.108	23288
848.244	23258
848.379	23105
848.515	23102
848.65	23041
848.786	23064
848.921	23010
849.057	23128
849.192	23083
849.328	22987
849.463	23060
849.598	23029
849.734	23010
849.869	22900
850.004	22748
850.14	22854
850.275	22839
850.41	22645
850.545	22835
850.68	22763
850.815	22782
850.95	22866
851.085	23010
851.22	22904
851.355	22710
851.49	22786
851.625	22812
851.76	22824
851.895	22717
852.03	22702
852.165	22809
852.299	22816
852.434	22957
852.569	22839
852.703	22729
852.838	22805
852.973	22881
853.107	22930
853.242	22691
853.376	22618
853.511	22485
853.645	22603
853.78	22687
853.914	22691
854.048	22596
854.183	22649
854.317	22710
854.451	22687
854.585	22683
854.72	22569
854.854	22607
854.988	22641
855.122	22531
855.256	22363
855.39	22478
855.524	22729
855.658	22504
855.792	22755
855.926	22512
856.06	22626
856.194	22675
856.327	22546
856.461	22588
856.595	22580
856.729	22546
856.862	22698
856.996	22729
857.13	22626
857.263	22748
857.397	22683
857.53	22573
857.664	22740
857.797	22660
857.931	22675
858.064	22577
858.197	22729
858.331	22546
858.464	22603
858.597	22497
858.731	22607
858.864	22645
858.997	22611
859.13	22611
859.263	22607
859.396	22721
859.529	22679
859.662	22577
859.795	22622
859.928	22660
860.061	22744
860.194	22740
860.327	22645
860.46	22630
860.592	22672
860.725	22824
860.858	22729
860.99	22687
861.123	22531
861.256	22474
861.388	22656
861.521	23284
861.653	22455
861.786	22481
861.918	22462
862.05	22489
862.183	22599
862.315	22592
862.447	22500
862.58	22569
862.712	22371
862.844	22348
862.976	22382
863.108	22367
863.24	22660
863.372	22257
863.504	22242
863.636	22325
863.768	22360
863.9	22314
864.032	22139
864.164	22348
864.296	22459
864.428	22421
864.559	22310
864.691	22303
864.823	22306
864.954	22261
865.086	22230
865.217	22291
865.349	22162
865.48	22101
865.612	22090
865.743	22272
865.875	22215
866.006	22192
866.137	22188
866.269	22382
866.4	22284
866.531	22131
866.662	22135
866.793	22177
866.924	22105
867.055	22219
867.186	22204
867.317	22238
867.448	22128
867.579	22158
867.71	22135
867.841	21964
867.972	22204
868.103	22090
868.233	22261
868.364	22196
868.495	22318
868.625	22310
868.756	22497
868.886	22394
869.017	22276
869.147	22402
869.278	22656
869.408	22504
869.539	22375
869.669	22474
869.799	22398
869.929	22478
870.06	22432
870.19	22603
870.32	22744
870.45	22805
870.58	22889
870.71	22976
870.84	22850
870.97	22729
871.1	22668
871.23	22927
871.36	22995
871.489	22858
871.619	22824
871.749	22915
871.879	23075
872.008	23044
872.138	23014
872.267	23029
872.397	22915
872.526	22873
872.656	22839
872.785	22824
872.915	23033
873.044	23105
873.173	22934
873.303	22995
873.432	23113
873.561	23178
873.69	23037
873.819	23075
873.948	23109
874.077	23079
874.206	22980
874.335	22915
874.464	23056
874.593	23356
874.722	23212
874.851	23315
874.979	23193
875.108	23174
875.237	23143
875.365	23075
875.494	23159
875.623	23303
875.751	23208
875.88	23265
876.008	23345
876.136	23379
876.265	23490
876.393	23668
876.521	23722
876.65	23653
876.778	23493
876.906	23589
877.034	23520
877.162	23596
877.29	23562
877.418	23524
877.546	23512
877.674	23463
877.802	23547
877.93	23535
878.058	23490
878.185	23368
878.313	23539
878.441	23668
878.568	23311
878.696	23356
878.824	23646
878.951	23627
879.079	23741
879.206	23798
879.333	23687
879.461	23714
879.588	23573
879.715	23676
879.842	23824
879.97	23642
880.097	23330
880.224	23353
880.351	23318
880.478	23292
880.605	23269
880.732	23277
880.859	23581
880.986	23334
881.112	23288
881.239	23227
881.366	23022
881.493	23003
881.619	22984
881.746	22934
881.872	22938
881.999	22923
882.125	22900
882.252	22900
882.378	22904
882.505	22972
882.631	22805
882.757	22592
882.883	22622
883.01	22630
883.136	22542
883.262	22481
883.388	22489
883.514	22702
883.64	22500
883.766	22550
883.892	22421
884.018	22474
884.143	22413
884.269	22611
884.395	22211
884.52	22230
884.646	22181
884.772	22215
884.897	22059
885.023	22253
885.148	22272
885.274	22295
885.399	22394
885.524	22185
885.65	22207
885.775	22261
885.9	22147
886.025	22196
886.15	22207
886.275	22215
886.4	22040
886.525	22223
886.65	22177
886.775	22139
886.9	22363
887.025	22428
887.149	22181
887.274	22048
887.399	22036
887.523	21892
887.648	21907
887.773	21975
887.897	22101
888.021	21926
888.146	21854
888.27	21994
888.395	22002
888.519	22150
888.643	22116
888.767	21926
888.891	21808
889.015	21850
889.139	21831
889.263	21781
889.387	21945
889.511	21888
889.635	21850
889.759	21861
889.883	21705
890.006	21759
890.13	21880
890.254	21816
890.377	21633
890.501	21580
890.624	21443
890.748	21428
890.871	21515
890.995	21321
891.118	21332
891.241	21348
891.364	21401
891.488	21363
891.611	21275
891.734	21401
891.857	21561
891.98	21218
892.103	21393
892.226	21287
892.349	21287
892.471	21093
892.594	21173
892.717	21241
892.839	21085
892.962	21230
893.085	21313
893.207	21207
893.33	21100
893.452	21100
893.575	21264
893.697	21104
893.819	21351
893.941	21344
894.064	21233
894.186	21161
894.308	21096
894.43	21218
894.552	21355
894.674	21142
894.796	21009
894.918	21043
895.04	21138
895.161	21146
895.283	21355
895.405	21089
895.526	21173
895.648	21150
895.769	21268
895.891	21222
896.012	21214
896.134	21188
896.255	21241
896.376	21173
896.498	21161
896.619	21184
896.74	21214
896.861	21184
896.982	21576
897.103	21606
897.224	21469
897.345	21439
897.466	21504
897.587	21439
897.708	21496
897.828	21439
897.949	21279
898.07	21161
898.19	21268
898.311	21386
898.431	21321
898.552	21302
898.672	21378
898.792	21542
898.913	21401
899.033	21252
899.153	21192
899.273	21070
899.393	21116
899.513	21096
899.633	21112
899.753	21131
899.873	20967
899.993	20982
900.113	21047
900.232	21093
900.352	21001
900.472	20861
900.591	20876
900.711	20956
900.83	20716
900.95	21005
901.069	21001
901.189	20826
901.308	20488
901.427	20461
901.546	20537
901.665	20488
901.784	20404
901.904	20385
902.023	20145
902.141	20046
902.26	19887
902.379	20157
902.498	19932
902.617	19967
902.735	19917
902.854	19906
902.973	19940
903.091	19518
903.21	19533
903.328	19525
903.446	19506
903.565	19449
903.683	19419
903.801	19320
903.919	19324
904.038	19350
904.156	19148
904.274	19072
904.392	19175
904.51	19122
904.627	19031
904.745	19148
904.863	19137
904.981	18966
905.098	18757
905.216	18764
905.334	18943
905.451	18798
905.569	18749
905.686	18810
905.803	18722
905.921	18642
906.038	18650
906.155	18692
906.272	18517
906.389	18532
906.506	18308
906.623	18388
906.74	18292
906.857	18174
906.974	18270
907.091	18475
907.208	18399
907.324	18254
907.441	18129
907.557	18095
907.674	18015
907.79	18011
907.907	17923
908.023	18087
908.139	18053
908.256	17984
908.372	17912
908.488	17908
908.604	17802
908.72	17714
908.836	17687
908.952	17741
909.068	17741
909.184	17889
909.3	17760
909.415	17745
909.531	17809
909.647	17532
909.762	17512
909.878	17482
909.993	17379
910.108	17406
910.224	17364
910.339	17463
910.454	17326
910.57	17315
910.685	17159
910.8	17501
910.915	17433
911.03	17147
911.145	17006
911.259	17018
911.374	17052
911.489	16953
911.604	16923
911.718	16877
911.833	16725
911.947	16626
912.062	16752
912.176	16778
912.291	16721
912.405	16759
912.519	17067
912.633	17071
912.748	16809
912.862	16733
912.976	16565
913.09	16561
913.204	16512
913.318	16554
913.431	16668
913.545	16649
913.659	16664
913.772	16641
913.886	16284
914	16333
914.113	16489
914.226	16413
914.34	16497
914.453	16284
914.566	16398
914.68	16284
914.793	16200
914.906	15972
915.019	15975
915.132	15842
915.245	15930
915.358	15926
915.47	15918
915.583	15892
915.696	15991
915.809	15956
915.921	16055
916.034	15827
916.146	15819
916.259	15884
916.371	15827
916.483	15911
916.595	15778
916.708	15774
916.82	15759
916.932	15705
917.044	15804
917.156	15641
917.268	15599
917.38	15545
917.491	15492
917.603	15614
917.715	15622
917.826	15633
917.938	15447
918.049	15401
918.161	15545
918.272	15660
918.384	15656
918.495	15519
918.606	15397
918.717	15230
918.828	15332
918.939	15321
919.05	15157
919.161	15351
919.272	15093
919.383	15165
919.494	15397
919.604	15519
919.715	15378
919.826	15214
919.936	15264
920.047	15329
920.157	15275
920.267	15450
920.378	15279
920.488	15264
920.598	15443
920.708	15530
920.818	15348
920.928	15359
921.038	15519
921.148	15549
921.258	15233
921.368	15195
921.477	15051
921.587	14944
921.697	14891
921.806	14952
921.916	14788
922.025	14708
922.134	14606
922.244	14640
922.353	14629
922.462	14465
922.571	14408
922.68	14282
922.789	14275
922.898	14244
923.007	14164
923.116	14240
923.224	14157
923.333	14134
923.442	14134
923.55	13982
923.659	14016
923.767	14145
923.876	14039
923.984	14126
924.092	13909
924.201	14069
924.309	14016
924.417	13921
924.525	13898
924.633	13959
924.741	14659
924.849	13651
924.956	13746
925.064	13662
925.172	13529
925.279	13662
925.387	13658
925.494	13590
925.602	13708
925.709	13624
925.816	13552
925.924	13533
926.031	13685
926.138	13563
926.245	13613
926.352	13426
926.459	13575
926.566	13605
926.673	13472
926.779	13335
926.886	13377
926.993	13171
927.099	13145
927.206	13107
927.312	13110
927.419	13168
927.525	13107
927.631	13217
927.737	13019
927.843	13000
927.95	12935
928.056	12989
928.162	13019
928.267	12993
928.373	13578
928.479	12973
928.585	12821
928.69	12882
928.796	12829
928.901	12806
929.007	12696
929.112	12787
929.218	12760
929.323	12734
929.428	12604
929.533	12825
929.638	12623
929.743	12692
929.848	12741
929.953	12608
930.058	12532
930.163	12391
930.267	12361
930.372	12517
930.477	12273
930.581	12551
930.685	12426
930.79	12254
930.894	12327
930.998	12216
931.103	12372
931.207	11973
931.311	11882
931.415	11824
931.519	11676
931.623	11649
