Data from test_V78500241_817.txt Node
Date: Fri Mar 25 15:47:27 CST 2022
User: usil
Spectrometer: V785-0024
Trigger mode: 0
Integration Time (sec): 4.000000E-1
Scans to average: 1
Nonlinearity correction enabled: false
Boxcar width: 0
Storing dark spectrum: false
XAxis mode: Wavelengths
Number of Pixels in Spectrum: 1024
>>>>>Begin Spectral Data<<<<<
801.071	27762
801.214	27629
801.356	27405
801.499	27256
801.641	27195
801.783	27329
801.926	27268
802.068	27298
802.211	27108
802.353	27184
802.496	26868
802.638	26910
802.78	26834
802.923	26861
803.065	26838
803.208	26861
803.35	26883
803.492	26872
803.635	27074
803.777	26857
803.919	27077
804.061	27306
804.204	27028
804.346	26986
804.488	27005
804.63	27081
804.773	26899
804.915	27138
805.057	27222
805.199	27051
805.341	27085
805.483	27173
805.626	27195
805.768	26998
805.91	27207
806.052	27214
806.194	27085
806.336	27367
806.478	27249
806.62	27146
806.762	27222
806.904	27416
807.046	27568
807.188	27694
807.33	27637
807.472	27770
807.614	27526
807.756	27545
807.898	27340
808.04	27367
808.182	27511
808.324	27511
808.465	27561
808.607	27694
808.749	27873
808.891	28029
809.033	27972
809.174	27903
809.316	27648
809.458	27747
809.6	27804
809.741	27983
809.883	27972
810.025	28181
810.166	27991
810.308	28055
810.45	28112
810.591	27956
810.733	27903
810.875	27835
811.016	27713
811.158	27781
811.299	27930
811.441	27934
811.582	28006
811.724	27914
811.865	27808
812.007	27846
812.148	27812
812.29	27823
812.431	28067
812.573	28109
812.714	28242
812.855	28268
812.997	28535
813.138	28599
813.279	28447
813.421	28436
813.562	28379
813.703	28200
813.845	28143
813.986	27732
814.127	27682
814.268	27351
814.41	27561
814.551	27485
814.692	27462
814.833	27481
814.974	27420
815.115	27481
815.256	27504
815.397	27237
815.539	27363
815.68	27275
815.821	27207
815.962	27317
816.103	27127
816.244	27135
816.385	27131
816.526	27142
816.666	26921
816.807	26952
816.948	26921
817.089	26876
817.23	26906
817.371	26845
817.512	26792
817.653	26682
817.793	26792
817.934	26762
818.075	26689
818.216	26804
818.356	26655
818.497	26609
818.638	26602
818.778	26511
818.919	26526
819.06	26727
819.2	26727
819.341	26754
819.481	26686
819.622	26914
819.762	27131
819.903	26963
820.043	27096
820.184	26914
820.324	26853
820.465	26800
820.605	26887
820.746	26937
820.886	26800
821.026	26940
821.167	26891
821.307	26998
821.447	26857
821.588	26697
821.728	26549
821.868	26552
822.008	26404
822.149	26267
822.289	26294
822.429	26069
822.569	25917
822.709	25982
822.849	25811
822.99	25582
823.13	25731
823.27	25738
823.41	25544
823.55	25628
823.69	25582
823.83	25563
823.97	25575
824.11	25422
824.25	25327
824.389	25419
824.529	25586
824.669	25487
824.809	25670
824.949	25521
825.089	25521
825.228	25525
825.368	25228
825.508	25251
825.648	25236
825.787	25244
825.927	25365
826.067	25316
826.206	25282
826.346	25388
826.485	25335
826.625	25301
826.765	25457
826.904	25304
827.044	25038
827.183	25175
827.323	24928
827.462	25034
827.601	24981
827.741	25019
827.88	25213
828.02	24897
828.159	24871
828.298	25019
828.437	25053
828.577	24920
828.716	25053
828.855	24856
828.994	24616
829.134	24711
829.273	24669
829.412	24467
829.551	24616
829.69	24726
829.829	24696
829.968	24677
830.107	24757
830.246	24696
830.385	24623
830.524	24627
830.663	24483
830.802	24479
830.941	24292
831.08	24174
831.219	24327
831.357	24391
831.496	24498
831.635	24327
831.774	24178
831.913	24045
832.051	24034
832.19	24057
832.329	24121
832.467	24034
832.606	23916
832.744	23885
832.883	23942
833.022	23897
833.16	24106
833.299	23984
833.437	24041
833.576	24133
833.714	23984
833.852	24068
833.991	24072
834.129	24201
834.267	24087
834.406	24038
834.544	24079
834.682	24152
834.821	23992
834.959	24182
835.097	23916
835.235	23961
835.373	24258
835.511	24091
835.65	23927
835.788	23912
835.926	23870
836.064	23722
836.202	23699
836.34	23916
836.478	23969
836.615	23946
836.753	23901
836.891	23935
837.029	23863
837.167	23718
837.305	23737
837.443	23726
837.58	23611
837.718	23737
837.856	23794
837.993	23710
838.131	23646
838.269	23512
838.406	23619
838.544	23512
838.681	23364
838.819	23303
838.956	23174
839.094	23197
839.231	23162
839.369	23372
839.506	23687
839.643	23421
839.781	23178
839.918	22965
840.055	23170
840.193	23273
840.33	23159
840.467	23250
840.604	23162
840.742	23531
840.879	23086
841.016	23178
841.153	22999
841.29	23330
841.427	23067
841.564	23083
841.701	22976
841.838	23014
841.975	22987
842.112	23052
842.249	22908
842.385	22858
842.522	23204
842.659	22877
842.796	22759
842.933	22911
843.069	22759
843.206	22755
843.343	23014
843.479	22908
843.616	22797
843.752	22554
843.889	22592
844.025	22748
844.162	22630
844.298	22691
844.435	22611
844.571	22500
844.708	22592
844.844	22809
844.98	22687
845.117	22717
845.253	22436
845.389	22584
845.525	22706
845.661	22493
845.798	22440
845.934	22367
846.07	22379
846.206	22344
846.342	22382
846.478	22249
846.614	22150
846.75	22040
846.886	22124
847.022	22249
847.158	22215
847.294	22040
847.429	22162
847.565	22166
847.701	22257
847.837	21793
847.972	21846
848.108	21823
848.244	21983
848.379	21717
848.515	21774
848.65	21774
848.786	21717
848.921	21686
849.057	21717
849.192	21751
849.328	21720
849.463	21732
849.598	21614
849.734	21515
849.869	21526
850.004	21530
850.14	21610
850.275	21614
850.41	21439
850.545	21428
850.68	21359
850.815	21496
850.95	21530
851.085	21698
851.22	21443
851.355	21462
851.49	21313
851.625	21401
851.76	21477
851.895	21355
852.03	21416
852.165	21424
852.299	21526
852.434	21504
852.569	21557
852.703	21492
852.838	21424
852.973	21545
853.107	21595
853.242	21397
853.376	21275
853.511	21146
853.645	21302
853.78	21332
853.914	21256
854.048	21264
854.183	21226
854.317	21408
854.451	21511
854.585	21302
854.72	21233
854.854	21378
854.988	21131
855.122	21214
855.256	21268
855.39	21146
855.524	21294
855.658	21344
855.792	21222
855.926	21291
856.06	21363
856.194	21355
856.327	21218
856.461	21279
856.595	21127
856.729	21199
856.862	21424
856.996	21195
857.13	21389
857.263	21397
857.397	21332
857.53	21310
857.664	21317
857.797	21382
857.931	21374
858.064	21370
858.197	21408
858.331	21332
858.464	21256
858.597	21119
858.731	21222
858.864	21313
858.997	21272
859.13	21214
859.263	21283
859.396	21336
859.529	21256
859.662	21252
859.795	21142
859.928	21294
860.061	21447
860.194	21469
860.327	21260
860.46	21325
860.592	21344
860.725	21420
860.858	21348
860.99	21218
861.123	21195
861.256	21127
861.388	21386
861.521	21804
861.653	21176
861.786	21066
861.918	21268
862.05	21024
862.183	21241
862.315	21252
862.447	21291
862.58	21291
862.712	21013
862.844	20967
862.976	20986
863.108	21036
863.24	21393
863.372	20979
863.504	20887
863.636	20902
863.768	21074
863.9	20925
864.032	20933
864.164	20960
864.296	20967
864.428	21020
864.559	21013
864.691	21184
864.823	21005
864.954	20998
865.086	20979
865.217	20960
865.349	20796
865.48	20788
865.612	20914
865.743	21051
865.875	20864
866.006	20826
866.137	20971
866.269	20857
866.4	20838
866.531	20697
866.662	20731
866.793	20800
866.924	20891
867.055	20868
867.186	20758
867.317	20765
867.448	20781
867.579	20796
867.71	20705
867.841	20689
867.972	20929
868.103	20720
868.233	20750
868.364	20857
868.495	20925
868.625	21028
868.756	21135
868.886	20925
869.017	21028
869.147	21203
869.278	21161
869.408	21062
869.539	21081
869.669	21096
869.799	21077
869.929	21161
870.06	21131
870.19	21348
870.32	21447
870.45	21568
870.58	21382
870.71	21504
870.84	21572
870.97	21420
871.1	21500
871.23	21485
871.36	21667
871.489	21530
871.619	21667
871.749	21595
871.879	21610
872.008	21720
872.138	21656
872.267	21606
872.397	21572
872.526	21431
872.656	21500
872.785	21549
872.915	21705
873.044	21694
873.173	21682
873.303	21686
873.432	21705
873.561	21842
873.69	21599
873.819	21656
873.948	21724
874.077	21717
874.206	21667
874.335	21709
874.464	21781
874.593	21842
874.722	21937
874.851	21953
874.979	21861
875.108	21979
875.237	21869
875.365	21770
875.494	21823
875.623	22044
875.751	21903
875.88	21983
876.008	21949
876.136	22067
876.265	22295
876.393	22424
876.521	22379
876.65	22253
876.778	22322
876.906	22272
877.034	22284
877.162	22276
877.29	22154
877.418	22284
877.546	22318
877.674	22242
877.802	22314
877.93	22257
878.058	22226
878.185	22112
878.313	22116
878.441	22272
878.568	22070
878.696	22105
878.824	22242
878.951	22265
879.079	22409
879.206	22466
879.333	22470
879.461	22265
879.588	22371
879.715	22398
879.842	22512
879.97	22314
880.097	22276
880.224	22128
880.351	22128
880.478	22139
880.605	21956
880.732	22040
880.859	22284
880.986	22105
881.112	22101
881.239	21903
881.366	21743
881.493	21800
881.619	21713
881.746	21614
881.872	21629
881.999	21564
882.125	21507
882.252	21724
882.378	21576
882.505	21857
882.631	21439
882.757	21393
882.883	21405
883.01	21389
883.136	21329
883.262	21093
883.388	21180
883.514	21538
883.64	21351
883.766	21313
883.892	21062
884.018	21237
884.143	21256
884.269	21435
884.395	20994
884.52	21085
884.646	21032
884.772	20933
884.897	20891
885.023	21009
885.148	21093
885.274	21222
885.399	21032
885.524	20887
885.65	21005
885.775	20876
885.9	20937
886.025	21005
886.15	20910
886.275	20876
886.4	20727
886.525	20929
886.65	20883
886.775	20948
886.9	21024
887.025	21203
887.149	20849
887.274	20773
887.399	20781
887.523	20845
887.648	20594
887.773	20644
887.897	20823
888.021	20823
888.146	20663
888.27	20876
888.395	20800
888.519	20830
888.643	20826
888.767	20872
888.891	20636
889.015	20598
889.139	20636
889.263	20556
889.387	20705
889.511	20785
889.635	20731
889.759	20530
889.883	20594
890.006	20568
890.13	20625
890.254	20431
890.377	20488
890.501	20229
890.624	20278
890.748	20309
890.871	20233
890.995	20122
891.118	20069
891.241	20183
891.364	20202
891.488	20259
891.611	20088
891.734	20221
891.857	20218
891.98	20130
892.103	20145
892.226	20008
892.349	20069
892.471	20012
892.594	20145
892.717	20065
892.839	20138
892.962	20058
893.085	20100
893.207	19940
893.33	19951
893.452	19982
893.575	20122
893.697	19951
893.819	20168
893.941	20195
894.064	20191
894.186	19932
894.308	19986
894.43	20092
894.552	20191
894.674	20119
894.796	20084
894.918	19947
895.04	19974
895.161	20126
895.283	20115
895.405	19845
895.526	20077
895.648	19955
895.769	20100
895.891	20142
896.012	20122
896.134	20134
896.255	20027
896.376	20065
896.498	20069
896.619	20081
896.74	20020
896.861	20107
896.982	20408
897.103	20469
897.224	20305
897.345	20301
897.466	20096
897.587	20290
897.708	20374
897.828	20347
897.949	20126
898.07	20107
898.19	20256
898.311	20259
898.431	20119
898.552	20039
898.672	20313
898.792	20347
898.913	20233
899.033	20309
899.153	20058
899.273	20035
899.393	19928
899.513	19951
899.633	20081
899.753	20062
899.873	19955
899.993	20043
900.113	19845
900.232	20111
900.352	19925
900.472	19822
900.591	19803
900.711	19818
900.83	19807
900.95	19807
901.069	20020
901.189	19666
901.308	19487
901.427	19282
901.546	19350
901.665	19453
901.784	19358
901.904	19308
902.023	19179
902.141	19023
902.26	18954
902.379	19023
902.498	18882
902.617	18951
902.735	18894
902.854	18993
902.973	18806
903.091	18642
903.21	18597
903.328	18566
903.446	18467
903.565	18388
903.683	18353
903.801	18262
903.919	18292
904.038	18441
904.156	18144
904.274	18163
904.392	18121
904.51	18098
904.627	18095
904.745	18152
904.863	18205
904.981	17878
905.098	17821
905.216	17851
905.334	17779
905.451	17783
905.569	17779
905.686	17836
905.803	17836
905.921	17493
906.038	17741
906.155	17646
906.272	17516
906.389	17539
906.506	17368
906.623	17516
906.74	17349
906.857	17193
906.974	17181
907.091	17406
907.208	17463
907.324	17235
907.441	17284
907.557	17143
907.674	17052
907.79	16946
907.907	17003
908.023	17098
908.139	17067
908.256	17022
908.372	16999
908.488	16930
908.604	16774
908.72	16801
908.836	16710
908.952	16812
909.068	16710
909.184	16961
909.3	16755
909.415	16843
909.531	16820
909.647	16569
909.762	16455
909.878	16459
909.993	16580
910.108	16436
910.224	16432
910.339	16516
910.454	16371
910.57	16314
910.685	16173
910.8	16546
910.915	16455
911.03	16322
911.145	15998
911.259	16086
911.374	16162
911.489	15941
911.604	15979
911.718	15793
911.833	15789
911.947	15682
912.062	15747
912.176	15888
912.291	15888
912.405	15781
912.519	16090
912.633	16010
912.748	15797
912.862	15789
912.976	15648
913.09	15561
913.204	15637
913.318	15606
913.431	15747
913.545	15728
913.659	15709
913.772	15584
913.886	15485
914	15481
914.113	15492
914.226	15580
914.34	15469
914.453	15367
914.566	15496
914.68	15268
914.793	15317
914.906	15104
915.019	15074
915.132	15005
915.245	15009
915.358	15066
915.47	15001
915.583	15127
915.696	15142
915.809	15195
915.921	15077
916.034	14998
916.146	14979
916.259	15017
916.371	14998
916.483	15001
916.595	14849
916.708	14868
916.82	14845
916.932	14861
917.044	14781
917.156	14773
917.268	14693
917.38	14697
917.491	14651
917.603	14705
917.715	14705
917.826	14819
917.938	14735
918.049	14499
918.161	14701
918.272	14864
918.384	14804
918.495	14674
918.606	14499
918.717	14442
918.828	14518
918.939	14381
919.05	14351
919.161	14438
919.272	14172
919.383	14336
919.494	14492
919.604	14636
919.715	14473
919.826	14522
919.936	14358
920.047	14484
920.157	14446
920.267	14701
920.378	14450
920.488	14404
920.598	14541
920.708	14712
920.818	14514
920.928	14590
921.038	14712
921.148	14708
921.258	14438
921.368	14328
921.477	14149
921.587	14157
921.697	13982
921.806	14259
921.916	13974
922.025	13894
922.134	13879
922.244	13830
922.353	13757
922.462	13731
922.571	13651
922.68	13472
922.789	13480
922.898	13491
923.007	13403
923.116	13597
923.224	13438
923.333	13487
923.442	13301
923.55	13308
923.659	13335
923.767	13400
923.876	13213
923.984	13301
924.092	13232
924.201	13259
924.309	13244
924.417	13244
924.525	13099
924.633	13175
924.741	14035
924.849	12989
924.956	13103
925.064	12833
925.172	12814
925.279	12821
925.387	12878
925.494	12901
925.602	13050
925.709	12894
925.816	12783
925.924	12810
926.031	13000
926.138	12837
926.245	12825
926.352	12833
926.459	12905
926.566	12875
926.673	12730
926.779	12604
926.886	12616
926.993	12437
927.099	12536
927.206	12376
927.312	12308
927.419	12502
927.525	12464
927.631	12429
927.737	12281
927.843	12304
927.95	12197
928.056	12209
928.162	12304
928.267	12342
928.373	12928
928.479	12319
928.585	12186
928.69	12235
928.796	12292
928.901	12159
929.007	11973
929.112	12133
929.218	12087
929.323	12026
929.428	12003
929.533	12190
929.638	11923
929.743	11954
929.848	12022
929.953	11984
930.058	11847
930.163	11592
930.267	11695
930.372	11885
930.477	11619
930.581	11923
930.685	11783
930.79	11638
930.894	11688
930.998	11547
931.103	11657
931.207	11322
931.311	11258
931.415	11147
931.519	11045
931.623	10984
