Data from test_V78500241_2075.txt Node
Date: Fri Mar 25 15:56:10 CST 2022
User: usil
Spectrometer: V785-0024
Trigger mode: 0
Integration Time (sec): 4.000000E-1
Scans to average: 1
Nonlinearity correction enabled: false
Boxcar width: 0
Storing dark spectrum: false
XAxis mode: Wavelengths
Number of Pixels in Spectrum: 1024
>>>>>Begin Spectral Data<<<<<
801.071	29151
801.214	29083
801.356	28938
801.499	28767
801.641	28725
801.783	28630
801.926	28752
802.068	28653
802.211	28580
802.353	28599
802.496	28519
802.638	28481
802.78	28303
802.923	28390
803.065	28299
803.208	28451
803.35	28474
803.492	28626
803.635	28641
803.777	28508
803.919	28569
804.061	29010
804.204	28698
804.346	28557
804.488	28569
804.63	28573
804.773	28675
804.915	28733
805.057	28679
805.199	28588
805.341	28706
805.483	28831
805.626	28873
805.768	28729
805.91	28790
806.052	28934
806.194	28831
806.336	29006
806.478	28820
806.62	28847
806.762	28976
806.904	29109
807.046	29303
807.188	29292
807.33	29159
807.472	29334
807.614	29246
807.756	29334
807.898	29216
808.04	29098
808.182	29083
808.324	29208
808.465	29277
808.607	29395
808.749	29375
808.891	29490
809.033	29668
809.174	29589
809.316	29448
809.458	29516
809.6	29501
809.741	29611
809.883	29703
810.025	29851
810.166	29684
810.308	29752
810.45	29760
810.591	29634
810.733	29520
810.875	29592
811.016	29490
811.158	29429
811.299	29672
811.441	29596
811.582	29737
811.724	29493
811.865	29452
812.007	29554
812.148	29619
812.29	29585
812.431	29687
812.573	29824
812.714	29771
812.855	30106
812.997	30182
813.138	30311
813.279	30235
813.421	30136
813.562	29931
813.703	29840
813.845	29798
813.986	29505
814.127	29440
814.268	29288
814.41	29425
814.551	29326
814.692	29474
814.833	29162
814.974	29178
815.115	29258
815.256	29117
815.397	29064
815.539	29200
815.68	29128
815.821	29166
815.962	29140
816.103	28984
816.244	28881
816.385	28828
816.526	28953
816.666	28573
816.807	28527
816.948	28615
817.089	28702
817.23	28710
817.371	28599
817.512	28603
817.653	28474
817.793	28462
817.934	28497
818.075	28622
818.216	28641
818.356	28611
818.497	28287
818.638	28257
818.778	28436
818.919	28344
819.06	28291
819.2	28424
819.341	28470
819.481	28683
819.622	28759
819.762	28927
819.903	28793
820.043	28778
820.184	28733
820.324	28717
820.465	28820
820.605	28713
820.746	28710
820.886	28744
821.026	28694
821.167	28630
821.307	28801
821.447	28653
821.588	28573
821.728	28424
821.868	28173
822.008	28040
822.149	27914
822.289	28097
822.429	27804
822.569	27766
822.709	27751
822.849	27511
822.99	27549
823.13	27507
823.27	27443
823.41	27348
823.55	27393
823.69	27427
823.83	27378
823.97	27412
824.11	27268
824.25	27249
824.389	27199
824.529	27302
824.669	27230
824.809	27325
824.949	27321
825.089	27325
825.228	27374
825.368	27142
825.508	27013
825.648	27119
825.787	27237
825.927	27085
826.067	27043
826.206	27256
826.346	27081
826.485	27058
826.625	27077
826.765	27294
826.904	27310
827.044	26857
827.183	26914
827.323	26800
827.462	26899
827.601	26910
827.741	26735
827.88	26872
828.02	26697
828.159	26773
828.298	26853
828.437	26876
828.577	26758
828.716	26902
828.855	26724
828.994	26613
829.134	26594
829.273	26552
829.412	26507
829.551	26492
829.69	26488
829.829	26511
829.968	26552
830.107	26549
830.246	26526
830.385	26457
830.524	26427
830.663	26332
830.802	26370
830.941	26126
831.08	26161
831.219	26298
831.357	26031
831.496	26343
831.635	26119
831.774	25970
831.913	25951
832.051	26031
832.19	25974
832.329	25913
832.467	25909
832.606	25582
832.744	25689
832.883	25723
833.022	25811
833.16	25826
833.299	25856
833.437	25875
833.576	25826
833.714	25772
833.852	25947
833.991	25822
834.129	25875
834.267	25982
834.406	25799
834.544	25944
834.682	25875
834.821	25894
834.959	25970
835.097	25776
835.235	25822
835.373	25928
835.511	25734
835.65	25662
835.788	25712
835.926	25586
836.064	25613
836.202	25415
836.34	25746
836.478	25731
836.615	25643
836.753	25609
836.891	25693
837.029	25742
837.167	25613
837.305	25647
837.443	25529
837.58	25468
837.718	25700
837.856	25445
837.993	25369
838.131	25479
838.269	25312
838.406	25304
838.544	25304
838.681	25088
838.819	25095
838.956	24954
839.094	24939
839.231	24958
839.369	25141
839.506	25308
839.643	25206
839.781	24939
839.918	24817
840.055	24894
840.193	25019
840.33	24882
840.467	24779
840.604	24958
840.742	25080
840.879	24661
841.016	24878
841.153	24764
841.29	24867
841.427	24878
841.564	24943
841.701	24821
841.838	24665
841.975	24776
842.112	24776
842.249	24658
842.385	24551
842.522	24924
842.659	24688
842.796	24745
842.933	24555
843.069	24525
843.206	24631
843.343	24688
843.479	24589
843.616	24597
843.752	24391
843.889	24334
844.025	24486
844.162	24350
844.298	24422
844.435	24285
844.571	24327
844.708	24350
844.844	24441
844.98	24563
845.117	24376
845.253	24330
845.389	24182
845.525	24350
845.661	24174
845.798	24114
845.934	24091
846.07	24045
846.206	24076
846.342	24254
846.478	24026
846.614	23855
846.75	23779
846.886	23840
847.022	23802
847.158	23726
847.294	23889
847.429	23805
847.565	23870
847.701	24106
847.837	23516
847.972	23497
848.108	23657
848.244	23627
848.379	23516
848.515	23368
848.65	23395
848.786	23512
848.921	23497
849.057	23490
849.192	23573
849.328	23436
849.463	23250
849.598	23433
849.734	23315
849.869	23204
850.004	23124
850.14	23204
850.275	23128
850.41	23151
850.545	23185
850.68	23113
850.815	23075
850.95	23143
851.085	23402
851.22	23178
851.355	23151
851.49	23174
851.625	23155
851.76	23124
851.895	23124
852.03	23117
852.165	23193
852.299	23231
852.434	23208
852.569	23094
852.703	23227
852.838	23094
852.973	23311
853.107	23277
853.242	23216
853.376	22999
853.511	22873
853.645	23071
853.78	23094
853.914	23075
854.048	22934
854.183	22923
854.317	23022
854.451	23159
854.585	22968
854.72	22999
854.854	23052
854.988	22927
855.122	22881
855.256	22908
855.39	22987
855.524	23006
855.658	22980
855.792	22927
855.926	22999
856.06	22908
856.194	23033
856.327	23044
856.461	22980
856.595	22953
856.729	22995
856.862	23124
856.996	22957
857.13	23170
857.263	23029
857.397	23124
857.53	22946
857.664	23029
857.797	23113
857.931	23064
858.064	22858
858.197	23094
858.331	22961
858.464	22877
858.597	22847
858.731	22904
858.864	22831
858.997	22854
859.13	23003
859.263	22946
859.396	23083
859.529	22999
859.662	22923
859.795	23003
859.928	23010
860.061	23132
860.194	23086
860.327	23025
860.46	22923
860.592	23029
860.725	23273
860.858	23113
860.99	22999
861.123	22877
861.256	22797
861.388	23014
861.521	23611
861.653	22763
861.786	22740
861.918	22767
862.05	22896
862.183	22790
862.315	22904
862.447	22923
862.58	22915
862.712	22683
862.844	22763
862.976	22816
863.108	22774
863.24	23181
863.372	22706
863.504	22691
863.636	22801
863.768	22691
863.9	22649
864.032	22535
864.164	22649
864.296	22698
864.428	22812
864.559	22649
864.691	22755
864.823	22668
864.954	22618
865.086	22535
865.217	22607
865.349	22596
865.48	22588
865.612	22493
865.743	22752
865.875	22577
866.006	22618
866.137	22584
866.269	22626
866.4	22531
866.531	22504
866.662	22428
866.793	22554
866.924	22580
867.055	22497
867.186	22470
867.317	22352
867.448	22356
867.579	22455
867.71	22352
867.841	22443
867.972	22535
868.103	22542
868.233	22413
868.364	22493
868.495	22577
868.625	22744
868.756	22835
868.886	22656
869.017	22672
869.147	22793
869.278	22904
869.408	22725
869.539	22713
869.669	22797
869.799	22755
869.929	22725
870.06	22896
870.19	22965
870.32	22980
870.45	23014
870.58	23064
870.71	23166
870.84	23105
870.97	23105
871.1	23098
871.23	23376
871.36	23223
871.489	23155
871.619	23318
871.749	23174
871.879	23269
872.008	23360
872.138	23349
872.267	23341
872.397	23075
872.526	23166
872.656	23067
872.785	23239
872.915	23330
873.044	23364
873.173	23337
873.303	23349
873.432	23315
873.561	23379
873.69	23406
873.819	23326
873.948	23425
874.077	23303
874.206	23227
874.335	23296
874.464	23383
874.593	23505
874.722	23505
874.851	23486
874.979	23444
875.108	23600
875.237	23353
875.365	23398
875.494	23611
875.623	23520
875.751	23471
875.88	23642
876.008	23634
876.136	23741
876.265	24003
876.393	24018
876.521	24057
876.65	24018
876.778	23859
876.906	23809
877.034	23794
877.162	23920
877.29	23817
877.418	23859
877.546	23969
877.674	23935
877.802	23843
877.93	23794
878.058	23870
878.185	23577
878.313	23691
878.441	23923
878.568	23634
878.696	23684
878.824	23866
878.951	23923
879.079	23942
879.206	24117
879.333	23973
879.461	23771
879.588	23950
879.715	23897
879.842	24194
879.97	23965
880.097	23615
880.224	23718
880.351	23707
880.478	23733
880.605	23573
880.732	23676
880.859	23851
880.986	23642
881.112	23687
881.239	23509
881.366	23414
881.493	23239
881.619	23200
881.746	23398
881.872	23151
881.999	23227
882.125	23147
882.252	23292
882.378	23079
882.505	23220
882.631	23033
882.757	22889
882.883	23121
883.01	22938
883.136	22904
883.262	22877
883.388	22854
883.514	22961
883.64	22816
883.766	22672
883.892	22561
884.018	22729
884.143	22850
884.269	22850
884.395	22660
884.52	22596
884.646	22660
884.772	22398
884.897	22485
885.023	22497
885.148	22656
885.274	22656
885.399	22725
885.524	22535
885.65	22557
885.775	22565
885.9	22451
886.025	22622
886.15	22508
886.275	22497
886.4	22451
886.525	22478
886.65	22379
886.775	22523
886.9	22569
887.025	22721
887.149	22546
887.274	22356
887.399	22295
887.523	22249
887.648	22322
887.773	22158
887.897	22348
888.021	22329
888.146	22162
888.27	22367
888.395	22306
888.519	22371
888.643	22295
888.767	22265
888.891	22226
889.015	22188
889.139	22150
889.263	22112
889.387	22109
889.511	22295
889.635	22207
889.759	22082
889.883	22021
890.006	22143
890.13	22173
890.254	22059
890.377	21979
890.501	21857
890.624	21842
890.748	21941
890.871	21580
890.995	21675
891.118	21599
891.241	21663
891.364	21644
891.488	21698
891.611	21633
891.734	21587
891.857	21751
891.98	21728
892.103	21648
892.226	21526
892.349	21538
892.471	21336
892.594	21477
892.717	21595
892.839	21534
892.962	21526
893.085	21599
893.207	21515
893.33	21294
893.452	21412
893.575	21568
893.697	21458
893.819	21720
893.941	21660
894.064	21618
894.186	21374
894.308	21355
894.43	21603
894.552	21557
894.674	21534
894.796	21439
894.918	21500
895.04	21378
895.161	21553
895.283	21511
895.405	21473
895.526	21473
895.648	21374
895.769	21473
895.891	21572
896.012	21595
896.134	21519
896.255	21473
896.376	21397
896.498	21424
896.619	21485
896.74	21420
896.861	21496
896.982	21713
897.103	21880
897.224	21713
897.345	21717
897.466	21720
897.587	21709
897.708	21736
897.828	21739
897.949	21549
898.07	21420
898.19	21614
898.311	21835
898.431	21564
898.552	21641
898.672	21743
898.792	21778
898.913	21648
899.033	21355
899.153	21545
899.273	21329
899.393	21469
899.513	21393
899.633	21222
899.753	21363
899.873	21291
899.993	21317
900.113	21260
900.232	21294
900.352	21256
900.472	21169
900.591	21081
900.711	21192
900.83	21165
900.95	21131
901.069	21245
901.189	21020
901.308	20765
901.427	20602
901.546	20746
901.665	20845
901.784	20613
901.904	20533
902.023	20473
902.141	20248
902.26	20176
902.379	20370
902.498	20229
902.617	20336
902.735	20377
902.854	20126
902.973	20069
903.091	19883
903.21	19780
903.328	19750
903.446	19731
903.565	19708
903.683	19769
903.801	19613
903.919	19605
904.038	19590
904.156	19335
904.274	19529
904.392	19384
904.51	19282
904.627	19362
904.745	19525
904.863	19407
904.981	19126
905.098	19152
905.216	19042
905.334	19118
905.451	19099
905.569	19042
905.686	19126
905.803	19027
905.921	18814
906.038	18810
906.155	18825
906.272	18715
906.389	18661
906.506	18703
906.623	18681
906.74	18642
906.857	18456
906.974	18403
907.091	18654
907.208	18654
907.324	18692
907.441	18525
907.557	18319
907.674	18334
907.79	18289
907.907	18174
908.023	18270
908.139	18243
908.256	18159
908.372	18262
908.488	18254
908.604	18034
908.72	17916
908.836	17984
908.952	17950
909.068	18007
909.184	18106
909.3	18034
909.415	17969
909.531	18091
909.647	17817
909.762	17764
909.878	17733
909.993	17653
910.108	17630
910.224	17638
910.339	17611
910.454	17627
910.57	17463
910.685	17406
910.8	17764
910.915	17551
911.03	17467
911.145	17197
911.259	17353
911.374	17296
911.489	17189
911.604	17193
911.718	16999
911.833	17075
911.947	16915
912.062	16820
912.176	17033
912.291	17147
912.405	16987
912.519	17269
912.633	17189
912.748	17075
912.862	16949
912.976	16812
913.09	16721
913.204	16793
913.318	16805
913.431	16900
913.545	16927
913.659	16862
913.772	16801
913.886	16641
914	16550
914.113	16668
914.226	16698
914.34	16599
914.453	16493
914.566	16523
914.68	16432
914.793	16398
914.906	16226
915.019	16246
915.132	16078
915.245	16226
915.358	16246
915.47	16154
915.583	16074
915.696	16226
915.809	16181
915.921	16291
916.034	15983
916.146	16086
916.259	16010
916.371	16120
916.483	16021
916.595	15998
916.708	15907
916.82	16055
916.932	15869
917.044	15846
917.156	15907
917.268	15838
917.38	15739
917.491	15816
917.603	15781
917.715	15949
917.826	15915
917.938	15755
918.049	15606
918.161	15705
918.272	15823
918.384	15892
918.495	15652
918.606	15618
918.717	15405
918.828	15561
918.939	15488
919.05	15416
919.161	15485
919.272	15222
919.383	15420
919.494	15507
919.604	15804
919.715	15412
919.826	15317
919.936	15336
920.047	15466
920.157	15439
920.267	15557
920.378	15542
920.488	15378
920.598	15542
920.708	15660
920.818	15587
920.928	15614
921.038	15717
921.148	15656
921.258	15374
921.368	15283
921.477	15192
921.587	15104
921.697	15055
921.806	15252
921.916	15089
922.025	14933
922.134	14849
922.244	14727
922.353	14788
922.462	14708
922.571	14568
922.68	14461
922.789	14488
922.898	14488
923.007	14400
923.116	14499
923.224	14427
923.333	14328
923.442	14332
923.55	14168
923.659	14286
923.767	14237
923.876	14130
923.984	14275
924.092	14130
924.201	14046
924.309	14138
924.417	14145
924.525	14008
924.633	14119
924.741	15020
924.849	13906
924.956	13898
925.064	13879
925.172	13814
925.279	13738
925.387	13738
925.494	13769
925.602	13875
925.709	13791
925.816	13662
925.924	13750
926.031	13753
926.138	13674
926.245	13750
926.352	13674
926.459	13856
926.566	13738
926.673	13571
926.779	13575
926.886	13601
926.993	13388
927.099	13392
927.206	13278
927.312	13289
927.419	13354
927.525	13247
927.631	13346
927.737	13244
927.843	13137
927.95	12985
928.056	13168
928.162	13198
928.267	13133
928.373	13879
928.479	13244
928.585	13015
928.69	13080
928.796	13145
928.901	13012
929.007	12833
929.112	12939
929.218	12951
929.323	12882
929.428	12810
929.533	12970
929.638	12696
929.743	12684
929.848	12829
929.953	12760
930.058	12677
930.163	12486
930.267	12521
930.372	12688
930.477	12380
930.581	12749
930.685	12517
930.79	12429
930.894	12327
930.998	12460
931.103	12479
931.207	12197
931.311	12015
931.415	12003
931.519	11813
931.623	11741
