Data from test_V78500241_1867.txt Node
Date: Fri Mar 25 15:54:44 CST 2022
User: usil
Spectrometer: V785-0024
Trigger mode: 0
Integration Time (sec): 4.000000E-1
Scans to average: 1
Nonlinearity correction enabled: false
Boxcar width: 0
Storing dark spectrum: false
XAxis mode: Wavelengths
Number of Pixels in Spectrum: 1024
>>>>>Begin Spectral Data<<<<<
801.071	28790
801.214	28694
801.356	28367
801.499	28428
801.641	28200
801.783	28303
801.926	28341
802.068	28154
802.211	28451
802.353	28246
802.496	27918
802.638	28109
802.78	28074
802.923	27903
803.065	27892
803.208	27907
803.35	27979
803.492	28162
803.635	28295
803.777	28185
803.919	28276
804.061	28459
804.204	28101
804.346	27979
804.488	28356
804.63	28230
804.773	28082
804.915	28363
805.057	28352
805.199	28265
805.341	28341
805.483	28401
805.626	28413
805.768	28398
805.91	28363
806.052	28497
806.194	28280
806.336	28527
806.478	28436
806.62	28409
806.762	28527
806.904	28748
807.046	28885
807.188	28713
807.33	28885
807.472	28793
807.614	28919
807.756	28923
807.898	28736
808.04	28675
808.182	28679
808.324	28603
808.465	28752
808.607	28919
808.749	29075
808.891	29208
809.033	29398
809.174	29083
809.316	29037
809.458	29056
809.6	28946
809.741	29155
809.883	29181
810.025	29227
810.166	29379
810.308	29337
810.45	29318
810.591	29353
810.733	29147
810.875	29029
811.016	28999
811.158	28892
811.299	29204
811.441	29204
811.582	29223
811.724	29193
811.865	29041
812.007	28953
812.148	29060
812.29	29117
812.431	29261
812.573	29398
812.714	29551
812.855	29771
812.997	29684
813.138	29676
813.279	29695
813.421	29562
813.562	29516
813.703	29478
813.845	29440
813.986	29079
814.127	28839
814.268	28873
814.41	28862
814.551	28656
814.692	28942
814.833	28816
814.974	28812
815.115	28740
815.256	28615
815.397	28706
815.539	28630
815.68	28527
815.821	28599
815.962	28649
816.103	28626
816.244	28337
816.385	28287
816.526	28272
816.666	28394
816.807	28226
816.948	28070
817.089	28185
817.23	28150
817.371	28116
817.512	28223
817.653	28006
817.793	28055
817.934	28139
818.075	28177
818.216	28139
818.356	28074
818.497	27831
818.638	27724
818.778	27865
818.919	27816
819.06	28044
819.2	28055
819.341	28093
819.481	28185
819.622	28162
819.762	28360
819.903	28360
820.043	28261
820.184	28181
820.324	28280
820.465	28291
820.605	28394
820.746	28150
820.886	28185
821.026	28246
821.167	28249
821.307	28268
821.447	28219
821.588	28051
821.728	27838
821.868	27724
822.008	27671
822.149	27587
822.289	27622
822.429	27359
822.569	27207
822.709	27389
822.849	27017
822.99	27104
823.13	27192
823.27	27077
823.41	26807
823.55	26952
823.69	26971
823.83	26929
823.97	26792
824.11	26731
824.25	26659
824.389	26632
824.529	26811
824.669	26746
824.809	26876
824.949	26830
825.089	26800
825.228	26895
825.368	26613
825.508	26590
825.648	26579
825.787	26678
825.927	26739
826.067	26743
826.206	26609
826.346	26689
826.485	26785
826.625	26495
826.765	26910
826.904	26689
827.044	26473
827.183	26537
827.323	26271
827.462	26484
827.601	26419
827.741	26358
827.88	26396
828.02	26237
828.159	26168
828.298	26522
828.437	26450
828.577	26320
828.716	26438
828.855	26187
828.994	26096
829.134	26111
829.273	25978
829.412	25982
829.551	26050
829.69	26115
829.829	26134
829.968	26176
830.107	26084
830.246	25951
830.385	26062
830.524	25925
830.663	25837
830.802	25822
830.941	25731
831.08	25643
831.219	25658
831.357	25670
831.496	25921
831.635	25647
831.774	25639
831.913	25476
832.051	25346
832.19	25407
832.329	25426
832.467	25392
832.606	25137
832.744	25285
832.883	25301
833.022	25202
833.16	25274
833.299	25346
833.437	25346
833.576	25304
833.714	25491
833.852	25449
833.991	25430
834.129	25365
834.267	25468
834.406	25335
834.544	25415
834.682	25289
834.821	25335
834.959	25472
835.097	25217
835.235	25403
835.373	25400
835.511	25247
835.65	25419
835.788	25202
835.926	25160
836.064	24935
836.202	24985
836.34	25129
836.478	25209
836.615	25175
836.753	25110
836.891	25388
837.029	25209
837.167	25084
837.305	25194
837.443	25088
837.58	25118
837.718	25114
837.856	25042
837.993	24962
838.131	25084
838.269	24928
838.406	24962
838.544	24817
838.681	24669
838.819	24597
838.956	24464
839.094	24448
839.231	24494
839.369	24627
839.506	24711
839.643	24821
839.781	24445
839.918	24357
840.055	24403
840.193	24479
840.33	24475
840.467	24464
840.604	24494
840.742	24650
840.879	24285
841.016	24403
841.153	24289
841.29	24429
841.427	24300
841.564	24464
841.701	24247
841.838	24239
841.975	24304
842.112	24369
842.249	24098
842.385	24091
842.522	24380
842.659	24235
842.796	24098
842.933	24129
843.069	24110
843.206	24083
843.343	24258
843.479	24209
843.616	24110
843.752	23946
843.889	23828
844.025	23996
844.162	23923
844.298	23889
844.435	23828
844.571	23798
844.708	23954
844.844	23973
844.98	24057
845.117	24087
845.253	23786
845.389	23722
845.525	23748
845.661	23627
845.798	23672
845.934	23707
846.07	23741
846.206	23646
846.342	23703
846.478	23608
846.614	23512
846.75	23425
846.886	23349
847.022	23421
847.158	23349
847.294	23318
847.429	23417
847.565	23387
847.701	23467
847.837	23265
847.972	23060
848.108	23162
848.244	23216
848.379	22919
848.515	22949
848.65	23006
848.786	22908
848.921	22927
849.057	23151
849.192	22984
849.328	22942
849.463	22904
849.598	22835
849.734	22896
849.869	22771
850.004	22786
850.14	22740
850.275	22656
850.41	22634
850.545	22687
850.68	22634
850.815	22805
850.95	22797
851.085	22915
851.22	22824
851.355	22774
851.49	22717
851.625	22801
851.76	22656
851.895	22706
852.03	22664
852.165	22683
852.299	22698
852.434	22710
852.569	22797
852.703	22694
852.838	22843
852.973	22831
853.107	22885
853.242	22744
853.376	22584
853.511	22390
853.645	22535
853.78	22611
853.914	22531
854.048	22481
854.183	22538
854.317	22569
854.451	22786
854.585	22569
854.72	22409
854.854	22580
854.988	22485
855.122	22500
855.256	22481
855.39	22497
855.524	22478
855.658	22523
855.792	22470
855.926	22565
856.06	22569
856.194	22729
856.327	22554
856.461	22451
856.595	22531
856.729	22398
856.862	22653
856.996	22618
857.13	22489
857.263	22565
857.397	22626
857.53	22561
857.664	22561
857.797	22641
857.931	22668
858.064	22508
858.197	22584
858.331	22599
858.464	22500
858.597	22459
858.731	22626
858.864	22550
858.997	22519
859.13	22470
859.263	22580
859.396	22615
859.529	22516
859.662	22580
859.795	22352
859.928	22542
860.061	22736
860.194	22736
860.327	22634
860.46	22436
860.592	22577
860.725	22733
860.858	22664
860.99	22561
861.123	22512
861.256	22512
861.388	22409
861.521	23299
861.653	22325
861.786	22337
861.918	22276
862.05	22447
862.183	22268
862.315	22402
862.447	22489
862.58	22459
862.712	22173
862.844	22299
862.976	22280
863.108	22379
863.24	22694
863.372	22219
863.504	22268
863.636	22173
863.768	22257
863.9	22185
864.032	22158
864.164	22242
864.296	22230
864.428	22322
864.559	22337
864.691	22371
864.823	22226
864.954	22257
865.086	22101
865.217	22128
865.349	22109
865.48	22147
865.612	22166
865.743	22253
865.875	22124
866.006	22154
866.137	22147
866.269	22139
866.4	22074
866.531	22002
866.662	22006
866.793	21994
866.924	22025
867.055	22029
867.186	22059
867.317	22063
867.448	21880
867.579	21941
867.71	22040
867.841	21972
867.972	22090
868.103	22051
868.233	22013
868.364	22086
868.495	22074
868.625	22265
868.756	22504
868.886	22261
869.017	22226
869.147	22276
869.278	22325
869.408	22280
869.539	22249
869.669	22295
869.799	22402
869.929	22428
870.06	22310
870.19	22542
870.32	22599
870.45	22691
870.58	22755
870.71	22809
870.84	22839
870.97	22733
871.1	22584
871.23	22850
871.36	22858
871.489	22755
871.619	22812
871.749	22885
871.879	22972
872.008	22949
872.138	22881
872.267	22957
872.397	22748
872.526	22626
872.656	22733
872.785	22755
872.915	22961
873.044	23022
873.173	22968
873.303	22980
873.432	22828
873.561	23010
873.69	22812
873.819	22923
873.948	22995
874.077	22915
874.206	22904
874.335	22942
874.464	23052
874.593	23140
874.722	23113
874.851	23200
874.979	23102
875.108	23174
875.237	23060
875.365	23025
875.494	23067
875.623	23189
875.751	23010
875.88	23159
876.008	23269
876.136	23360
876.265	23520
876.393	23562
876.521	23562
876.65	23600
876.778	23463
876.906	23482
877.034	23322
877.162	23326
877.29	23383
877.418	23547
877.546	23505
877.674	23425
877.802	23493
877.93	23448
878.058	23368
878.185	23296
878.313	23440
878.441	23356
878.568	23258
878.696	23364
878.824	23509
878.951	23535
879.079	23573
879.206	23695
879.333	23748
879.461	23482
879.588	23570
879.715	23615
879.842	23733
879.97	23501
880.097	23284
880.224	23345
880.351	23280
880.478	23299
880.605	23227
880.732	23189
880.859	23490
880.986	23185
881.112	23235
881.239	23056
881.366	22843
881.493	23025
881.619	22889
881.746	22706
881.872	22892
881.999	22748
882.125	22683
882.252	22839
882.378	22759
882.505	22820
882.631	22672
882.757	22493
882.883	22683
883.01	22634
883.136	22497
883.262	22375
883.388	22291
883.514	22554
883.64	22603
883.766	22459
883.892	22390
884.018	22249
884.143	22474
884.269	22535
884.395	22223
884.52	22154
884.646	22261
884.772	22135
884.897	21979
885.023	22211
885.148	22242
885.274	22284
885.399	22223
885.524	22120
885.65	22211
885.775	22162
885.9	22135
886.025	22200
886.15	22162
886.275	22078
886.4	22143
886.525	22158
886.65	22116
886.775	22082
886.9	22200
887.025	22280
887.149	22135
887.274	21895
887.399	21857
887.523	21884
887.648	21873
887.773	21762
887.897	21934
888.021	21953
888.146	21869
888.27	21953
888.395	21865
888.519	22029
888.643	21918
888.767	21857
888.891	21785
889.015	21682
889.139	21770
889.263	21713
889.387	21694
889.511	21846
889.635	21819
889.759	21667
889.883	21770
890.006	21675
890.13	21793
890.254	21606
890.377	21603
890.501	21481
890.624	21450
890.748	21359
890.871	21351
890.995	21207
891.118	21195
891.241	21340
891.364	21256
891.488	21374
891.611	21161
891.734	21336
891.857	21230
891.98	21260
892.103	21245
892.226	21116
892.349	21135
892.471	21024
892.594	21142
892.717	21230
892.839	21100
892.962	21249
893.085	21241
893.207	21157
893.33	20967
893.452	21055
893.575	21070
893.697	21058
893.819	21321
893.941	21260
894.064	21310
894.186	20994
894.308	20994
894.43	21218
894.552	21222
894.674	21138
894.796	20956
894.918	21135
895.04	21020
895.161	21317
895.283	21154
895.405	21032
895.526	21176
895.648	20986
895.769	21184
895.891	21233
896.012	21214
896.134	21104
896.255	21150
896.376	20921
896.498	21028
896.619	21161
896.74	21135
896.861	21043
896.982	21424
897.103	21534
897.224	21374
897.345	21317
897.466	21249
897.587	21252
897.708	21534
897.828	21355
897.949	21298
898.07	21017
898.19	21184
898.311	21416
898.431	21199
898.552	21150
898.672	21389
898.792	21283
898.913	21260
899.033	21131
899.153	21157
899.273	20971
899.393	21036
899.513	21093
899.633	21028
899.753	21081
899.873	20998
899.993	20963
900.113	20971
900.232	20944
900.352	20883
900.472	20902
900.591	20804
900.711	20788
900.83	20777
900.95	20906
901.069	20902
901.189	20743
901.308	20301
901.427	20332
901.546	20381
901.665	20332
901.784	20408
901.904	20187
902.023	20107
902.141	19932
902.26	19947
902.379	19970
902.498	19833
902.617	19822
902.735	19868
902.854	19887
902.973	19799
903.091	19483
903.21	19563
903.328	19521
903.446	19381
903.565	19263
903.683	19202
903.801	19194
903.919	19213
904.038	19293
904.156	19122
904.274	19050
904.392	19088
904.51	19004
904.627	19072
904.745	19148
904.863	19122
904.981	18848
905.098	18741
905.216	18681
905.334	18837
905.451	18840
905.569	18578
905.686	18798
905.803	18711
905.921	18540
906.038	18646
906.155	18525
906.272	18475
906.389	18433
906.506	18296
906.623	18338
906.74	18289
906.857	18235
906.974	18159
907.091	18300
907.208	18475
907.324	18239
907.441	18121
907.557	18045
907.674	17977
907.79	17996
907.907	17988
908.023	18026
908.139	18038
908.256	17927
908.372	17874
908.488	17851
908.604	17707
908.72	17699
908.836	17680
908.952	17585
909.068	17809
909.184	17809
909.3	17691
909.415	17790
909.531	17661
909.647	17486
909.762	17337
909.878	17372
909.993	17398
910.108	17292
910.224	17368
910.339	17341
910.454	17356
910.57	17170
910.685	17109
910.8	17250
910.915	17280
911.03	17155
911.145	17086
911.259	16946
911.374	16949
911.489	16965
911.604	16793
911.718	16656
911.833	16710
911.947	16596
912.062	16573
912.176	16675
912.291	16755
912.405	16691
912.519	16866
912.633	16736
912.748	16752
912.862	16615
912.976	16470
913.09	16310
913.204	16402
913.318	16466
913.431	16523
913.545	16656
913.659	16653
913.772	16367
913.886	16333
914	16272
914.113	16417
914.226	16417
914.34	16322
914.453	16196
914.566	16398
914.68	16234
914.793	16109
914.906	15975
915.019	15888
915.132	15808
915.245	15922
915.358	15865
915.47	15922
915.583	15915
915.696	15899
915.809	15972
915.921	16086
916.034	15808
916.146	15781
916.259	15701
916.371	15854
916.483	15812
916.595	15713
916.708	15713
916.82	15713
916.932	15595
917.044	15641
917.156	15663
917.268	15553
917.38	15625
917.491	15500
917.603	15603
917.715	15564
917.826	15701
917.938	15450
918.049	15393
918.161	15325
918.272	15526
918.384	15538
918.495	15477
918.606	15306
918.717	15119
918.828	15188
918.939	15207
919.05	15142
919.161	15260
919.272	15081
919.383	15150
919.494	15321
919.604	15435
919.715	15207
919.826	15119
919.936	15184
920.047	15321
920.157	15165
920.267	15332
920.378	15218
920.488	15161
920.598	15313
920.708	15435
920.818	15317
920.928	15344
921.038	15515
921.148	15450
921.258	15077
921.368	15017
921.477	14994
921.587	14883
921.697	14880
921.806	14933
921.916	14845
922.025	14655
922.134	14507
922.244	14495
922.353	14659
922.462	14427
922.571	14271
922.68	14161
922.789	14202
922.898	14278
923.007	14145
923.116	14153
923.224	14240
923.333	14240
923.442	14065
923.55	14024
923.659	13982
923.767	14005
923.876	13982
923.984	13944
924.092	13917
924.201	13967
924.309	13906
924.417	13837
924.525	13887
924.633	13875
924.741	14541
924.849	13708
924.956	13795
925.064	13651
925.172	13628
925.279	13597
925.387	13556
925.494	13586
925.602	13609
925.709	13651
925.816	13434
925.924	13460
926.031	13620
926.138	13468
926.245	13487
926.352	13369
926.459	13616
926.566	13586
926.673	13438
926.779	13350
926.886	13217
926.993	13156
927.099	13088
927.206	13069
927.312	13065
927.419	13149
927.525	13080
927.631	13061
927.737	13065
927.843	12939
927.95	12890
928.056	12954
928.162	12871
928.267	13095
928.373	13563
928.479	13023
928.585	12665
928.69	12890
928.796	12916
928.901	12833
929.007	12635
929.112	12726
929.218	12673
929.323	12673
929.428	12635
929.533	12677
929.638	12612
929.743	12566
929.848	12646
929.953	12498
930.058	12502
930.163	12315
930.267	12334
930.372	12498
930.477	12232
930.581	12509
930.685	12357
930.79	12216
930.894	12239
930.998	12133
931.103	12281
931.207	11950
931.311	11889
931.415	11779
931.519	11547
931.623	11627
