Data from test_V78500241_1144.txt Node
Date: Fri Mar 25 15:49:43 CST 2022
User: usil
Spectrometer: V785-0024
Trigger mode: 0
Integration Time (sec): 4.000000E-1
Scans to average: 1
Nonlinearity correction enabled: false
Boxcar width: 0
Storing dark spectrum: false
XAxis mode: Wavelengths
Number of Pixels in Spectrum: 1024
>>>>>Begin Spectral Data<<<<<
801.071	28455
801.214	28436
801.356	28223
801.499	28112
801.641	27869
801.783	27892
801.926	28120
802.068	28010
802.211	27937
802.353	27884
802.496	27808
802.638	27732
802.78	27785
802.923	27641
803.065	27675
803.208	27690
803.35	27762
803.492	27835
803.635	27926
803.777	27701
803.919	27914
804.061	28200
804.204	28067
804.346	27850
804.488	27804
804.63	27842
804.773	27808
804.915	27895
805.057	28192
805.199	27907
805.341	28074
805.483	28044
805.626	28086
805.768	28021
805.91	28006
806.052	28097
806.194	27899
806.336	28230
806.478	28242
806.62	28154
806.762	28169
806.904	28504
807.046	28694
807.188	28611
807.33	28577
807.472	28653
807.614	28447
807.756	28443
807.898	28413
808.04	28519
808.182	28386
808.324	28325
808.465	28462
808.607	28611
808.749	28771
808.891	28816
809.033	28900
809.174	28923
809.316	28744
809.458	28850
809.6	28824
809.741	28980
809.883	28888
810.025	28995
810.166	29071
810.308	29132
810.45	29067
810.591	28999
810.733	28953
810.875	28778
811.016	28679
811.158	28858
811.299	28942
811.441	28927
811.582	28835
811.724	28946
811.865	28885
812.007	28793
812.148	28733
812.29	28812
812.431	28934
812.573	29044
812.714	29193
812.855	29284
812.997	29410
813.138	29372
813.279	29395
813.421	29322
813.562	29216
813.703	29155
813.845	29166
813.986	28911
814.127	28622
814.268	28474
814.41	28725
814.551	28466
814.692	28752
814.833	28527
814.974	28538
815.115	28451
815.256	28356
815.397	28398
815.539	28352
815.68	28306
815.821	28246
815.962	28310
816.103	28211
816.244	28162
816.385	27949
816.526	28029
816.666	27949
816.807	27808
816.948	27987
817.089	27937
817.23	27953
817.371	27831
817.512	27895
817.653	27876
817.793	27774
817.934	27808
818.075	27903
818.216	27842
818.356	27766
818.497	27736
818.638	27568
818.778	27629
818.919	27553
819.06	27690
819.2	27648
819.341	27717
819.481	27873
819.622	27926
819.762	28169
819.903	28173
820.043	27953
820.184	27914
820.324	27934
820.465	27956
820.605	27979
820.746	27816
820.886	27823
821.026	27899
821.167	28002
821.307	27892
821.447	27846
821.588	27800
821.728	27633
821.868	27397
822.008	27408
822.149	27370
822.289	27279
822.429	27001
822.569	26998
822.709	26918
822.849	26861
822.99	26853
823.13	26811
823.27	26731
823.41	26701
823.55	26503
823.69	26537
823.83	26598
823.97	26602
824.11	26552
824.25	26370
824.389	26499
824.529	26484
824.669	26480
824.809	26689
824.949	26492
825.089	26507
825.228	26484
825.368	26332
825.508	26332
825.648	26267
825.787	26396
825.927	26522
826.067	26221
826.206	26347
826.346	26347
826.485	26370
826.625	26214
826.765	26446
826.904	26381
827.044	26062
827.183	26054
827.323	25955
827.462	26092
827.601	26130
827.741	26005
827.88	26035
828.02	25883
828.159	25852
828.298	26187
828.437	26024
828.577	26176
828.716	26142
828.855	26062
828.994	25715
829.134	25723
829.273	25750
829.412	25719
829.551	25670
829.69	25826
829.829	25776
829.968	25837
830.107	25864
830.246	25727
830.385	25788
830.524	25548
830.663	25685
830.802	25472
830.941	25354
831.08	25438
831.219	25396
831.357	25476
831.496	25559
831.635	25521
831.774	25297
831.913	25164
832.051	25259
832.19	25198
832.329	25259
832.467	25038
832.606	24909
832.744	25019
832.883	24947
833.022	24924
833.16	25076
833.299	25114
833.437	25015
833.576	25145
833.714	25206
833.852	25126
833.991	25084
834.129	25194
834.267	25107
834.406	25107
834.544	25126
834.682	25031
834.821	24989
834.959	25232
835.097	25019
835.235	25164
835.373	25065
835.511	25088
835.65	24958
835.788	25057
835.926	24833
836.064	24719
836.202	24627
836.34	24821
836.478	25050
836.615	24821
836.753	24856
836.891	24939
837.029	24867
837.167	24768
837.305	24783
837.443	24840
837.58	24707
837.718	24837
837.856	24821
837.993	24658
838.131	24764
838.269	24494
838.406	24684
838.544	24574
838.681	24414
838.819	24490
838.956	24106
839.094	24300
839.231	24243
839.369	24342
839.506	24661
839.643	24460
839.781	24224
839.918	24121
840.055	24235
840.193	24064
840.33	24087
840.467	24174
840.604	24167
840.742	24433
840.879	24060
841.016	24068
841.153	23999
841.29	24330
841.427	24148
841.564	24079
841.701	24053
841.838	24205
841.975	24049
842.112	23942
842.249	23927
842.385	23916
842.522	24034
842.659	23866
842.796	23859
842.933	23885
843.069	23885
843.206	23722
843.343	23912
843.479	23885
843.616	23798
843.752	23687
843.889	23657
844.025	23767
844.162	23676
844.298	23707
844.435	23729
844.571	23703
844.708	23619
844.844	23813
844.98	23756
845.117	23726
845.253	23665
845.389	23562
845.525	23429
845.661	23474
845.798	23448
845.934	23467
846.07	23463
846.206	23417
846.342	23425
846.478	23307
846.614	23151
846.75	23014
846.886	23067
847.022	23178
847.158	23033
847.294	23124
847.429	23143
847.565	22961
847.701	23242
847.837	22976
847.972	22759
848.108	22953
848.244	22991
848.379	22660
848.515	22752
848.65	22713
848.786	22584
848.921	22679
849.057	22763
849.192	22790
849.328	22599
849.463	22713
849.598	22698
849.734	22653
849.869	22519
850.004	22413
850.14	22603
850.275	22470
850.41	22325
850.545	22375
850.68	22348
850.815	22607
850.95	22535
851.085	22618
851.22	22626
851.355	22405
851.49	22508
851.625	22405
851.76	22421
851.895	22421
852.03	22386
852.165	22413
852.299	22474
852.434	22470
852.569	22527
852.703	22344
852.838	22569
852.973	22565
853.107	22470
853.242	22436
853.376	22310
853.511	22219
853.645	22284
853.78	22344
853.914	22329
854.048	22188
854.183	22265
854.317	22394
854.451	22432
854.585	22329
854.72	22162
854.854	22303
854.988	22177
855.122	22207
855.256	22169
855.39	22230
855.524	22322
855.658	22287
855.792	22272
855.926	22379
856.06	22299
856.194	22333
856.327	22299
856.461	22333
856.595	22192
856.729	22261
856.862	22337
856.996	22310
857.13	22390
857.263	22413
857.397	22257
857.53	22204
857.664	22280
857.797	22325
857.931	22413
858.064	22261
858.197	22295
858.331	22200
858.464	22188
858.597	22181
858.731	22265
858.864	22344
858.997	22253
859.13	22337
859.263	22219
859.396	22238
859.529	22246
859.662	22242
859.795	22185
859.928	22211
860.061	22333
860.194	22428
860.327	22280
860.46	22299
860.592	22466
860.725	22428
860.858	22443
860.99	22196
861.123	22265
861.256	22196
861.388	22280
861.521	22923
861.653	22059
861.786	22120
861.918	22120
862.05	22082
862.183	22162
862.315	22215
862.447	22344
862.58	22074
862.712	21979
862.844	21911
862.976	22055
863.108	21994
863.24	22588
863.372	21930
863.504	22010
863.636	21869
863.768	21998
863.9	21937
864.032	21941
864.164	21865
864.296	21945
864.428	22044
864.559	22013
864.691	21941
864.823	21975
864.954	21994
865.086	22017
865.217	21937
865.349	21808
865.48	21907
865.612	21922
865.743	22070
865.875	21857
866.006	21857
866.137	21903
866.269	21770
866.4	21884
866.531	21812
866.662	21682
866.793	21793
866.924	21739
867.055	21823
867.186	21781
867.317	21747
867.448	21781
867.579	21720
867.71	21728
867.841	21663
867.972	21724
868.103	21762
868.233	21728
868.364	21770
868.495	21819
868.625	21979
868.756	22082
868.886	21899
869.017	22051
869.147	22044
869.278	22067
869.408	22101
869.539	22036
869.669	21956
869.799	22021
869.929	22207
870.06	22215
870.19	22356
870.32	22268
870.45	22413
870.58	22360
870.71	22580
870.84	22421
870.97	22421
871.1	22451
871.23	22618
871.36	22615
871.489	22436
871.619	22497
871.749	22497
871.879	22561
872.008	22790
872.138	22592
872.267	22694
872.397	22478
872.526	22379
872.656	22508
872.785	22481
872.915	22531
873.044	22687
873.173	22626
873.303	22641
873.432	22554
873.561	22778
873.69	22615
873.819	22630
873.948	22774
874.077	22550
874.206	22538
874.335	22736
874.464	22733
874.593	22847
874.722	22744
874.851	22900
874.979	22736
875.108	22972
875.237	22740
875.365	22752
875.494	22820
875.623	22919
875.751	22923
875.88	22820
876.008	22927
876.136	23064
876.265	23216
876.393	23345
876.521	23303
876.65	23398
876.778	23254
876.906	23231
877.034	23155
877.162	23212
877.29	23109
877.418	23269
877.546	23166
877.674	23231
877.802	23220
877.93	23208
878.058	23181
878.185	22934
878.313	23166
878.441	23239
878.568	22980
878.696	23143
878.824	23185
878.951	23223
879.079	23364
879.206	23577
879.333	23410
879.461	23292
879.588	23269
879.715	23395
879.842	23429
879.97	23277
880.097	22991
880.224	22927
880.351	23037
880.478	22900
880.605	22881
880.732	23006
880.859	23102
880.986	23056
881.112	23014
881.239	22911
881.366	22729
881.493	22519
881.619	22557
881.746	22637
881.872	22557
881.999	22440
882.125	22443
882.252	22527
882.378	22577
882.505	22554
882.631	22310
882.757	22390
882.883	22394
883.01	22246
883.136	22215
883.262	22287
883.388	22032
883.514	22230
883.64	22082
883.766	22139
883.892	21934
884.018	22051
884.143	22204
884.269	22154
884.395	22063
884.52	21892
884.646	21854
884.772	21865
884.897	21831
885.023	21949
885.148	22051
885.274	22059
885.399	21994
885.524	21987
885.65	21903
885.775	21865
885.9	21854
886.025	22040
886.15	21895
886.275	21956
886.4	21800
886.525	21865
886.65	21835
886.775	21789
886.9	21968
887.025	22109
887.149	21797
887.274	21732
887.399	21675
887.523	21698
887.648	21603
887.773	21545
887.897	21717
888.021	21644
888.146	21656
888.27	21781
888.395	21793
888.519	21603
888.643	21751
888.767	21728
888.891	21519
889.015	21477
889.139	21637
889.263	21496
889.387	21595
889.511	21717
889.635	21485
889.759	21496
889.883	21363
890.006	21386
890.13	21507
890.254	21306
890.377	21294
890.501	21184
890.624	21154
890.748	21298
890.871	21089
890.995	21036
891.118	21009
891.241	21017
891.364	21096
891.488	21123
891.611	21001
891.734	21009
891.857	21089
891.98	21085
892.103	21055
892.226	21017
892.349	20921
892.471	20796
892.594	21017
892.717	21089
892.839	20796
892.962	20937
893.085	20921
893.207	20895
893.33	20682
893.452	20925
893.575	21009
893.697	20785
893.819	21169
893.941	21108
894.064	21020
894.186	20834
894.308	20891
894.43	20864
894.552	21077
894.674	21017
894.796	20762
894.918	20849
895.04	20872
895.161	20845
895.283	21009
895.405	20811
895.526	20960
895.648	20902
895.769	20914
895.891	20918
896.012	20994
896.134	20944
896.255	20914
896.376	20758
896.498	20880
896.619	20868
896.74	20883
896.861	20895
896.982	21119
897.103	21370
897.224	21222
897.345	21070
897.466	21051
897.587	21055
897.708	21218
897.828	21047
897.949	21005
898.07	21036
898.19	21009
898.311	21146
898.431	20948
898.552	21123
898.672	21062
898.792	21055
898.913	21135
899.033	20963
899.153	20891
899.273	20769
899.393	20876
899.513	20826
899.633	20849
899.753	20914
899.873	20815
899.993	20762
900.113	20758
900.232	20800
900.352	20629
900.472	20674
900.591	20556
900.711	20583
900.83	20613
900.95	20632
901.069	20705
901.189	20465
901.308	20294
901.427	20130
901.546	20157
901.665	20153
901.784	20233
901.904	20073
902.023	19989
902.141	19791
902.26	19803
902.379	19795
902.498	19761
902.617	19647
902.735	19628
902.854	19674
902.973	19590
903.091	19506
903.21	19396
903.328	19354
903.446	19236
903.565	19168
903.683	19076
903.801	19023
903.919	19129
904.038	19114
904.156	18920
904.274	19084
904.392	18890
904.51	18871
904.627	18859
904.745	18905
904.863	19008
904.981	18642
905.098	18650
905.216	18551
905.334	18608
905.451	18559
905.569	18540
905.686	18525
905.803	18585
905.921	18346
906.038	18441
906.155	18342
906.272	18285
906.389	18319
906.506	18178
906.623	18038
906.74	18060
906.857	18072
906.974	17984
907.091	18072
907.208	18178
907.324	18106
907.441	18079
907.557	17946
907.674	17802
907.79	17703
907.907	17756
908.023	17893
908.139	17794
908.256	17764
908.372	17615
908.488	17748
908.604	17611
908.72	17406
908.836	17627
908.952	17570
909.068	17535
909.184	17566
909.3	17623
909.415	17455
909.531	17474
909.647	17288
909.762	17258
909.878	17178
909.993	17181
910.108	17151
910.224	17147
910.339	17083
910.454	17098
910.57	17162
910.685	16930
910.8	17296
910.915	17181
911.03	17041
911.145	16911
911.259	16873
911.374	16850
911.489	16805
911.604	16721
911.718	16527
911.833	16493
911.947	16398
912.062	16356
912.176	16538
912.291	16603
912.405	16504
912.519	16725
912.633	16694
912.748	16500
912.862	16485
912.976	16367
913.09	16234
913.204	16333
913.318	16394
913.431	16443
913.545	16478
913.659	16344
913.772	16268
913.886	16204
914	16196
914.113	16226
914.226	16215
914.34	16181
914.453	15987
914.566	16162
914.68	16082
914.793	16013
914.906	15800
915.019	15884
915.132	15686
915.245	15720
915.358	15808
915.47	15812
915.583	15785
915.696	15759
915.809	15819
915.921	15827
916.034	15633
916.146	15675
916.259	15591
916.371	15778
916.483	15671
916.595	15557
916.708	15504
916.82	15485
916.932	15603
917.044	15496
917.156	15538
917.268	15428
917.38	15355
917.491	15317
917.603	15344
917.715	15450
917.826	15519
917.938	15268
918.049	15310
918.161	15302
918.272	15454
918.384	15511
918.495	15252
918.606	15116
918.717	14998
918.828	15097
918.939	15100
919.05	15108
919.161	15017
919.272	14864
919.383	14963
919.494	15062
919.604	15275
919.715	15173
919.826	15001
919.936	15074
920.047	15173
920.157	15123
920.267	15252
920.378	14990
920.488	14960
920.598	15199
920.708	15329
920.818	15218
920.928	15264
921.038	15386
921.148	15397
921.258	15020
921.368	14861
921.477	14777
921.587	14773
921.697	14636
921.806	14849
921.916	14526
922.025	14336
922.134	14442
922.244	14343
922.353	14492
922.462	14336
922.571	14157
922.68	14145
922.789	14073
922.898	14039
923.007	13963
923.116	14039
923.224	14027
923.333	13963
923.442	13940
923.55	13830
923.659	13856
923.767	13947
923.876	13818
923.984	13982
924.092	13799
924.201	13814
924.309	13715
924.417	13769
924.525	13753
924.633	13723
924.741	14518
924.849	13457
924.956	13647
925.064	13556
925.172	13396
925.279	13506
925.387	13468
925.494	13464
925.602	13586
925.709	13510
925.816	13343
925.924	13369
926.031	13491
926.138	13480
926.245	13468
926.352	13331
926.459	13430
926.566	13400
926.673	13282
926.779	13217
926.886	13175
926.993	13057
927.099	13057
927.206	12989
927.312	12894
927.419	13019
927.525	12962
927.631	13057
927.737	12894
927.843	12802
927.95	12681
928.056	12741
928.162	12730
928.267	12817
928.373	13506
928.479	12817
928.585	12700
928.69	12722
928.796	12738
928.901	12639
929.007	12517
929.112	12669
929.218	12589
929.323	12604
929.428	12490
929.533	12662
929.638	12350
929.743	12509
929.848	12490
929.953	12513
930.058	12296
930.163	12232
930.267	12281
930.372	12376
930.477	12220
930.581	12334
930.685	12273
930.79	12045
930.894	12076
930.998	12057
931.103	12190
931.207	11783
931.311	11741
931.415	11623
931.519	11452
931.623	11379
