Data from test_V78500241_2927.txt Node
Date: Fri Mar 25 16:02:04 CST 2022
User: usil
Spectrometer: V785-0024
Trigger mode: 0
Integration Time (sec): 4.000000E-1
Scans to average: 1
Nonlinearity correction enabled: false
Boxcar width: 0
Storing dark spectrum: false
XAxis mode: Wavelengths
Number of Pixels in Spectrum: 1024
>>>>>Begin Spectral Data<<<<<
801.071	28934
801.214	28706
801.356	28508
801.499	28546
801.641	28219
801.783	28303
801.926	28481
802.068	28405
802.211	28291
802.353	28265
802.496	28112
802.638	28135
802.78	28105
802.923	28040
803.065	28036
803.208	28078
803.35	28032
803.492	28299
803.635	28295
803.777	28261
803.919	28382
804.061	28778
804.204	28352
804.346	28322
804.488	28253
804.63	28272
804.773	28352
804.915	28329
805.057	28440
805.199	28379
805.341	28382
805.483	28413
805.626	28424
805.768	28337
805.91	28550
806.052	28401
806.194	28417
806.336	28694
806.478	28451
806.62	28443
806.762	28717
806.904	28835
807.046	28927
807.188	29041
807.33	28919
807.472	29151
807.614	28854
807.756	29067
807.898	28843
808.04	28744
808.182	28793
808.324	28645
808.465	28763
808.607	29052
808.749	29216
808.891	29307
809.033	29296
809.174	29326
809.316	29117
809.458	29193
809.6	28995
809.741	29181
809.883	29345
810.025	29452
810.166	29497
810.308	29497
810.45	29436
810.591	29311
810.733	29307
810.875	29227
811.016	29178
811.158	28984
811.299	29216
811.441	29292
811.582	29311
811.724	29109
811.865	29284
812.007	29124
812.148	29223
812.29	29132
812.431	29318
812.573	29467
812.714	29638
812.855	29817
812.997	29680
813.138	29851
813.279	29885
813.421	29653
813.562	29672
813.703	29497
813.845	29391
813.986	29261
814.127	29003
814.268	28953
814.41	28888
814.551	29041
814.692	28957
814.833	28949
814.974	28904
815.115	28790
815.256	28797
815.397	28820
815.539	28721
815.68	28809
815.821	28637
815.962	28592
816.103	28778
816.244	28573
816.385	28500
816.526	28542
816.666	28329
816.807	28207
816.948	28310
817.089	28280
817.23	28261
817.371	28306
817.512	28139
817.653	28207
817.793	28181
817.934	28204
818.075	28211
818.216	28238
818.356	28219
818.497	28093
818.638	27899
818.778	27975
818.919	28067
819.06	28230
819.2	28021
819.341	28249
819.481	28238
819.622	28314
819.762	28668
819.903	28421
820.043	28535
820.184	28333
820.324	28344
820.465	28421
820.605	28432
820.746	28280
820.886	28287
821.026	28257
821.167	28272
821.307	28409
821.447	28306
821.588	28154
821.728	28139
821.868	27918
822.008	27827
822.149	27671
822.289	27755
822.429	27515
822.569	27313
822.709	27458
822.849	27230
822.99	27241
823.13	27108
823.27	27233
823.41	27081
823.55	26944
823.69	27077
823.83	27047
823.97	26948
824.11	26777
824.25	26899
824.389	26956
824.529	26956
824.669	26918
824.809	27009
824.949	26986
825.089	27009
825.228	26937
825.368	26541
825.508	26682
825.648	26861
825.787	26918
825.927	26918
826.067	26743
826.206	26606
826.346	26762
826.485	26773
826.625	26845
826.765	26891
826.904	26891
827.044	26602
827.183	26564
827.323	26453
827.462	26453
827.601	26400
827.741	26438
827.88	26442
828.02	26317
828.159	26469
828.298	26412
828.437	26522
828.577	26374
828.716	26492
828.855	26450
828.994	26088
829.134	26206
829.273	26134
829.412	26126
829.551	26065
829.69	26122
829.829	26134
829.968	26161
830.107	26275
830.246	26229
830.385	26084
830.524	26142
830.663	26073
830.802	25879
830.941	25811
831.08	25731
831.219	25807
831.357	25959
831.496	26001
831.635	25799
831.774	25590
831.913	25693
832.051	25544
832.19	25635
832.329	25506
832.467	25464
832.606	25407
832.744	25445
832.883	25487
833.022	25472
833.16	25453
833.299	25411
833.437	25479
833.576	25468
833.714	25362
833.852	25460
833.991	25506
834.129	25525
834.267	25628
834.406	25514
834.544	25575
834.682	25403
834.821	25468
834.959	25616
835.097	25438
835.235	25635
835.373	25499
835.511	25392
835.65	25327
835.788	25343
835.926	25198
836.064	25156
836.202	25088
836.34	25377
836.478	25449
836.615	25346
836.753	25304
836.891	25308
837.029	25274
837.167	25255
837.305	25266
837.443	25221
837.58	25133
837.718	25308
837.856	25175
837.993	25053
838.131	25129
838.269	25133
838.406	25198
838.544	24996
838.681	24821
838.819	24829
838.956	24692
839.094	24658
839.231	24681
839.369	24779
839.506	24871
839.643	24833
839.781	24528
839.918	24563
840.055	24734
840.193	24608
840.33	24467
840.467	24627
840.604	24589
840.742	24722
840.879	24475
841.016	24418
841.153	24300
841.29	24582
841.427	24505
841.564	24418
841.701	24551
841.838	24540
841.975	24460
842.112	24467
842.249	24251
842.385	24273
842.522	24509
842.659	24247
842.796	24201
842.933	24281
843.069	24174
843.206	24220
843.343	24342
843.479	24292
843.616	24216
843.752	23958
843.889	24091
844.025	24243
844.162	24133
844.298	24224
844.435	24049
844.571	24072
844.708	24068
844.844	24224
844.98	24228
845.117	24121
845.253	23996
845.389	23927
845.525	23996
845.661	23866
845.798	23752
845.934	23840
846.07	23847
846.206	23832
846.342	23771
846.478	23767
846.614	23608
846.75	23486
846.886	23539
847.022	23581
847.158	23520
847.294	23558
847.429	23471
847.565	23425
847.701	23767
847.837	23318
847.972	23227
848.108	23345
848.244	23235
848.379	23105
848.515	23155
848.65	23143
848.786	23151
848.921	23067
849.057	23037
849.192	23170
849.328	23109
849.463	23159
849.598	22995
849.734	22877
849.869	22835
850.004	22828
850.14	22854
850.275	22919
850.41	22740
850.545	22771
850.68	22843
850.815	22866
850.95	22809
851.085	22915
851.22	22995
851.355	22938
851.49	22790
851.625	22858
851.76	22885
851.895	22717
852.03	22752
852.165	22790
852.299	22915
852.434	22881
852.569	22881
852.703	22786
852.838	22828
852.973	22999
853.107	23109
853.242	22740
853.376	22717
853.511	22485
853.645	22577
853.78	22843
853.914	22649
854.048	22683
854.183	22603
854.317	22649
854.451	22866
854.585	22702
854.72	22630
854.854	22801
854.988	22611
855.122	22630
855.256	22542
855.39	22607
855.524	22824
855.658	22812
855.792	22797
855.926	22653
856.06	22831
856.194	22675
856.327	22596
856.461	22649
856.595	22660
856.729	22683
856.862	22664
856.996	22660
857.13	22679
857.263	22744
857.397	22691
857.53	22664
857.664	22637
857.797	22831
857.931	22771
858.064	22706
858.197	22596
858.331	22698
858.464	22683
858.597	22497
858.731	22679
858.864	22478
858.997	22679
859.13	22763
859.263	22683
859.396	22771
859.529	22664
859.662	22588
859.795	22664
859.928	22641
860.061	22790
860.194	22946
860.327	22755
860.46	22698
860.592	22736
860.725	22782
860.858	22812
860.99	22793
861.123	22569
861.256	22607
861.388	22630
861.521	23345
861.653	22565
861.786	22542
861.918	22565
862.05	22519
862.183	22672
862.315	22687
862.447	22641
862.58	22637
862.712	22386
862.844	22443
862.976	22390
863.108	22371
863.24	22774
863.372	22356
863.504	22462
863.636	22318
863.768	22344
863.9	22379
864.032	22234
864.164	22341
864.296	22337
864.428	22542
864.559	22382
864.691	22474
864.823	22409
864.954	22276
865.086	22360
865.217	22356
865.349	22200
865.48	22204
865.612	22219
865.743	22371
865.875	22257
866.006	22257
866.137	22230
866.269	22131
866.4	22097
866.531	22154
866.662	22268
866.793	22185
866.924	22246
867.055	22181
867.186	22200
867.317	22200
867.448	22055
867.579	22158
867.71	22185
867.841	22078
867.972	22173
868.103	22223
868.233	22234
868.364	22204
868.495	22162
868.625	22478
868.756	22519
868.886	22402
869.017	22367
869.147	22599
869.278	22474
869.408	22409
869.539	22417
869.669	22500
869.799	22322
869.929	22584
870.06	22561
870.19	22626
870.32	22683
870.45	22752
870.58	22774
870.71	22923
870.84	22900
870.97	22778
871.1	22820
871.23	23075
871.36	22984
871.489	22942
871.619	23094
871.749	23079
871.879	23064
872.008	23124
872.138	22965
872.267	22999
872.397	22873
872.526	22740
872.656	22873
872.785	22957
872.915	23136
873.044	23174
873.173	23090
873.303	23086
873.432	23044
873.561	23170
873.69	23029
873.819	22972
873.948	23018
874.077	23102
874.206	23075
874.335	23064
874.464	23083
874.593	23181
874.722	23174
874.851	23303
874.979	23337
875.108	23231
875.237	23174
875.365	23162
875.494	23083
875.623	23235
875.751	23239
875.88	23372
876.008	23345
876.136	23402
876.265	23619
876.393	23737
876.521	23760
876.65	23729
876.778	23600
876.906	23623
877.034	23604
877.162	23600
877.29	23478
877.418	23539
877.546	23653
877.674	23630
877.802	23577
877.93	23497
878.058	23577
878.185	23493
878.313	23558
878.441	23684
878.568	23334
878.696	23543
878.824	23566
878.951	23672
879.079	23786
879.206	23901
879.333	23691
879.461	23714
879.588	23760
879.715	23798
879.842	23828
879.97	23885
880.097	23402
880.224	23330
880.351	23531
880.478	23372
880.605	23261
880.732	23372
880.859	23695
880.986	23417
881.112	23372
881.239	23277
881.366	23086
881.493	22976
881.619	22968
881.746	22965
881.872	22965
881.999	22816
882.125	22881
882.252	22919
882.378	22953
882.505	23060
882.631	22839
882.757	22656
882.883	22702
883.01	22725
883.136	22531
883.262	22481
883.388	22531
883.514	22634
883.64	22615
883.766	22535
883.892	22314
884.018	22462
884.143	22573
884.269	22531
884.395	22341
884.52	22238
884.646	22306
884.772	22173
884.897	22074
885.023	22333
885.148	22344
885.274	22375
885.399	22348
885.524	22268
885.65	22124
885.775	22299
885.9	22261
886.025	22341
886.15	22322
886.275	22226
886.4	22154
886.525	22177
886.65	22185
886.775	22185
886.9	22268
887.025	22402
887.149	22284
887.274	22166
887.399	22105
887.523	22097
887.648	21899
887.773	21884
887.897	22063
888.021	22109
888.146	22006
888.27	21998
888.395	21975
888.519	22032
888.643	22013
888.767	22021
888.891	21930
889.015	21812
889.139	21804
889.263	21762
889.387	21956
889.511	22036
889.635	21873
889.759	21838
889.883	21861
890.006	21679
890.13	21854
890.254	21644
890.377	21675
890.501	21625
890.624	21462
890.748	21587
890.871	21477
890.995	21214
891.118	21348
891.241	21397
891.364	21473
891.488	21549
891.611	21393
891.734	21355
891.857	21458
891.98	21287
892.103	21447
892.226	21275
892.349	21332
892.471	21237
892.594	21237
892.717	21291
892.839	21298
892.962	21279
893.085	21370
893.207	21321
893.33	21089
893.452	21218
893.575	21252
893.697	21245
893.819	21420
893.941	21351
894.064	21370
894.186	21207
894.308	21157
894.43	21336
894.552	21370
894.674	21336
894.796	21123
894.918	21237
895.04	21249
895.161	21256
895.283	21317
895.405	21169
895.526	21165
895.648	21017
895.769	21378
895.891	21165
896.012	21359
896.134	21146
896.255	21104
896.376	21222
896.498	21218
896.619	21256
896.74	21180
896.861	21359
896.982	21580
897.103	21625
897.224	21462
897.345	21492
897.466	21321
897.587	21534
897.708	21526
897.828	21393
897.949	21291
898.07	21336
898.19	21325
898.311	21389
898.431	21412
898.552	21500
898.672	21393
898.792	21443
898.913	21485
899.033	21283
899.153	21154
899.273	21070
899.393	21138
899.513	21135
899.633	21161
899.753	21169
899.873	20994
899.993	21222
900.113	21085
900.232	21157
900.352	21096
900.472	20994
900.591	20804
900.711	20952
900.83	20918
900.95	21028
901.069	20971
901.189	20773
901.308	20583
901.427	20396
901.546	20476
901.665	20533
901.784	20495
901.904	20476
902.023	20259
902.141	20069
902.26	20012
902.379	20126
902.498	20005
902.617	19959
902.735	19993
902.854	19970
902.973	19822
903.091	19655
903.21	19563
903.328	19620
903.446	19544
903.565	19537
903.683	19468
903.801	19335
903.919	19384
904.038	19441
904.156	19247
904.274	19282
904.392	19202
904.51	19179
904.627	19148
904.745	19240
904.863	19270
904.981	18962
905.098	18875
905.216	18905
905.334	18916
905.451	18856
905.569	18913
905.686	18947
905.803	18814
905.921	18616
906.038	18688
906.155	18654
906.272	18551
906.389	18521
906.506	18460
906.623	18395
906.74	18319
906.857	18102
906.974	18247
907.091	18388
907.208	18479
907.324	18384
907.441	18270
907.557	18152
907.674	18106
907.79	17999
907.907	18155
908.023	18102
908.139	18068
908.256	18030
908.372	17999
908.488	17954
908.604	17851
908.72	17805
908.836	17794
908.952	17764
909.068	17794
909.184	17866
909.3	17680
909.415	17786
909.531	17912
909.647	17589
909.762	17474
909.878	17379
909.993	17376
910.108	17425
910.224	17471
910.339	17444
910.454	17265
910.57	17258
910.685	17155
910.8	17535
910.915	17398
911.03	17212
911.145	17151
911.259	17083
911.374	17003
911.489	16957
911.604	16908
911.718	16774
911.833	16847
911.947	16717
912.062	16664
912.176	16858
912.291	16850
912.405	16904
912.519	16999
912.633	16999
912.748	16904
912.862	16793
912.976	16694
913.09	16542
913.204	16531
913.318	16694
913.431	16786
913.545	16683
913.659	16660
913.772	16580
913.886	16451
914	16409
914.113	16542
914.226	16519
914.34	16561
914.453	16226
914.566	16333
914.68	16242
914.793	16246
914.906	15972
915.019	15918
915.132	15979
915.245	15960
915.358	15922
915.47	15937
915.583	15926
915.696	16093
915.809	16048
915.921	16173
916.034	15926
916.146	15869
916.259	15724
916.371	16002
916.483	15857
916.595	15793
916.708	15808
916.82	15762
916.932	15755
917.044	15774
917.156	15709
917.268	15690
917.38	15656
917.491	15610
917.603	15610
917.715	15637
917.826	15622
917.938	15507
918.049	15367
918.161	15431
918.272	15759
918.384	15648
918.495	15568
918.606	15355
918.717	15336
918.828	15355
918.939	15488
919.05	15279
919.161	15275
919.272	15070
919.383	15176
919.494	15336
919.604	15515
919.715	15302
919.826	15260
919.936	15260
920.047	15310
920.157	15275
920.267	15431
920.378	15336
920.488	15195
920.598	15481
920.708	15477
920.818	15268
920.928	15405
921.038	15595
921.148	15671
921.258	15230
921.368	15100
921.477	15013
921.587	14982
921.697	14979
921.806	14925
921.916	14773
922.025	14629
922.134	14640
922.244	14644
922.353	14686
922.462	14583
922.571	14484
922.68	14294
922.789	14233
922.898	14298
923.007	14214
923.116	14263
923.224	14202
923.333	14248
923.442	14111
923.55	14119
923.659	14123
923.767	14164
923.876	14058
923.984	14058
924.092	13982
924.201	14077
924.309	13944
924.417	14024
924.525	13871
924.633	13879
924.741	14880
924.849	13750
924.956	13856
925.064	13696
925.172	13575
925.279	13643
925.387	13639
925.494	13689
925.602	13807
925.709	13655
925.816	13540
925.924	13529
926.031	13689
926.138	13552
926.245	13658
926.352	13499
926.459	13609
926.566	13636
926.673	13537
926.779	13438
926.886	13426
926.993	13221
927.099	13198
927.206	13202
927.312	13133
927.419	13187
927.525	13137
927.631	13232
927.737	13133
927.843	12939
927.95	12859
928.056	13004
928.162	12981
928.267	13038
928.373	13689
928.479	13061
928.585	12795
928.69	13019
928.796	13008
928.901	12825
929.007	12719
929.112	12848
929.218	12821
929.323	12684
929.428	12711
929.533	12760
929.638	12578
929.743	12582
929.848	12662
929.953	12669
930.058	12506
930.163	12311
930.267	12407
930.372	12456
930.477	12262
930.581	12483
930.685	12376
930.79	12194
930.894	12220
930.998	12315
931.103	12407
931.207	12060
931.311	11904
931.415	11809
931.519	11684
931.623	11551
