Data from test_V78500241_137.txt Node
Date: Fri Mar 25 15:42:45 CST 2022
User: usil
Spectrometer: V785-0024
Trigger mode: 0
Integration Time (sec): 4.000000E-1
Scans to average: 1
Nonlinearity correction enabled: false
Boxcar width: 0
Storing dark spectrum: false
XAxis mode: Wavelengths
Number of Pixels in Spectrum: 1024
>>>>>Begin Spectral Data<<<<<
801.071	29714
801.214	29608
801.356	29326
801.499	29299
801.641	29174
801.783	29037
801.926	29147
802.068	29242
802.211	29071
802.353	28911
802.496	28881
802.638	28793
802.78	28782
802.923	28523
803.065	28603
803.208	28744
803.35	28866
803.492	28752
803.635	28965
803.777	28736
803.919	28809
804.061	29151
804.204	28824
804.346	28816
804.488	28675
804.63	28786
804.773	28771
804.915	28672
805.057	28942
805.199	28831
805.341	28946
805.483	28957
805.626	28919
805.768	28930
805.91	28881
806.052	28972
806.194	28877
806.336	29105
806.478	28995
806.62	28885
806.762	29071
806.904	29113
807.046	29452
807.188	29246
807.33	29227
807.472	29299
807.614	29220
807.756	29250
807.898	29086
808.04	29037
808.182	29136
808.324	29159
808.465	28999
808.607	29239
808.749	29429
808.891	29535
809.033	29592
809.174	29562
809.316	29425
809.458	29714
809.6	29398
809.741	29490
809.883	29592
810.025	29657
810.166	29573
810.308	29657
810.45	29589
810.591	29497
810.733	29417
810.875	29406
811.016	29406
811.158	29280
811.299	29512
811.441	29558
811.582	29474
811.724	29360
811.865	29459
812.007	29273
812.148	29311
812.29	29364
812.431	29554
812.573	29779
812.714	29813
812.855	29866
812.997	29882
813.138	30091
813.279	30034
813.421	29908
813.562	29961
813.703	29627
813.845	29585
813.986	29189
814.127	29041
814.268	29067
814.41	28984
814.551	28972
814.692	29136
814.833	28919
814.974	28896
815.115	29029
815.256	28790
815.397	28850
815.539	28729
815.68	28767
815.821	28816
815.962	28797
816.103	28683
816.244	28557
816.385	28375
816.526	28504
816.666	28329
816.807	28291
816.948	28226
817.089	28257
817.23	28143
817.371	28246
817.512	28169
817.653	28147
817.793	28147
817.934	28166
818.075	27998
818.216	28143
818.356	27922
818.497	27876
818.638	27675
818.778	27717
818.919	27865
819.06	27831
819.2	27804
819.341	28169
819.481	28006
819.622	28101
819.762	28265
819.903	28405
820.043	28086
820.184	28147
820.324	28086
820.465	28291
820.605	28314
820.746	27983
820.886	27975
821.026	27968
821.167	27972
821.307	28044
821.447	27888
821.588	27918
821.728	27564
821.868	27606
822.008	27606
822.149	27447
822.289	27416
822.429	27279
822.569	27116
822.709	27081
822.849	26899
822.99	26960
823.13	26880
823.27	26929
823.41	26743
823.55	26701
823.69	26712
823.83	26644
823.97	26609
824.11	26533
824.25	26339
824.389	26469
824.529	26446
824.669	26370
824.809	26568
824.949	26583
825.089	26545
825.228	26476
825.368	26377
825.508	26210
825.648	26366
825.787	26358
825.927	26305
826.067	26256
826.206	26286
826.346	26100
826.485	26336
826.625	26294
826.765	26275
826.904	26343
827.044	26016
827.183	26126
827.323	25955
827.462	25978
827.601	25932
827.741	25837
827.88	25917
828.02	25799
828.159	25715
828.298	25989
828.437	25925
828.577	25852
828.716	25947
828.855	25776
828.994	25609
829.134	25616
829.273	25628
829.412	25605
829.551	25468
829.69	25578
829.829	25578
829.968	25643
830.107	25578
830.246	25590
830.385	25628
830.524	25605
830.663	25324
830.802	25209
830.941	25110
831.08	25133
831.219	25213
831.357	25171
831.496	25407
831.635	25152
831.774	25061
831.913	25038
832.051	24829
832.19	24878
832.329	24859
832.467	24768
832.606	24700
832.744	24593
832.883	24700
833.022	24711
833.16	24757
833.299	24730
833.437	24814
833.576	24722
833.714	24730
833.852	24806
833.991	24722
834.129	24886
834.267	24825
834.406	24738
834.544	24783
834.682	24726
834.821	24570
834.959	24760
835.097	24658
835.235	24772
835.373	24646
835.511	24593
835.65	24544
835.788	24517
835.926	24418
836.064	24311
836.202	24353
836.34	24532
836.478	24578
836.615	24521
836.753	24616
836.891	24658
837.029	24635
837.167	24475
837.305	24532
837.443	24467
837.58	24486
837.718	24505
837.856	24334
837.993	24300
838.131	24350
838.269	24239
838.406	24224
838.544	24095
838.681	23977
838.819	23961
838.956	23939
839.094	23836
839.231	23836
839.369	23992
839.506	24235
839.643	23904
839.781	23779
839.918	23752
840.055	23699
840.193	23691
840.33	23551
840.467	23596
840.604	23672
840.742	23874
840.879	23486
841.016	23589
841.153	23543
841.29	23570
841.427	23646
841.564	23577
841.701	23657
841.838	23676
841.975	23459
842.112	23554
842.249	23406
842.385	23372
842.522	23516
842.659	23391
842.796	23258
842.933	23277
843.069	23200
843.206	23223
843.343	23239
843.479	23277
843.616	23395
843.752	22991
843.889	23132
844.025	23307
844.162	23025
844.298	23212
844.435	23037
844.571	22953
844.708	23060
844.844	23162
844.98	23208
845.117	23105
845.253	22968
845.389	22858
845.525	22908
845.661	22812
845.798	22793
845.934	22816
846.07	22592
846.206	22774
846.342	22862
846.478	22588
846.614	22550
846.75	22409
846.886	22527
847.022	22470
847.158	22557
847.294	22474
847.429	22485
847.565	22402
847.701	22702
847.837	22185
847.972	22291
848.108	22329
848.244	22215
848.379	22105
848.515	22150
848.65	22067
848.786	22059
848.921	22082
849.057	22070
849.192	22112
849.328	22097
849.463	21956
849.598	21956
849.734	21956
849.869	21903
850.004	21675
850.14	21766
850.275	21644
850.41	21720
850.545	21774
850.68	21622
850.815	21956
850.95	21564
851.085	21968
851.22	21892
851.355	21766
851.49	21724
851.625	21751
851.76	21686
851.895	21610
852.03	21652
852.165	21686
852.299	21705
852.434	21869
852.569	21736
852.703	21728
852.838	21739
852.973	21743
853.107	21827
853.242	21747
853.376	21530
853.511	21443
853.645	21561
853.78	21675
853.914	21633
854.048	21443
854.183	21542
854.317	21599
854.451	21739
854.585	21519
854.72	21644
854.854	21515
854.988	21416
855.122	21614
855.256	21428
855.39	21561
855.524	21549
855.658	21599
855.792	21705
855.926	21591
856.06	21595
856.194	21625
856.327	21526
856.461	21428
856.595	21340
856.729	21534
856.862	21644
856.996	21667
857.13	21625
857.263	21561
857.397	21504
857.53	21599
857.664	21583
857.797	21568
857.931	21564
858.064	21557
858.197	21641
858.331	21542
858.464	21412
858.597	21454
858.731	21435
858.864	21561
858.997	21458
859.13	21374
859.263	21519
859.396	21542
859.529	21458
859.662	21370
859.795	21420
859.928	21447
860.061	21606
860.194	21736
860.327	21519
860.46	21389
860.592	21675
860.725	21656
860.858	21500
860.99	21530
861.123	21317
861.256	21466
861.388	21443
861.521	22078
861.653	21351
861.786	21302
861.918	21466
862.05	21488
862.183	21435
862.315	21500
862.447	21545
862.58	21454
862.712	21321
862.844	21093
862.976	21294
863.108	21127
863.24	21469
863.372	21100
863.504	21256
863.636	21135
863.768	21131
863.9	21093
864.032	21066
864.164	21039
864.296	21218
864.428	21294
864.559	21256
864.691	21283
864.823	21241
864.954	21077
865.086	21066
865.217	21119
865.349	20952
865.48	21123
865.612	20902
865.743	21135
865.875	21123
866.006	20960
866.137	21005
866.269	21074
866.4	21005
866.531	20971
866.662	20914
866.793	21047
866.924	20971
867.055	21074
867.186	20929
867.317	20929
867.448	20788
867.579	20899
867.71	20773
867.841	20918
867.972	21051
868.103	20937
868.233	21062
868.364	21043
868.495	21055
868.625	21096
868.756	21294
868.886	21081
869.017	21089
869.147	21264
869.278	21386
869.408	21192
869.539	21192
869.669	21222
869.799	21184
869.929	21428
870.06	21344
870.19	21367
870.32	21439
870.45	21610
870.58	21511
870.71	21812
870.84	21709
870.97	21637
871.1	21557
871.23	21774
871.36	21797
871.489	21671
871.619	21751
871.749	21709
871.879	21808
872.008	21926
872.138	21812
872.267	21846
872.397	21648
872.526	21583
872.656	21686
872.785	21595
872.915	21842
873.044	21816
873.173	21827
873.303	21778
873.432	21774
873.561	21884
873.69	21793
873.819	21884
873.948	21876
874.077	21793
874.206	21804
874.335	21930
874.464	21861
874.593	22067
874.722	21888
874.851	22185
874.979	22109
875.108	22166
875.237	22021
875.365	22074
875.494	22048
875.623	22200
875.751	21968
875.88	22090
876.008	22139
876.136	22299
876.265	22550
876.393	22512
876.521	22618
876.65	22512
876.778	22455
876.906	22440
877.034	22333
877.162	22478
877.29	22398
877.418	22367
877.546	22367
877.674	22436
877.802	22341
877.93	22341
878.058	22394
878.185	22276
878.313	22356
878.441	22299
878.568	22188
878.696	22295
878.824	22523
878.951	22516
879.079	22519
879.206	22717
879.333	22546
879.461	22489
879.588	22470
879.715	22622
879.842	22615
879.97	22382
880.097	22242
880.224	22116
880.351	22299
880.478	22272
880.605	22181
880.732	22116
880.859	22402
880.986	22230
881.112	22211
881.239	22131
881.366	22017
881.493	21861
881.619	21854
881.746	21770
881.872	21823
881.999	21759
882.125	21720
882.252	21793
882.378	21717
882.505	22002
882.631	21633
882.757	21587
882.883	21549
883.01	21458
883.136	21412
883.262	21374
883.388	21428
883.514	21538
883.64	21526
883.766	21507
883.892	21264
884.018	21389
884.143	21405
884.269	21511
884.395	21275
884.52	21135
884.646	21230
884.772	21085
884.897	21077
885.023	21203
885.148	21252
885.274	21443
885.399	21252
885.524	21135
885.65	21154
885.775	21112
885.9	21009
886.025	21245
886.15	21260
886.275	21154
886.4	20994
886.525	21104
886.65	21096
886.775	20960
886.9	21169
887.025	21492
887.149	21058
887.274	20982
887.399	20921
887.523	21001
887.648	20785
887.773	20746
887.897	21062
888.021	20975
888.146	20849
888.27	20971
888.395	20990
888.519	20982
888.643	21013
888.767	20910
888.891	20689
889.015	20674
889.139	20735
889.263	20651
889.387	20792
889.511	20842
889.635	20697
889.759	20689
889.883	20575
890.006	20613
890.13	20712
890.254	20514
890.377	20670
890.501	20507
890.624	20461
890.748	20400
890.871	20191
890.995	20290
891.118	20119
891.241	20210
891.364	20225
891.488	20218
891.611	20263
891.734	20259
891.857	20290
891.98	20191
892.103	20214
892.226	20225
892.349	20248
892.471	19997
892.594	20039
892.717	20191
892.839	20176
892.962	20164
893.085	20259
893.207	20065
893.33	20035
893.452	20005
893.575	20115
893.697	20111
893.819	20195
893.941	20309
894.064	20229
894.186	20008
894.308	20172
894.43	20244
894.552	20240
894.674	20221
894.796	20088
894.918	20107
895.04	20100
895.161	20237
895.283	20111
895.405	20058
895.526	20229
895.648	20107
895.769	20286
895.891	20206
896.012	20248
896.134	20119
896.255	20092
896.376	20153
896.498	20233
896.619	20195
896.74	20275
896.861	20248
896.982	20530
897.103	20613
897.224	20415
897.345	20408
897.466	20370
897.587	20328
897.708	20457
897.828	20396
897.949	20286
898.07	20210
898.19	20290
898.311	20454
898.431	20332
898.552	20393
898.672	20393
898.792	20408
898.913	20221
899.033	20122
899.153	20012
899.273	20016
899.393	19925
899.513	20020
899.633	20115
899.753	20062
899.873	19959
899.993	20187
900.113	19932
900.232	20103
900.352	19898
900.472	19875
900.591	19780
900.711	19849
900.83	19852
900.95	19955
901.069	19978
901.189	19803
901.308	19601
901.427	19438
901.546	19335
901.665	19377
901.784	19468
901.904	19312
902.023	19095
902.141	19008
902.26	18913
902.379	18901
902.498	18913
902.617	18852
902.735	18760
902.854	18928
902.973	18776
903.091	18540
903.21	18544
903.328	18536
903.446	18536
903.565	18418
903.683	18471
903.801	18311
903.919	18391
904.038	18232
904.156	18098
904.274	18182
904.392	18197
904.51	18205
904.627	18163
904.745	18136
904.863	18167
904.981	18019
905.098	17783
905.216	17851
905.334	17760
905.451	17824
905.569	17756
905.686	17847
905.803	17847
905.921	17524
906.038	17722
906.155	17562
906.272	17471
906.389	17532
906.506	17296
906.623	17353
906.74	17280
906.857	17212
906.974	17258
907.091	17356
907.208	17337
907.324	17315
907.441	17189
907.557	17029
907.674	17010
907.79	16980
907.907	16908
908.023	16995
908.139	17014
908.256	16965
908.372	16869
908.488	16839
908.604	16820
908.72	16713
908.836	16702
908.952	16554
909.068	16626
909.184	16740
909.3	16599
909.415	16683
909.531	16645
909.647	16371
909.762	16390
909.878	16318
909.993	16424
910.108	16356
910.224	16405
910.339	16280
910.454	16242
910.57	16215
910.685	16006
910.8	16280
910.915	16363
911.03	16211
911.145	16109
911.259	15975
911.374	15911
911.489	15964
911.604	15759
911.718	15751
911.833	15694
911.947	15679
912.062	15515
912.176	15705
912.291	15812
912.405	15728
912.519	15899
912.633	15880
912.748	15747
912.862	15686
912.976	15485
913.09	15435
913.204	15405
913.318	15507
913.431	15561
913.545	15530
913.659	15557
913.772	15466
913.886	15275
914	15214
914.113	15378
914.226	15405
914.34	15336
914.453	15123
914.566	15374
914.68	15154
914.793	15127
914.906	14986
915.019	14982
915.132	14944
915.245	14887
915.358	14902
915.47	14918
915.583	14914
915.696	14937
915.809	15020
915.921	15097
916.034	14883
916.146	14838
916.259	14819
916.371	14857
916.483	14830
916.595	14731
916.708	14765
916.82	14739
916.932	14636
917.044	14651
917.156	14640
917.268	14507
917.38	14625
917.491	14533
917.603	14583
917.715	14636
917.826	14686
917.938	14518
918.049	14412
918.161	14457
918.272	14663
918.384	14701
918.495	14526
918.606	14457
918.717	14290
918.828	14404
918.939	14507
919.05	14290
919.161	14366
919.272	14100
919.383	14187
919.494	14351
919.604	14503
919.715	14320
919.826	14214
919.936	14218
920.047	14366
920.157	14309
920.267	14461
920.378	14263
920.488	14206
920.598	14446
920.708	14560
920.818	14434
920.928	14408
921.038	14549
921.148	14495
921.258	14214
921.368	14244
921.477	14035
921.587	13997
921.697	14001
921.806	14046
921.916	13970
922.025	13772
922.134	13643
922.244	13632
922.353	13750
922.462	13601
922.571	13434
922.68	13266
922.789	13289
922.898	13304
923.007	13270
923.116	13270
923.224	13251
923.333	13247
923.442	13129
923.55	13084
923.659	13179
923.767	13023
923.876	13034
923.984	13114
924.092	12996
924.201	13107
924.309	13107
924.417	12989
924.525	12901
924.633	12916
924.741	13723
924.849	12825
924.956	12905
925.064	12696
925.172	12642
925.279	12696
925.387	12658
925.494	12779
925.602	12954
925.709	12783
925.816	12665
925.924	12700
926.031	12795
926.138	12639
926.245	12764
926.352	12631
926.459	12768
926.566	12806
926.673	12585
926.779	12521
926.886	12437
926.993	12258
927.099	12361
927.206	12353
927.312	12262
927.419	12346
927.525	12220
927.631	12304
927.737	12152
927.843	12178
927.95	12003
928.056	12129
928.162	12148
928.267	12102
928.373	12745
928.479	12273
928.585	12007
928.69	12053
928.796	12140
928.901	11927
929.007	11805
929.112	11946
929.218	11863
929.323	11805
929.428	11847
929.533	11901
929.638	11748
929.743	11847
929.848	11828
929.953	11805
930.058	11688
930.163	11532
930.267	11455
930.372	11615
930.477	11444
930.581	11653
930.685	11566
930.79	11395
930.894	11414
930.998	11376
931.103	11444
931.207	11132
931.311	11018
931.415	11014
931.519	10771
931.623	10679
