Data from test_V78500241_1361.txt Node
Date: Fri Mar 25 15:51:13 CST 2022
User: usil
Spectrometer: V785-0024
Trigger mode: 0
Integration Time (sec): 4.000000E-1
Scans to average: 1
Nonlinearity correction enabled: false
Boxcar width: 0
Storing dark spectrum: false
XAxis mode: Wavelengths
Number of Pixels in Spectrum: 1024
>>>>>Begin Spectral Data<<<<<
801.071	28287
801.214	28223
801.356	27926
801.499	27949
801.641	27835
801.783	27717
801.926	27831
802.068	27823
802.211	27804
802.353	27671
802.496	27416
802.638	27466
802.78	27424
802.923	27378
803.065	27427
803.208	27408
803.35	27431
803.492	27587
803.635	27648
803.777	27466
803.919	27671
804.061	28006
804.204	27720
804.346	27652
804.488	27526
804.63	27751
804.773	27542
804.915	27739
805.057	27736
805.199	27648
805.341	27755
805.483	27759
805.626	27785
805.768	27789
805.91	27869
806.052	27911
806.194	27804
806.336	28070
806.478	27926
806.62	27979
806.762	28010
806.904	28124
807.046	28360
807.188	28287
807.33	28352
807.472	28401
807.614	28219
807.756	28234
807.898	28124
808.04	27975
808.182	28135
808.324	28147
808.465	28116
808.607	28371
808.749	28516
808.891	28611
809.033	28367
809.174	28417
809.316	28443
809.458	28451
809.6	28405
809.741	28679
809.883	28538
810.025	28729
810.166	28828
810.308	28786
810.45	28755
810.591	28645
810.733	28618
810.875	28531
811.016	28325
811.158	28440
811.299	28466
811.441	28660
811.582	28588
811.724	28611
811.865	28394
812.007	28348
812.148	28478
812.29	28675
812.431	28611
812.573	28869
812.714	28820
812.855	28892
812.997	29170
813.138	29356
813.279	29140
813.421	28904
813.562	29052
813.703	28946
813.845	28713
813.986	28440
814.127	28390
814.268	28116
814.41	28348
814.551	28276
814.692	28078
814.833	28124
814.974	28177
815.115	28261
815.256	28086
815.397	28059
815.539	28150
815.68	27941
815.821	27926
815.962	27983
816.103	28025
816.244	27884
816.385	27869
816.526	27713
816.666	27724
816.807	27447
816.948	27641
817.089	27583
817.23	27435
817.371	27481
817.512	27500
817.653	27405
817.793	27344
817.934	27519
818.075	27473
818.216	27420
818.356	27485
818.497	27340
818.638	27233
818.778	27287
818.919	27336
819.06	27218
819.2	27336
819.341	27511
819.481	27492
819.622	27591
819.762	27865
819.903	27854
820.043	27568
820.184	27614
820.324	27644
820.465	27610
820.605	27663
820.746	27629
820.886	27511
821.026	27568
821.167	27561
821.307	27595
821.447	27637
821.588	27401
821.728	27340
821.868	27108
822.008	27119
822.149	27119
822.289	27017
822.429	26739
822.569	26670
822.709	26590
822.849	26480
822.99	26461
823.13	26431
823.27	26404
823.41	26210
823.55	26229
823.69	26286
823.83	26286
823.97	26278
824.11	26126
824.25	26016
824.389	26077
824.529	26168
824.669	26214
824.809	26210
824.949	26172
825.089	26176
825.228	26149
825.368	25959
825.508	25970
825.648	26062
825.787	25913
825.927	26225
826.067	25959
826.206	26020
826.346	26111
826.485	26031
826.625	25989
826.765	25951
826.904	26005
827.044	25765
827.183	25830
827.323	25788
827.462	25799
827.601	25753
827.741	25799
827.88	25875
828.02	25578
828.159	25731
828.298	25738
828.437	25696
828.577	25624
828.716	25674
828.855	25616
828.994	25346
829.134	25339
829.273	25449
829.412	25304
829.551	25320
829.69	25308
829.829	25434
829.968	25537
830.107	25438
830.246	25388
830.385	25274
830.524	25247
830.663	25179
830.802	25244
830.941	24970
831.08	24943
831.219	25065
831.357	25133
831.496	25194
831.635	24951
831.774	24966
831.913	25038
832.051	24798
832.19	24825
832.329	24795
832.467	24741
832.606	24726
832.744	24658
832.883	24604
833.022	24620
833.16	24608
833.299	24703
833.437	24741
833.576	24684
833.714	24825
833.852	24757
833.991	24791
834.129	24745
834.267	24810
834.406	24757
834.544	24703
834.682	24749
834.821	24692
834.959	24913
835.097	24654
835.235	24726
835.373	24616
835.511	24734
835.65	24570
835.788	24551
835.926	24521
836.064	24380
836.202	24441
836.34	24608
836.478	24658
836.615	24445
836.753	24467
836.891	24627
837.029	24711
837.167	24521
837.305	24460
837.443	24467
837.58	24498
837.718	24357
837.856	24346
837.993	24361
838.131	24410
838.269	24186
838.406	24327
838.544	24228
838.681	24076
838.819	24178
838.956	23855
839.094	23802
839.231	23931
839.369	24194
839.506	24266
839.643	24064
839.781	23927
839.918	23798
840.055	23904
840.193	23927
840.33	23802
840.467	23916
840.604	23992
840.742	24178
840.879	23573
841.016	23695
841.153	23718
841.29	23927
841.427	23805
841.564	23828
841.701	23726
841.838	23707
841.975	23691
842.112	23676
842.249	23604
842.385	23668
842.522	23672
842.659	23608
842.796	23429
842.933	23531
843.069	23482
843.206	23471
843.343	23509
843.479	23448
843.616	23581
843.752	23208
843.889	23337
844.025	23372
844.162	23220
844.298	23387
844.435	23250
844.571	23239
844.708	23395
844.844	23364
844.98	23322
845.117	23330
845.253	23307
845.389	23284
845.525	23113
845.661	23178
845.798	23094
845.934	23094
846.07	23010
846.206	22904
846.342	23277
846.478	22991
846.614	22850
846.75	22664
846.886	22752
847.022	22698
847.158	22679
847.294	22885
847.429	22892
847.565	22557
847.701	22953
847.837	22405
847.972	22432
848.108	22557
848.244	22459
848.379	22360
848.515	22280
848.65	22268
848.786	22341
848.921	22344
849.057	22375
849.192	22474
849.328	22451
849.463	22234
849.598	22166
849.734	22200
849.869	22154
850.004	22150
850.14	22158
850.275	22082
850.41	22131
850.545	22101
850.68	22105
850.815	22173
850.95	22029
851.085	22360
851.22	22154
851.355	22116
851.49	22097
851.625	22013
851.76	22010
851.895	21972
852.03	22097
852.165	21994
852.299	22150
852.434	22211
852.569	22177
852.703	22105
852.838	22147
852.973	22200
853.107	22192
853.242	21945
853.376	21926
853.511	21751
853.645	21922
853.78	21968
853.914	21895
854.048	21812
854.183	21915
854.317	21880
854.451	22086
854.585	22002
854.72	21994
854.854	22120
854.988	21987
855.122	21762
855.256	21884
855.39	21915
855.524	21949
855.658	21972
855.792	21838
855.926	21892
856.06	21979
856.194	22070
856.327	21876
856.461	21941
856.595	21911
856.729	21926
856.862	22025
856.996	21888
857.13	21945
857.263	21968
857.397	21960
857.53	21926
857.664	21934
857.797	21915
857.931	22029
858.064	22082
858.197	22010
858.331	21903
858.464	21823
858.597	21747
858.731	21869
858.864	21926
858.997	21835
859.13	21869
859.263	22021
859.396	21899
859.529	21918
859.662	21972
859.795	21899
859.928	21907
860.061	22070
860.194	22112
860.327	21987
860.46	21968
860.592	22086
860.725	21991
860.858	22055
860.99	21869
861.123	21873
861.256	21816
861.388	21865
861.521	22603
861.653	21743
861.786	21698
861.918	21724
862.05	21816
862.183	21816
862.315	21846
862.447	21876
862.58	21793
862.712	21785
862.844	21553
862.976	21766
863.108	21720
863.24	22036
863.372	21587
863.504	21599
863.636	21568
863.768	21774
863.9	21690
864.032	21591
864.164	21542
864.296	21633
864.428	21869
864.559	21679
864.691	21770
864.823	21701
864.954	21648
865.086	21774
865.217	21606
865.349	21545
865.48	21485
865.612	21557
865.743	21709
865.875	21568
866.006	21625
866.137	21603
866.269	21545
866.4	21515
866.531	21469
866.662	21405
866.793	21473
866.924	21412
867.055	21492
867.186	21477
867.317	21488
867.448	21386
867.579	21431
867.71	21382
867.841	21374
867.972	21545
868.103	21526
868.233	21481
868.364	21283
868.495	21526
868.625	21850
868.756	21736
868.886	21671
869.017	21656
869.147	21808
869.278	21739
869.408	21785
869.539	21675
869.669	21800
869.799	21774
869.929	21861
870.06	21804
870.19	22120
870.32	21934
870.45	22086
870.58	22082
870.71	22219
870.84	22116
870.97	22021
871.1	22097
871.23	22280
871.36	22147
871.489	22200
871.619	22242
871.749	22318
871.879	22329
872.008	22588
872.138	22261
872.267	22230
872.397	22185
872.526	22185
872.656	22173
872.785	22154
872.915	22280
873.044	22363
873.173	22352
873.303	22375
873.432	22394
873.561	22394
873.69	22371
873.819	22253
873.948	22306
874.077	22253
874.206	22226
874.335	22219
874.464	22443
874.593	22512
874.722	22569
874.851	22519
874.979	22561
875.108	22725
875.237	22512
875.365	22390
875.494	22516
875.623	22702
875.751	22607
875.88	22474
876.008	22641
876.136	22672
876.265	22877
876.393	23067
876.521	23079
876.65	22873
876.778	22915
876.906	22843
877.034	22889
877.162	22938
877.29	22839
877.418	22889
877.546	22915
877.674	22759
877.802	22873
877.93	22790
878.058	22847
878.185	22812
878.313	22869
878.441	22835
878.568	22710
878.696	22831
878.824	22843
878.951	22820
879.079	23113
879.206	23079
879.333	22980
879.461	22946
879.588	22949
879.715	23048
879.842	23132
879.97	22972
880.097	22782
880.224	22668
880.351	22752
880.478	22656
880.605	22531
880.732	22569
880.859	22919
880.986	22710
881.112	22656
881.239	22577
881.366	22466
881.493	22481
881.619	22234
881.746	22291
881.872	22280
881.999	22093
882.125	22291
882.252	22341
882.378	22207
882.505	22341
882.631	22162
882.757	22059
882.883	21991
883.01	22070
883.136	21903
883.262	21854
883.388	21827
883.514	21960
883.64	21937
883.766	21945
883.892	21751
884.018	21797
884.143	21937
884.269	21975
884.395	21686
884.52	21694
884.646	21682
884.772	21553
884.897	21428
885.023	21564
885.148	21641
885.274	21713
885.399	21637
885.524	21660
885.65	21701
885.775	21530
885.9	21580
886.025	21663
886.15	21568
886.275	21477
886.4	21450
886.525	21572
886.65	21576
886.775	21481
886.9	21717
887.025	21739
887.149	21542
887.274	21428
887.399	21283
887.523	21317
887.648	21298
887.773	21302
887.897	21420
888.021	21363
888.146	21313
888.27	21359
888.395	21393
888.519	21230
888.643	21275
888.767	21477
888.891	21287
889.015	21226
889.139	21161
889.263	21058
889.387	21310
889.511	21336
889.635	21180
889.759	21100
889.883	21077
890.006	21173
890.13	21211
890.254	21066
890.377	21093
890.501	20960
890.624	20952
890.748	20979
890.871	20819
890.995	20689
891.118	20727
891.241	20720
891.364	20838
891.488	20777
891.611	20701
891.734	20697
891.857	20670
891.98	20678
892.103	20762
892.226	20750
892.349	20682
892.471	20583
892.594	20552
892.717	20727
892.839	20545
892.962	20659
893.085	20636
893.207	20598
893.33	20522
893.452	20541
893.575	20602
893.697	20533
893.819	20701
893.941	20819
894.064	20746
894.186	20526
894.308	20412
894.43	20609
894.552	20800
894.674	20602
894.796	20530
894.918	20560
895.04	20518
895.161	20758
895.283	20640
895.405	20473
895.526	20533
895.648	20431
895.769	20598
895.891	20636
896.012	20571
896.134	20731
896.255	20678
896.376	20488
896.498	20556
896.619	20606
896.74	20629
896.861	20682
896.982	20986
897.103	20967
897.224	20975
897.345	20826
897.466	20811
897.587	20743
897.708	20899
897.828	20853
897.949	20773
898.07	20617
898.19	20765
898.311	20956
898.431	20670
898.552	20895
898.672	20861
898.792	20941
898.913	20720
899.033	20579
899.153	20560
899.273	20400
899.393	20590
899.513	20579
899.633	20412
899.753	20473
899.873	20400
899.993	20571
900.113	20457
900.232	20533
900.352	20412
900.472	20507
900.591	20309
900.711	20385
900.83	20282
900.95	20370
901.069	20400
901.189	20263
901.308	20031
901.427	19864
901.546	19833
901.665	19906
901.784	19947
901.904	19616
902.023	19655
902.141	19483
902.26	19449
902.379	19525
902.498	19445
902.617	19392
902.735	19365
902.854	19289
902.973	19388
903.091	19202
903.21	19114
903.328	19023
903.446	18840
903.565	18875
903.683	18878
903.801	18795
903.919	18825
904.038	18833
904.156	18722
904.274	18623
904.392	18601
904.51	18612
904.627	18616
904.745	18608
904.863	18654
904.981	18452
905.098	18220
905.216	18319
905.334	18292
905.451	18235
905.569	18228
905.686	18323
905.803	18308
905.921	18064
906.038	18228
906.155	18114
906.272	18022
906.389	18064
906.506	17847
906.623	17802
906.74	17904
906.857	17783
906.974	17748
907.091	17870
907.208	18003
907.324	17817
907.441	17691
907.557	17630
907.674	17566
907.79	17425
907.907	17520
908.023	17615
908.139	17680
908.256	17478
908.372	17410
908.488	17482
908.604	17326
908.72	17273
908.836	17258
908.952	17269
909.068	17204
909.184	17398
909.3	17216
909.415	17250
909.531	17296
909.647	17022
909.762	16919
909.878	17006
909.993	16934
910.108	16866
910.224	16949
910.339	16946
910.454	16790
910.57	16866
910.685	16710
910.8	16961
910.915	16972
911.03	16816
911.145	16550
911.259	16755
911.374	16500
911.489	16516
911.604	16500
911.718	16234
911.833	16261
911.947	16162
912.062	16135
912.176	16181
912.291	16405
912.405	16219
912.519	16489
912.633	16447
912.748	16257
912.862	16147
912.976	16109
913.09	15922
913.204	16006
913.318	16120
913.431	16109
913.545	16223
913.659	16166
913.772	16048
913.886	16010
914	15857
914.113	15903
914.226	15876
914.34	15922
914.453	15800
914.566	15918
914.68	15816
914.793	15743
914.906	15462
915.019	15466
915.132	15359
915.245	15496
915.358	15466
915.47	15504
915.583	15488
915.696	15401
915.809	15633
915.921	15534
916.034	15462
916.146	15416
916.259	15435
916.371	15473
916.483	15466
916.595	15272
916.708	15291
916.82	15256
916.932	15116
917.044	15260
917.156	15188
917.268	15195
917.38	15104
917.491	15165
917.603	15074
917.715	15047
917.826	15093
917.938	15070
918.049	14967
918.161	15013
918.272	15131
918.384	15226
918.495	15062
918.606	14979
918.717	14796
918.828	14773
918.939	14906
919.05	14830
919.161	14750
919.272	14731
919.383	14735
919.494	15013
919.604	15036
919.715	14872
919.826	14792
919.936	14788
920.047	14788
920.157	14815
920.267	15024
920.378	14800
920.488	14682
920.598	15036
920.708	15017
920.818	14975
920.928	14899
921.038	15157
921.148	14990
921.258	14769
921.368	14697
921.477	14598
921.587	14518
921.697	14503
921.806	14549
921.916	14431
922.025	14336
922.134	14084
922.244	14145
922.353	14218
922.462	14145
922.571	14050
922.68	13871
922.789	13921
922.898	13902
923.007	13742
923.116	13898
923.224	13757
923.333	13845
923.442	13704
923.55	13670
923.659	13761
923.767	13746
923.876	13685
923.984	13723
924.092	13594
924.201	13639
924.309	13578
924.417	13544
924.525	13521
924.633	13468
924.741	14495
924.849	13266
924.956	13419
925.064	13171
925.172	13095
925.279	13206
925.387	13282
925.494	13259
925.602	13365
925.709	13304
925.816	13156
925.924	13156
926.031	13194
926.138	13137
926.245	13285
926.352	13110
926.459	13194
926.566	13331
926.673	13129
926.779	13027
926.886	12996
926.993	12821
927.099	12757
927.206	12802
927.312	12772
927.419	12772
927.525	12798
927.631	12776
927.737	12791
927.843	12681
927.95	12559
928.056	12525
928.162	12555
928.267	12650
928.373	13320
928.479	12673
928.585	12547
928.69	12547
928.796	12608
928.901	12521
929.007	12365
929.112	12426
929.218	12342
929.323	12391
929.428	12311
929.533	12544
929.638	12308
929.743	12232
929.848	12304
929.953	12247
930.058	12148
930.163	11988
930.267	12057
930.372	12216
930.477	12026
930.581	12209
930.685	12076
930.79	11866
930.894	11969
930.998	11866
931.103	11942
931.207	11676
931.311	11570
931.415	11387
931.519	11258
931.623	11174
