Data from test_V78500241_3400.txt Node
Date: Fri Mar 25 16:05:21 CST 2022
User: usil
Spectrometer: V785-0024
Trigger mode: 0
Integration Time (sec): 4.000000E-1
Scans to average: 1
Nonlinearity correction enabled: false
Boxcar width: 0
Storing dark spectrum: false
XAxis mode: Wavelengths
Number of Pixels in Spectrum: 1024
>>>>>Begin Spectral Data<<<<<
801.071	28466
801.214	28561
801.356	28230
801.499	28215
801.641	28196
801.783	28097
801.926	28185
802.068	28090
802.211	27972
802.353	28086
802.496	27888
802.638	27751
802.78	27778
802.923	27747
803.065	27762
803.208	27819
803.35	27918
803.492	27987
803.635	27956
803.777	27899
803.919	28070
804.061	28287
804.204	28082
804.346	27956
804.488	28097
804.63	27968
804.773	27865
804.915	28006
805.057	28268
805.199	28006
805.341	28112
805.483	28097
805.626	28314
805.768	28070
805.91	28192
806.052	28150
806.194	28063
806.336	28352
806.478	28177
806.62	28147
806.762	28481
806.904	28500
807.046	28675
807.188	28557
807.33	28557
807.472	28862
807.614	28432
807.756	28763
807.898	28436
808.04	28443
808.182	28432
808.324	28512
808.465	28607
808.607	28839
808.749	28862
808.891	28938
809.033	29060
809.174	28934
809.316	29003
809.458	28824
809.6	28850
809.741	28820
809.883	28991
810.025	29170
810.166	29235
810.308	29022
810.45	29090
810.591	29037
810.733	28980
810.875	28892
811.016	28915
811.158	28755
811.299	28904
811.441	28972
811.582	28965
811.724	28934
811.865	28809
812.007	28934
812.148	28934
812.29	28949
812.431	29037
812.573	29235
812.714	29299
812.855	29524
812.997	29433
813.138	29665
813.279	29600
813.421	29387
813.562	29364
813.703	29155
813.845	29235
813.986	28812
814.127	28569
814.268	28656
814.41	28607
814.551	28466
814.692	28694
814.833	28542
814.974	28561
815.115	28584
815.256	28455
815.397	28470
815.539	28584
815.68	28447
815.821	28272
815.962	28481
816.103	28386
816.244	28287
816.385	28280
816.526	28162
816.666	27922
816.807	27865
816.948	28070
817.089	28082
817.23	27983
817.371	27968
817.512	27926
817.653	27960
817.793	27778
817.934	27964
818.075	27876
818.216	27949
818.356	27922
818.497	27831
818.638	27720
818.778	27694
818.919	27743
819.06	27648
819.2	27880
819.341	27918
819.481	27759
819.622	27968
819.762	28291
819.903	28249
820.043	28025
820.184	28002
820.324	28070
820.465	28101
820.605	28101
820.746	28010
820.886	27914
821.026	27968
821.167	27953
821.307	28048
821.447	27907
821.588	27857
821.728	27736
821.868	27610
822.008	27397
822.149	27249
822.289	27386
822.429	27283
822.569	27146
822.709	27169
822.849	26918
822.99	26807
823.13	26773
823.27	26998
823.41	26811
823.55	26568
823.69	26777
823.83	26667
823.97	26720
824.11	26366
824.25	26522
824.389	26644
824.529	26617
824.669	26545
824.809	26609
824.949	26648
825.089	26625
825.228	26629
825.368	26400
825.508	26374
825.648	26336
825.787	26583
825.927	26419
826.067	26465
826.206	26423
826.346	26415
826.485	26492
826.625	26541
826.765	26533
826.904	26545
827.044	26161
827.183	26183
827.323	26202
827.462	26210
827.601	26100
827.741	26149
827.88	26199
828.02	26084
828.159	26130
828.298	26153
828.437	26176
828.577	26084
828.716	26100
828.855	26001
828.994	25841
829.134	25822
829.273	25814
829.412	25761
829.551	25917
829.69	25890
829.829	25833
829.968	25909
830.107	25837
830.246	25936
830.385	25708
830.524	25833
830.663	25677
830.802	25563
830.941	25327
831.08	25441
831.219	25590
831.357	25559
831.496	25689
831.635	25571
831.774	25324
831.913	25316
832.051	25175
832.19	25312
832.329	25346
832.467	25114
832.606	25000
832.744	24985
832.883	25065
833.022	25046
833.16	25187
833.299	25270
833.437	25042
833.576	25266
833.714	25183
833.852	25263
833.991	25335
834.129	25240
834.267	25103
834.406	25088
834.544	25122
834.682	25232
834.821	25217
834.959	25244
835.097	25118
835.235	25213
835.373	25171
835.511	25099
835.65	24935
835.788	24977
835.926	24989
836.064	24829
836.202	24848
836.34	24985
836.478	25053
836.615	25027
836.753	25057
836.891	25057
837.029	24981
837.167	24947
837.305	24947
837.443	24935
837.58	24856
837.718	24935
837.856	24837
837.993	24772
838.131	24901
838.269	24779
838.406	24719
838.544	24719
838.681	24608
838.819	24582
838.956	24376
839.094	24350
839.231	24311
839.369	24414
839.506	24817
839.643	24623
839.781	24327
839.918	24205
840.055	24338
840.193	24201
840.33	24235
840.467	24289
840.604	24224
840.742	24525
840.879	24102
841.016	24213
841.153	24194
841.29	24323
841.427	24182
841.564	24106
841.701	24311
841.838	24095
841.975	24057
842.112	24114
842.249	24083
842.385	23969
842.522	24140
842.659	24041
842.796	24121
842.933	24060
843.069	24057
843.206	23923
843.343	24098
843.479	24007
843.616	23901
843.752	23752
843.889	23942
844.025	23840
844.162	23718
844.298	23843
844.435	23771
844.571	23668
844.708	23843
844.844	23973
844.98	23874
845.117	23916
845.253	23672
845.389	23668
845.525	23687
845.661	23619
845.798	23589
845.934	23547
846.07	23577
846.206	23478
846.342	23646
846.478	23474
846.614	23239
846.75	23079
846.886	23143
847.022	23208
847.158	23170
847.294	23239
847.429	23223
847.565	23216
847.701	23345
847.837	23033
847.972	22961
848.108	23079
848.244	23128
848.379	22831
848.515	22786
848.65	22771
848.786	22786
848.921	22782
849.057	22915
849.192	22908
849.328	22892
849.463	22755
849.598	22812
849.734	22713
849.869	22622
850.004	22538
850.14	22561
850.275	22611
850.41	22459
850.545	22436
850.68	22478
850.815	22550
850.95	22508
851.085	22683
851.22	22820
851.355	22527
851.49	22596
851.625	22508
851.76	22527
851.895	22432
852.03	22466
852.165	22611
852.299	22611
852.434	22580
852.569	22516
852.703	22561
852.838	22626
852.973	22660
853.107	22740
853.242	22569
853.376	22363
853.511	22276
853.645	22295
853.78	22428
853.914	22398
854.048	22337
854.183	22295
854.317	22455
854.451	22626
854.585	22405
854.72	22344
854.854	22371
854.988	22322
855.122	22333
855.256	22211
855.39	22386
855.524	22573
855.658	22409
855.792	22367
855.926	22386
856.06	22417
856.194	22485
856.327	22341
856.461	22394
856.595	22322
856.729	22325
856.862	22512
856.996	22344
857.13	22413
857.263	22405
857.397	22489
857.53	22371
857.664	22440
857.797	22466
857.931	22493
858.064	22421
858.197	22462
858.331	22314
858.464	22371
858.597	22314
858.731	22303
858.864	22356
858.997	22344
859.13	22443
859.263	22462
859.396	22417
859.529	22421
859.662	22337
859.795	22295
859.928	22303
860.061	22630
860.194	22622
860.327	22409
860.46	22493
860.592	22550
860.725	22569
860.858	22489
860.99	22367
861.123	22379
861.256	22246
861.388	22337
861.521	23223
861.653	22230
861.786	22166
861.918	22188
862.05	22272
862.183	22363
862.315	22215
862.447	22432
862.58	22215
862.712	22135
862.844	22040
862.976	22204
863.108	22223
863.24	22596
863.372	22036
863.504	22082
863.636	22078
863.768	22112
863.9	22055
864.032	22013
864.164	22067
864.296	22059
864.428	22154
864.559	22204
864.691	22215
864.823	22078
864.954	22032
865.086	22112
865.217	22048
865.349	21880
865.48	21895
865.612	21968
865.743	22090
865.875	21972
866.006	21956
866.137	22002
866.269	21915
866.4	21922
866.531	21876
866.662	21854
866.793	21987
866.924	21899
867.055	21941
867.186	22040
867.317	21793
867.448	21728
867.579	21857
867.71	21728
867.841	21804
867.972	21876
868.103	21888
868.233	21975
868.364	21945
868.495	22029
868.625	22067
868.756	22169
868.886	22051
869.017	22185
869.147	22238
869.278	22219
869.408	22051
869.539	22211
869.669	22204
869.799	22173
869.929	22261
870.06	22261
870.19	22569
870.32	22352
870.45	22519
870.58	22500
870.71	22622
870.84	22698
870.97	22557
871.1	22478
871.23	22672
871.36	22790
871.489	22622
871.619	22736
871.749	22786
871.879	22755
872.008	22877
872.138	22763
872.267	22801
872.397	22649
872.526	22580
872.656	22519
872.785	22611
872.915	22774
873.044	22816
873.173	22656
873.303	22805
873.432	22782
873.561	22835
873.69	22805
873.819	22771
873.948	22805
874.077	22740
874.206	22790
874.335	22809
874.464	22930
874.593	22995
874.722	22892
874.851	23003
874.979	22991
875.108	22942
875.237	22930
875.365	22957
875.494	22938
875.623	23117
875.751	22965
875.88	22965
876.008	23098
876.136	23197
876.265	23387
876.393	23398
876.521	23482
876.65	23395
876.778	23406
876.906	23417
877.034	23337
877.162	23315
877.29	23250
877.418	23379
877.546	23398
877.674	23341
877.802	23296
877.93	23368
878.058	23326
878.185	23170
878.313	23231
878.441	23326
878.568	23075
878.696	23421
878.824	23368
878.951	23436
879.079	23570
879.206	23433
879.333	23444
879.461	23277
879.588	23368
879.715	23356
879.842	23703
879.97	23406
880.097	23159
880.224	23090
880.351	23208
880.478	23223
880.605	23136
880.732	23140
880.859	23383
880.986	23212
881.112	23136
881.239	23044
881.366	22869
881.493	22831
881.619	22717
881.746	22721
881.872	22774
881.999	22774
882.125	22717
882.252	22839
882.378	22645
882.505	22824
882.631	22615
882.757	22413
882.883	22508
883.01	22413
883.136	22379
883.262	22310
883.388	22223
883.514	22390
883.64	22409
883.766	22318
883.892	22093
884.018	22219
884.143	22265
884.269	22333
884.395	22169
884.52	21972
884.646	22059
884.772	21895
884.897	21918
885.023	22059
885.148	22063
885.274	22169
885.399	22147
885.524	22063
885.65	21987
885.775	22067
885.9	21964
886.025	22078
886.15	22025
886.275	21903
886.4	21953
886.525	21960
886.65	21956
886.775	21911
886.9	22063
887.025	22192
887.149	21892
887.274	21884
887.399	21728
887.523	21766
887.648	21686
887.773	21694
887.897	21797
888.021	21797
888.146	21644
888.27	21941
888.395	21876
888.519	21846
888.643	21854
888.767	21724
888.891	21648
889.015	21625
889.139	21603
889.263	21504
889.387	21793
889.511	21709
889.635	21629
889.759	21523
889.883	21561
890.006	21576
890.13	21682
890.254	21496
890.377	21485
890.501	21336
890.624	21294
890.748	21370
890.871	21157
890.995	21283
891.118	21203
891.241	21146
891.364	21176
891.488	21199
891.611	21131
891.734	21169
891.857	21150
891.98	21138
892.103	21203
892.226	21184
892.349	21066
892.471	21013
892.594	21036
892.717	21066
892.839	21036
892.962	21043
893.085	21180
893.207	21066
893.33	20979
893.452	21047
893.575	21009
893.697	21062
893.819	21203
893.941	21169
894.064	21207
894.186	20895
894.308	20941
894.43	21096
894.552	21058
894.674	21093
894.796	21009
894.918	20986
895.04	20914
895.161	21036
895.283	21070
895.405	20952
895.526	20982
895.648	20975
895.769	21039
895.891	21077
896.012	21135
896.134	21085
896.255	21138
896.376	21024
896.498	21119
896.619	20967
896.74	20998
896.861	21127
896.982	21370
897.103	21515
897.224	21195
897.345	21222
897.466	21081
897.587	21207
897.708	21329
897.828	21298
897.949	21188
898.07	21062
898.19	21184
898.311	21344
898.431	21108
898.552	21226
898.672	21233
898.792	21355
898.913	21291
899.033	21081
899.153	21009
899.273	20937
899.393	21017
899.513	20941
899.633	20979
899.753	20956
899.873	20956
899.993	21005
900.113	20868
900.232	20910
900.352	20796
900.472	20826
900.591	20705
900.711	20731
900.83	20648
900.95	20857
901.069	20777
901.189	20629
901.308	20385
901.427	20271
901.546	20298
901.665	20282
901.784	20290
901.904	20149
902.023	20130
902.141	19944
902.26	19845
902.379	19852
902.498	19704
902.617	19826
902.735	19750
902.854	19830
902.973	19746
903.091	19487
903.21	19430
903.328	19419
903.446	19510
903.565	19324
903.683	19316
903.801	19168
903.919	19297
904.038	19209
904.156	19015
904.274	19088
904.392	18962
904.51	19061
904.627	18981
904.745	19103
904.863	19038
904.981	18779
905.098	18730
905.216	18673
905.334	18688
905.451	18639
905.569	18787
905.686	18703
905.803	18604
905.921	18506
906.038	18582
906.155	18456
906.272	18460
906.389	18464
906.506	18159
906.623	18186
906.74	18194
906.857	18216
906.974	18087
907.091	18300
907.208	18235
907.324	18190
907.441	18053
907.557	18003
907.674	17988
907.79	17855
907.907	17863
908.023	17904
908.139	17847
908.256	17832
908.372	17939
908.488	17805
908.604	17737
908.72	17634
908.836	17642
908.952	17596
909.068	17665
909.184	17691
909.3	17665
909.415	17642
909.531	17604
909.647	17398
909.762	17360
909.878	17277
909.993	17334
910.108	17227
910.224	17299
910.339	17414
910.454	17094
910.57	17102
910.685	17052
910.8	17360
910.915	17246
911.03	16949
911.145	17060
911.259	16847
911.374	16820
911.489	16889
911.604	16786
911.718	16603
911.833	16736
911.947	16645
912.062	16630
912.176	16634
912.291	16717
912.405	16645
912.519	16771
912.633	16801
912.748	16717
912.862	16588
912.976	16546
913.09	16341
913.204	16424
913.318	16538
913.431	16531
913.545	16584
913.659	16554
913.772	16466
913.886	16295
914	16242
914.113	16333
914.226	16363
914.34	16333
914.453	16188
914.566	16223
914.68	16074
914.793	16188
914.906	15975
915.019	15903
915.132	15789
915.245	15831
915.358	15918
915.47	15785
915.583	15899
915.696	15869
915.809	15945
915.921	16097
916.034	15800
916.146	15675
916.259	15679
916.371	15876
916.483	15819
916.595	15656
916.708	15652
916.82	15603
916.932	15644
917.044	15686
917.156	15568
917.268	15526
917.38	15530
917.491	15397
917.603	15469
917.715	15580
917.826	15530
917.938	15336
918.049	15222
918.161	15477
918.272	15481
918.384	15511
918.495	15534
918.606	15195
918.717	15157
918.828	15264
918.939	15306
919.05	15116
919.161	15180
919.272	15005
919.383	15039
919.494	15150
919.604	15363
919.715	15249
919.826	15085
919.936	15169
920.047	15207
920.157	15310
920.267	15355
920.378	15241
920.488	15024
920.598	15272
920.708	15367
920.818	15298
920.928	15252
921.038	15485
921.148	15370
921.258	15074
921.368	15024
921.477	14929
921.587	14933
921.697	14644
921.806	14960
921.916	14842
922.025	14667
922.134	14530
922.244	14560
922.353	14587
922.462	14404
922.571	14332
922.68	14149
922.789	14126
922.898	14183
923.007	14149
923.116	14092
923.224	14035
923.333	14183
923.442	14126
923.55	14012
923.659	13989
923.767	14020
923.876	14016
923.984	14005
924.092	13871
924.201	13944
924.309	13852
924.417	13928
924.525	13818
924.633	13814
924.741	14667
924.849	13655
924.956	13727
925.064	13605
925.172	13499
925.279	13521
925.387	13575
925.494	13502
925.602	13639
925.709	13601
925.816	13552
925.924	13548
926.031	13468
926.138	13476
926.245	13578
926.352	13381
926.459	13514
926.566	13521
926.673	13384
926.779	13270
926.886	13301
926.993	13266
927.099	13110
927.206	13080
927.312	12981
927.419	13118
927.525	13103
927.631	13095
927.737	13004
927.843	12840
927.95	12817
928.056	12856
928.162	13000
928.267	12947
928.373	13441
928.479	12878
928.585	12764
928.69	12863
928.796	12806
928.901	12627
929.007	12616
929.112	12795
929.218	12734
929.323	12585
929.428	12642
929.533	12703
929.638	12517
929.743	12555
929.848	12711
929.953	12551
930.058	12422
930.163	12292
930.267	12311
930.372	12403
930.477	12209
930.581	12422
930.685	12243
930.79	12148
930.894	12163
930.998	12125
931.103	12254
931.207	11889
931.311	11802
931.415	11756
931.519	11524
931.623	11577
