Data from test_V78500241_2458.txt Node
Date: Fri Mar 25 15:58:49 CST 2022
User: usil
Spectrometer: V785-0024
Trigger mode: 0
Integration Time (sec): 4.000000E-1
Scans to average: 1
Nonlinearity correction enabled: false
Boxcar width: 0
Storing dark spectrum: false
XAxis mode: Wavelengths
Number of Pixels in Spectrum: 1024
>>>>>Begin Spectral Data<<<<<
801.071	29143
801.214	28923
801.356	28809
801.499	28790
801.641	28649
801.783	28683
801.926	28641
802.068	28592
802.211	28607
802.353	28603
802.496	28459
802.638	28470
802.78	28322
802.923	28253
803.065	28147
803.208	28295
803.35	28478
803.492	28580
803.635	28577
803.777	28341
803.919	28500
804.061	28942
804.204	28748
804.346	28516
804.488	28459
804.63	28672
804.773	28588
804.915	28653
805.057	28774
805.199	28675
805.341	28828
805.483	28862
805.626	28691
805.768	28637
805.91	28839
806.052	28733
806.194	28733
806.336	28934
806.478	28778
806.62	28660
806.762	29060
806.904	29113
807.046	29296
807.188	29212
807.33	29246
807.472	29395
807.614	29208
807.756	29109
807.898	29124
808.04	28995
808.182	28991
808.324	29292
808.465	29029
808.607	29395
808.749	29524
808.891	29543
809.033	29824
809.174	29661
809.316	29497
809.458	29581
809.6	29531
809.741	29665
809.883	29657
810.025	29851
810.166	29851
810.308	29798
810.45	29760
810.591	29672
810.733	29611
810.875	29543
811.016	29414
811.158	29691
811.299	29748
811.441	29649
811.582	29733
811.724	29558
811.865	29463
812.007	29535
812.148	29497
812.29	29570
812.431	29680
812.573	29950
812.714	29840
812.855	30003
812.997	30091
813.138	30342
813.279	30182
813.421	30095
813.562	29980
813.703	29866
813.845	29828
813.986	29467
814.127	29429
814.268	29299
814.41	29208
814.551	29406
814.692	29254
814.833	29155
814.974	29261
815.115	29265
815.256	29098
815.397	29254
815.539	29181
815.68	28957
815.821	29033
815.962	29159
816.103	29083
816.244	28908
816.385	28896
816.526	28869
816.666	28752
816.807	28542
816.948	28656
817.089	28615
817.23	28630
817.371	28489
817.512	28523
817.653	28615
817.793	28691
817.934	28451
818.075	28607
818.216	28630
818.356	28519
818.497	28565
818.638	28440
818.778	28363
818.919	28348
819.06	28485
819.2	28523
819.341	28421
819.481	28630
819.622	28740
819.762	28995
819.903	28911
820.043	28816
820.184	28694
820.324	28698
820.465	28733
820.605	28831
820.746	28816
820.886	28603
821.026	28687
821.167	28736
821.307	28797
821.447	28618
821.588	28409
821.728	28375
821.868	28268
822.008	28360
822.149	28116
822.289	28029
822.429	27808
822.569	27823
822.709	27682
822.849	27633
822.99	27663
823.13	27393
823.27	27580
823.41	27473
823.55	27412
823.69	27504
823.83	27515
823.97	27462
824.11	27256
824.25	27096
824.389	27180
824.529	27382
824.669	27260
824.809	27382
824.949	27310
825.089	27351
825.228	27283
825.368	27020
825.508	27256
825.648	27047
825.787	27150
825.927	27180
826.067	27043
826.206	27096
826.346	27351
826.485	27268
826.625	27116
826.765	27211
826.904	27138
827.044	26929
827.183	26979
827.323	26872
827.462	26986
827.601	26921
827.741	26872
827.88	26868
828.02	26769
828.159	26796
828.298	26834
828.437	26876
828.577	26541
828.716	26948
828.855	26906
828.994	26473
829.134	26518
829.273	26522
829.412	26415
829.551	26507
829.69	26480
829.829	26514
829.968	26518
830.107	26434
830.246	26389
830.385	26476
830.524	26298
830.663	26294
830.802	26290
830.941	26149
831.08	26062
831.219	26214
831.357	26256
831.496	26290
831.635	26237
831.774	26138
831.913	25955
832.051	25963
832.19	25966
832.329	25849
832.467	25845
832.606	25719
832.744	25814
832.883	25811
833.022	25803
833.16	25765
833.299	25856
833.437	25947
833.576	25845
833.714	25811
833.852	25921
833.991	25921
834.129	25887
834.267	26077
834.406	25841
834.544	25944
834.682	25879
834.821	25826
834.959	26050
835.097	25795
835.235	25928
835.373	25875
835.511	25852
835.65	25655
835.788	25795
835.926	25738
836.064	25582
836.202	25445
836.34	25708
836.478	25791
836.615	25753
836.753	25715
836.891	25742
837.029	25677
837.167	25514
837.305	25624
837.443	25563
837.58	25605
837.718	25479
837.856	25377
837.993	25453
838.131	25525
838.269	25232
838.406	25362
838.544	25339
838.681	25259
838.819	25061
838.956	24970
839.094	24943
839.231	24966
839.369	25259
839.506	25346
839.643	25282
839.781	25015
839.918	25004
840.055	24932
840.193	24996
840.33	24928
840.467	24829
840.604	24882
840.742	24954
840.879	24642
841.016	24798
841.153	24661
841.29	24981
841.427	24939
841.564	24924
841.701	24829
841.838	24749
841.975	24791
842.112	24677
842.249	24673
842.385	24642
842.522	24852
842.659	24604
842.796	24551
842.933	24604
843.069	24719
843.206	24673
843.343	24574
843.479	24654
843.616	24593
843.752	24517
843.889	24270
844.025	24604
844.162	24376
844.298	24418
844.435	24376
844.571	24350
844.708	24509
844.844	24532
844.98	24623
845.117	24616
845.253	24338
845.389	24357
845.525	24197
845.661	24216
845.798	24079
845.934	24201
846.07	24068
846.206	24091
846.342	24399
846.478	24011
846.614	23870
846.75	23882
846.886	23916
847.022	23878
847.158	23824
847.294	23775
847.429	23863
847.565	23832
847.701	23996
847.837	23547
847.972	23505
848.108	23642
848.244	23611
848.379	23463
848.515	23429
848.65	23425
848.786	23452
848.921	23379
849.057	23433
849.192	23592
849.328	23368
849.463	23345
849.598	23383
849.734	23360
849.869	23292
850.004	23311
850.14	23239
850.275	23098
850.41	23174
850.545	23292
850.68	23033
850.815	23185
850.95	23269
851.085	23448
851.22	23239
851.355	23235
851.49	23277
851.625	23166
851.76	23197
851.895	23044
852.03	23098
852.165	23136
852.299	23280
852.434	23307
852.569	23284
852.703	23090
852.838	23113
852.973	23345
853.107	23277
853.242	23208
853.376	23117
853.511	22896
853.645	22938
853.78	23140
853.914	23048
854.048	22953
854.183	22953
854.317	23075
854.451	23227
854.585	22984
854.72	23056
854.854	23056
854.988	22980
855.122	23102
855.256	23041
855.39	22908
855.524	23052
855.658	23083
855.792	23075
855.926	22873
856.06	23086
856.194	22995
856.327	22911
856.461	22915
856.595	22915
856.729	22877
856.862	23128
856.996	23060
857.13	23033
857.263	23098
857.397	23174
857.53	22869
857.664	23102
857.797	23109
857.931	23064
858.064	23022
858.197	23064
858.331	22850
858.464	22984
858.597	22965
858.731	22965
858.864	22976
858.997	23086
859.13	22923
859.263	23014
859.396	22923
859.529	23018
859.662	23029
859.795	22934
859.928	22885
860.061	23003
860.194	23155
860.327	23060
860.46	22961
860.592	23090
860.725	23121
860.858	23178
860.99	23113
861.123	23033
861.256	22877
861.388	23025
861.521	23668
861.653	22774
861.786	22752
861.918	22752
862.05	22976
862.183	22858
862.315	22862
862.447	23048
862.58	22759
862.712	22569
862.844	22645
862.976	22801
863.108	22809
863.24	23006
863.372	22713
863.504	22824
863.636	22736
863.768	22771
863.9	22641
864.032	22755
864.164	22641
864.296	22801
864.428	22812
864.559	22763
864.691	22713
864.823	22782
864.954	22691
865.086	22637
865.217	22561
865.349	22485
865.48	22622
865.612	22577
865.743	22672
865.875	22542
866.006	22546
866.137	22310
866.269	22683
866.4	22557
866.531	22538
866.662	22481
866.793	22459
866.924	22561
867.055	22599
867.186	22493
867.317	22440
867.448	22299
867.579	22333
867.71	22382
867.841	22341
867.972	22538
868.103	22588
868.233	22500
868.364	22580
868.495	22569
868.625	22637
868.756	22835
868.886	22721
869.017	22706
869.147	22839
869.278	22782
869.408	22793
869.539	22736
869.669	22774
869.799	22710
869.929	22896
870.06	22786
870.19	23044
870.32	23079
870.45	23025
870.58	23094
870.71	23174
870.84	23159
870.97	23155
871.1	23132
871.23	23299
871.36	23265
871.489	23269
871.619	23261
871.749	23292
871.879	23433
872.008	23463
872.138	23216
872.267	23341
872.397	23136
872.526	23178
872.656	23060
872.785	23143
872.915	23379
873.044	23345
873.173	23223
873.303	23433
873.432	23448
873.561	23528
873.69	23368
873.819	23436
873.948	23528
874.077	23376
874.206	23261
874.335	23356
874.464	23383
874.593	23691
874.722	23512
874.851	23657
874.979	23680
875.108	23577
875.237	23589
875.365	23505
875.494	23600
875.623	23592
875.751	23615
875.88	23505
876.008	23684
876.136	23642
876.265	23912
876.393	24102
876.521	23954
876.65	24022
876.778	23999
876.906	23908
877.034	23923
877.162	23893
877.29	23813
877.418	23840
877.546	23950
877.674	23920
877.802	23802
877.93	23893
878.058	23832
878.185	23783
878.313	23821
878.441	23863
878.568	23680
878.696	23824
878.824	23874
878.951	24095
879.079	24053
879.206	24228
879.333	23992
879.461	23897
879.588	23935
879.715	24015
879.842	24194
879.97	23969
880.097	23843
880.224	23760
880.351	23794
880.478	23764
880.605	23771
880.732	23630
880.859	23824
880.986	23661
881.112	23737
881.239	23695
881.366	23509
881.493	23322
881.619	23311
881.746	23341
881.872	23235
881.999	23223
882.125	23181
882.252	23200
882.378	23220
882.505	23383
882.631	23162
882.757	22892
882.883	22968
883.01	22957
883.136	22854
883.262	22877
883.388	22706
883.514	23018
883.64	22961
883.766	22961
883.892	22771
884.018	22786
884.143	22885
884.269	23037
884.395	22664
884.52	22573
884.646	22565
884.772	22428
884.897	22428
885.023	22649
885.148	22649
885.274	22679
885.399	22538
885.524	22611
885.65	22588
885.775	22626
885.9	22641
886.025	22679
886.15	22634
886.275	22691
886.4	22512
886.525	22557
886.65	22527
886.775	22569
886.9	22516
887.025	22713
887.149	22615
887.274	22386
887.399	22478
887.523	22344
887.648	22276
887.773	22360
887.897	22394
888.021	22249
888.146	22185
888.27	22436
888.395	22398
888.519	22230
888.643	22333
888.767	22371
888.891	22322
889.015	22059
889.139	22329
889.263	22166
889.387	22265
889.511	22379
889.635	22166
889.759	22173
889.883	22105
890.006	22192
890.13	22097
890.254	21941
890.377	21941
890.501	21880
890.624	21842
890.748	21876
890.871	21781
890.995	21629
891.118	21511
891.241	21709
891.364	21690
891.488	21713
891.611	21781
891.734	21686
891.857	21583
891.98	21667
892.103	21667
892.226	21656
892.349	21545
892.471	21500
892.594	21538
892.717	21652
892.839	21439
892.962	21625
893.085	21580
893.207	21534
893.33	21416
893.452	21458
893.575	21538
893.697	21523
893.819	21747
893.941	21694
894.064	21629
894.186	21515
894.308	21298
894.43	21606
894.552	21637
894.674	21553
894.796	21469
894.918	21344
895.04	21526
895.161	21538
895.283	21606
895.405	21348
895.526	21450
895.648	21496
895.769	21538
895.891	21504
896.012	21530
896.134	21663
896.255	21496
896.376	21450
896.498	21572
896.619	21648
896.74	21519
896.861	21694
896.982	21717
897.103	21930
897.224	21823
897.345	21774
897.466	21625
897.587	21724
897.708	21736
897.828	21751
897.949	21686
898.07	21530
898.19	21675
898.311	21759
898.431	21603
898.552	21762
898.672	21766
898.792	21755
898.913	21682
899.033	21587
899.153	21583
899.273	21424
899.393	21389
899.513	21477
899.633	21386
899.753	21469
899.873	21336
899.993	21469
900.113	21332
900.232	21359
900.352	21317
900.472	21302
900.591	21066
900.711	21195
900.83	21036
900.95	21135
901.069	21336
901.189	21085
901.308	20861
901.427	20720
901.546	20811
901.665	20663
901.784	20765
901.904	20594
902.023	20518
902.141	20301
902.26	20313
902.379	20339
902.498	20259
902.617	20172
902.735	20278
902.854	20084
902.973	20103
903.091	19963
903.21	19940
903.328	19864
903.446	19788
903.565	19700
903.683	19639
903.801	19537
903.919	19582
904.038	19677
904.156	19407
904.274	19499
904.392	19537
904.51	19407
904.627	19453
904.745	19464
904.863	19514
904.981	19274
905.098	19114
905.216	19050
905.334	19152
905.451	19008
905.569	19122
905.686	19228
905.803	19156
905.921	18856
906.038	18924
906.155	18924
906.272	18768
906.389	18745
906.506	18673
906.623	18692
906.74	18627
906.857	18445
906.974	18566
907.091	18612
907.208	18623
907.324	18779
907.441	18513
907.557	18437
907.674	18292
907.79	18266
907.907	18338
908.023	18327
908.139	18407
908.256	18361
908.372	18224
908.488	18178
908.604	17935
908.72	18038
908.836	18114
908.952	17988
909.068	17973
909.184	18060
909.3	18034
909.415	18064
909.531	18019
909.647	17828
909.762	17726
909.878	17760
909.993	17737
910.108	17691
910.224	17691
910.339	17665
910.454	17516
910.57	17638
910.685	17490
910.8	17726
910.915	17687
911.03	17482
911.145	17326
911.259	17303
911.374	17337
911.489	17197
911.604	17223
911.718	17079
911.833	17022
911.947	16915
912.062	16965
912.176	17014
912.291	17071
912.405	16980
912.519	17212
912.633	17121
912.748	17033
912.862	16953
912.976	16828
913.09	16710
913.204	16805
913.318	16889
913.431	16923
913.545	16927
913.659	16908
913.772	16763
913.886	16660
914	16569
914.113	16755
914.226	16805
914.34	16702
914.453	16561
914.566	16710
914.68	16512
914.793	16436
914.906	16318
915.019	16116
915.132	16158
915.245	16246
915.358	16211
915.47	16204
915.583	16249
915.696	16185
915.809	16348
915.921	16204
916.034	16059
916.146	16204
916.259	16036
916.371	16078
916.483	16071
916.595	16017
916.708	16021
916.82	15983
916.932	16036
917.044	15949
917.156	15895
917.268	15876
917.38	15797
917.491	15854
917.603	15819
917.715	15880
917.826	15812
917.938	15774
918.049	15614
918.161	15831
918.272	15842
918.384	15903
918.495	15717
918.606	15545
918.717	15519
918.828	15466
918.939	15595
919.05	15500
919.161	15504
919.272	15287
919.383	15450
919.494	15576
919.604	15713
919.715	15428
919.826	15428
919.936	15435
920.047	15625
920.157	15473
920.267	15686
920.378	15473
920.488	15500
920.598	15682
920.708	15644
920.818	15644
920.928	15622
921.038	15759
921.148	15709
921.258	15477
921.368	15325
921.477	15249
921.587	15180
921.697	15131
921.806	15169
921.916	15047
922.025	14979
922.134	14880
922.244	14762
922.353	14902
922.462	14746
922.571	14602
922.68	14511
922.789	14526
922.898	14446
923.007	14370
923.116	14488
923.224	14495
923.333	14427
923.442	14332
923.55	14225
923.659	14275
923.767	14385
923.876	14206
923.984	14290
924.092	14168
924.201	14237
924.309	14244
924.417	14229
924.525	14065
924.633	14123
924.741	14834
924.849	13879
924.956	14081
925.064	13932
925.172	13902
925.279	13826
925.387	13860
925.494	13795
925.602	13860
925.709	13860
925.816	13776
925.924	13765
926.031	13837
926.138	13780
926.245	13772
926.352	13685
926.459	13849
926.566	13826
926.673	13689
926.779	13495
926.886	13594
926.993	13460
927.099	13324
927.206	13293
927.312	13304
927.419	13362
927.525	13449
927.631	13369
927.737	13293
927.843	13202
927.95	13023
928.056	13179
928.162	13251
928.267	13278
928.373	13890
928.479	13221
928.585	12943
928.69	13107
928.796	13088
928.901	12977
929.007	12875
929.112	12928
929.218	12977
929.323	12882
929.428	12909
929.533	13042
929.638	12837
929.743	12730
929.848	12890
929.953	12806
930.058	12696
930.163	12498
930.267	12578
930.372	12673
930.477	12490
930.581	12753
930.685	12570
930.79	12399
930.894	12517
930.998	12323
931.103	12410
931.207	12201
931.311	12140
931.415	11965
931.519	11863
931.623	11745
