Data from test_V78500241_1508.txt Node
Date: Fri Mar 25 15:52:14 CST 2022
User: usil
Spectrometer: V785-0024
Trigger mode: 0
Integration Time (sec): 4.000000E-1
Scans to average: 1
Nonlinearity correction enabled: false
Boxcar width: 0
Storing dark spectrum: false
XAxis mode: Wavelengths
Number of Pixels in Spectrum: 1024
>>>>>Begin Spectral Data<<<<<
801.071	28078
801.214	28086
801.356	27682
801.499	27781
801.641	27507
801.783	27424
801.926	27587
802.068	27534
802.211	27447
802.353	27298
802.496	27264
802.638	27226
802.78	27294
802.923	27100
803.065	27070
803.208	27161
803.35	27218
803.492	27363
803.635	27386
803.777	27397
803.919	27313
804.061	27747
804.204	27473
804.346	27557
804.488	27226
804.63	27393
804.773	27439
804.915	27477
805.057	27473
805.199	27325
805.341	27485
805.483	27458
805.626	27542
805.768	27420
805.91	27526
806.052	27519
806.194	27545
806.336	27576
806.478	27549
806.62	27622
806.762	27808
806.904	27857
807.046	28055
807.188	28021
807.33	27979
807.472	27876
807.614	27979
807.756	27956
807.898	27819
808.04	27895
808.182	27724
808.324	27876
808.465	27759
808.607	28109
808.749	27968
808.891	28261
809.033	28265
809.174	28261
809.316	28147
809.458	28249
809.6	28204
809.741	28333
809.883	28261
810.025	28546
810.166	28436
810.308	28542
810.45	28561
810.591	28356
810.733	28234
810.875	28093
811.016	28055
811.158	28040
811.299	28261
811.441	28329
811.582	28333
811.724	28120
811.865	28139
812.007	28166
812.148	28147
812.29	28249
812.431	28394
812.573	28527
812.714	28565
812.855	28687
812.997	28816
813.138	28927
813.279	28759
813.421	28554
813.562	28763
813.703	28432
813.845	28356
813.986	28059
814.127	28021
814.268	27819
814.41	27895
814.551	27842
814.692	27861
814.833	27793
814.974	27705
815.115	27823
815.256	27724
815.397	27675
815.539	27785
815.68	27599
815.821	27477
815.962	27732
816.103	27766
816.244	27599
816.385	27462
816.526	27466
816.666	27317
816.807	27100
816.948	27157
817.089	27195
817.23	27169
817.371	27112
817.512	27306
817.653	27131
817.793	27096
817.934	27230
818.075	27237
818.216	27138
818.356	27005
818.497	27119
818.638	27009
818.778	27032
818.919	26952
819.06	26990
819.2	27066
819.341	27013
819.481	27241
819.622	27317
819.762	27591
819.903	27458
820.043	27268
820.184	27192
820.324	27184
820.465	27249
820.605	27329
820.746	27310
820.886	27032
821.026	27116
821.167	27112
821.307	27386
821.447	27226
821.588	27112
821.728	26914
821.868	26952
822.008	26636
822.149	26678
822.289	26552
822.429	26400
822.569	26191
822.709	26263
822.849	26168
822.99	26100
823.13	26065
823.27	26168
823.41	25997
823.55	25811
823.69	25959
823.83	25974
823.97	25852
824.11	25841
824.25	25799
824.389	25651
824.529	26020
824.669	25875
824.809	25818
824.949	25849
825.089	25818
825.228	25860
825.368	25529
825.508	25540
825.648	25624
825.787	25674
825.927	25746
826.067	25510
826.206	25616
826.346	25700
826.485	25734
826.625	25613
826.765	25742
826.904	25613
827.044	25381
827.183	25441
827.323	25320
827.462	25316
827.601	25430
827.741	25259
827.88	25285
828.02	25293
828.159	25339
828.298	25426
828.437	25457
828.577	25365
828.716	25430
828.855	25365
828.994	25095
829.134	25053
829.273	25088
829.412	24973
829.551	25091
829.69	25031
829.829	25000
829.968	25133
830.107	25133
830.246	24985
830.385	24935
830.524	24856
830.663	24894
830.802	24905
830.941	24578
831.08	24673
831.219	24772
831.357	24669
831.496	24829
831.635	24642
831.774	24616
831.913	24597
832.051	24391
832.19	24353
832.329	24395
832.467	24399
832.606	24251
832.744	24346
832.883	24216
833.022	24315
833.16	24327
833.299	24350
833.437	24414
833.576	24502
833.714	24361
833.852	24502
833.991	24388
834.129	24391
834.267	24388
834.406	24372
834.544	24414
834.682	24422
834.821	24433
834.959	24681
835.097	24353
835.235	24448
835.373	24399
835.511	24300
835.65	24380
835.788	24209
835.926	23988
836.064	23992
836.202	24114
836.34	24281
836.478	24197
836.615	24091
836.753	24178
836.891	24232
837.029	24125
837.167	24121
837.305	24087
837.443	24117
837.58	24011
837.718	24152
837.856	24064
837.993	23980
838.131	23984
838.269	23950
838.406	23996
838.544	23980
838.681	23630
838.819	23756
838.956	23459
839.094	23528
839.231	23558
839.369	23596
839.506	23950
839.643	23737
839.781	23562
839.918	23444
840.055	23490
840.193	23406
840.33	23497
840.467	23490
840.604	23364
840.742	23798
840.879	23292
841.016	23391
841.153	23330
841.29	23505
841.427	23490
841.564	23501
841.701	23383
841.838	23387
841.975	23292
842.112	23349
842.249	23284
842.385	23315
842.522	23364
842.659	23376
842.796	23212
842.933	23235
843.069	23162
843.206	23200
843.343	23174
843.479	23315
843.616	23174
843.752	22942
843.889	23003
844.025	23048
844.162	22843
844.298	22930
844.435	22923
844.571	22938
844.708	22946
844.844	23143
844.98	23136
845.117	23056
845.253	22847
845.389	22702
845.525	22862
845.661	22847
845.798	22717
845.934	22801
846.07	22584
846.206	22706
846.342	22752
846.478	22588
846.614	22561
846.75	22333
846.886	22348
847.022	22531
847.158	22417
847.294	22474
847.429	22363
847.565	22333
847.701	22656
847.837	22147
847.972	22188
848.108	22249
848.244	22299
848.379	22074
848.515	21941
848.65	21918
848.786	21922
848.921	22109
849.057	22166
849.192	22101
849.328	21949
849.463	22032
849.598	21930
849.734	21903
849.869	21789
850.004	21835
850.14	21850
850.275	21827
850.41	21671
850.545	21739
850.68	21660
850.815	21880
850.95	21869
851.085	21987
851.22	21930
851.355	21724
851.49	21713
851.625	21629
851.76	21861
851.895	21660
852.03	21724
852.165	21800
852.299	21797
852.434	21941
852.569	21751
852.703	21827
852.838	21854
852.973	21903
853.107	21907
853.242	21720
853.376	21583
853.511	21412
853.645	21473
853.78	21542
853.914	21614
854.048	21599
854.183	21572
854.317	21717
854.451	21766
854.585	21568
854.72	21500
854.854	21660
854.988	21519
855.122	21606
855.256	21420
855.39	21675
855.524	21736
855.658	21759
855.792	21732
855.926	21614
856.06	21625
856.194	21648
856.327	21557
856.461	21587
856.595	21553
856.729	21599
856.862	21709
856.996	21682
857.13	21656
857.263	21732
857.397	21808
857.53	21496
857.664	21625
857.797	21618
857.931	21739
858.064	21671
858.197	21652
858.331	21469
858.464	21538
858.597	21549
858.731	21515
858.864	21564
858.997	21606
859.13	21694
859.263	21720
859.396	21690
859.529	21637
859.662	21591
859.795	21538
859.928	21637
860.061	21663
860.194	21778
860.327	21599
860.46	21515
860.592	21660
860.725	21842
860.858	21793
860.99	21557
861.123	21458
861.256	21568
861.388	21644
861.521	22086
861.653	21420
861.786	21466
861.918	21504
862.05	21469
862.183	21504
862.315	21511
862.447	21644
862.58	21458
862.712	21313
862.844	21241
862.976	21473
863.108	21329
863.24	21892
863.372	21389
863.504	21310
863.636	21306
863.768	21329
863.9	21382
864.032	21199
864.164	21317
864.296	21302
864.428	21462
864.559	21405
864.691	21291
864.823	21310
864.954	21329
865.086	21279
865.217	21367
865.349	21013
865.48	21222
865.612	21264
865.743	21393
865.875	21184
866.006	21154
866.137	21241
866.269	21214
866.4	21199
866.531	21123
866.662	21138
866.793	21146
866.924	21077
867.055	21116
867.186	21116
867.317	21047
867.448	20982
867.579	21085
867.71	20986
867.841	20960
867.972	21093
868.103	21199
868.233	21192
868.364	20986
868.495	21135
868.625	21256
868.756	21340
868.886	21351
869.017	21287
869.147	21523
869.278	21454
869.408	21401
869.539	21363
869.669	21466
869.799	21458
869.929	21458
870.06	21382
870.19	21633
870.32	21679
870.45	21663
870.58	21709
870.71	21827
870.84	21789
870.97	21663
871.1	21755
871.23	21846
871.36	21934
871.489	21941
871.619	22032
871.749	21987
871.879	21979
872.008	22059
872.138	22109
872.267	21869
872.397	21842
872.526	21766
872.656	21934
872.785	21911
872.915	21831
873.044	22177
873.173	22070
873.303	22128
873.432	22135
873.561	22082
873.69	22021
873.819	22070
873.948	22116
874.077	22131
874.206	21949
874.335	22067
874.464	22082
874.593	22207
874.722	22196
874.851	22249
874.979	22249
875.108	22390
875.237	22226
875.365	22048
875.494	22295
875.623	22230
875.751	22188
875.88	22177
876.008	22436
876.136	22440
876.265	22603
876.393	22748
876.521	22759
876.65	22672
876.778	22622
876.906	22584
877.034	22546
877.162	22588
877.29	22478
877.418	22493
877.546	22535
877.674	22440
877.802	22584
877.93	22550
878.058	22462
878.185	22421
878.313	22402
878.441	22580
878.568	22348
878.696	22588
878.824	22565
878.951	22683
879.079	22744
879.206	22835
879.333	22767
879.461	22508
879.588	22512
879.715	22687
879.842	22885
879.97	22725
880.097	22478
880.224	22405
880.351	22455
880.478	22508
880.605	22333
880.732	22398
880.859	22599
880.986	22519
881.112	22436
881.239	22207
881.366	22147
881.493	22139
881.619	22013
881.746	21945
881.872	22013
881.999	22013
882.125	21930
882.252	21991
882.378	21865
882.505	22002
882.631	21797
882.757	21633
882.883	21774
883.01	21720
883.136	21553
883.262	21473
883.388	21648
883.514	21591
883.64	21625
883.766	21542
883.892	21443
884.018	21378
884.143	21587
884.269	21671
884.395	21382
884.52	21226
884.646	21317
884.772	21378
884.897	21218
885.023	21313
885.148	21485
885.274	21340
885.399	21359
885.524	21351
885.65	21279
885.775	21329
885.9	21306
886.025	21329
886.15	21313
886.275	21272
886.4	21184
886.525	21378
886.65	21169
886.775	21245
886.9	21370
887.025	21469
887.149	21275
887.274	21112
887.399	20979
887.523	21039
887.648	20979
887.773	21001
887.897	21188
888.021	21074
888.146	20910
888.27	21062
888.395	21154
888.519	21017
888.643	21089
888.767	21066
888.891	20933
889.015	20948
889.139	20785
889.263	20731
889.387	20960
889.511	20960
889.635	21100
889.759	20804
889.883	20697
890.006	20781
890.13	21024
890.254	20788
890.377	20845
890.501	20762
890.624	20583
890.748	20712
890.871	20587
890.995	20446
891.118	20400
891.241	20336
891.364	20518
891.488	20609
891.611	20533
891.734	20511
891.857	20511
891.98	20434
892.103	20575
892.226	20480
892.349	20408
892.471	20248
892.594	20351
892.717	20313
892.839	20180
892.962	20343
893.085	20438
893.207	20229
893.33	20183
893.452	20149
893.575	20396
893.697	20313
893.819	20492
893.941	20556
894.064	20389
894.186	20290
894.308	20225
894.43	20393
894.552	20461
894.674	20438
894.796	20256
894.918	20199
895.04	20275
895.161	20351
895.283	20431
895.405	20317
895.526	20271
895.648	20240
895.769	20324
895.891	20336
896.012	20438
896.134	20381
896.255	20332
896.376	20225
896.498	20351
896.619	20374
896.74	20263
896.861	20343
896.982	20598
897.103	20731
897.224	20583
897.345	20606
897.466	20511
897.587	20541
897.708	20495
897.828	20434
897.949	20400
898.07	20377
898.19	20461
898.311	20560
898.431	20488
898.552	20556
898.672	20606
898.792	20659
898.913	20674
899.033	20511
899.153	20317
899.273	20324
899.393	20305
899.513	20336
899.633	20271
899.753	20286
899.873	20275
899.993	20248
900.113	20218
900.232	20256
900.352	20142
900.472	20183
900.591	20031
900.711	20016
900.83	19997
900.95	20233
901.069	20031
901.189	19928
901.308	19750
901.427	19578
901.546	19712
901.665	19674
901.784	19647
901.904	19533
902.023	19407
902.141	19198
902.26	19133
902.379	19297
902.498	19209
902.617	19164
902.735	19228
902.854	19091
902.973	19107
903.091	18852
903.21	18871
903.328	18776
903.446	18684
903.565	18509
903.683	18627
903.801	18464
903.919	18574
904.038	18563
904.156	18448
904.274	18498
904.392	18407
904.51	18426
904.627	18414
904.745	18422
904.863	18403
904.981	18224
905.098	18133
905.216	18022
905.334	18129
905.451	18064
905.569	17961
905.686	18121
905.803	18095
905.921	17756
906.038	17969
906.155	17885
906.272	17710
906.389	17779
906.506	17528
906.623	17535
906.74	17600
906.857	17334
906.974	17448
907.091	17661
907.208	17737
907.324	17707
907.441	17482
907.557	17417
907.674	17265
907.79	17151
907.907	17322
908.023	17341
908.139	17341
908.256	17193
908.372	17208
908.488	17128
908.604	17041
908.72	16980
908.836	17075
908.952	16995
909.068	17136
909.184	17086
909.3	17010
909.415	17075
909.531	16961
909.647	16710
909.762	16763
909.878	16675
909.993	16839
910.108	16649
910.224	16668
910.339	16607
910.454	16523
910.57	16466
910.685	16440
910.8	16672
910.915	16603
911.03	16584
911.145	16432
911.259	16417
911.374	16333
911.489	16291
911.604	16093
911.718	16086
911.833	16090
911.947	15983
912.062	15934
912.176	16116
912.291	16116
912.405	16078
912.519	16280
912.633	16299
912.748	16032
912.862	16055
912.976	15869
913.09	15675
913.204	15835
913.318	15831
913.431	15964
913.545	15983
913.659	15987
913.772	15804
913.886	15709
914	15629
914.113	15804
914.226	15785
914.34	15698
914.453	15466
914.566	15648
914.68	15656
914.793	15408
914.906	15310
915.019	15275
915.132	15252
915.245	15298
915.358	15313
915.47	15325
915.583	15275
915.696	15279
915.809	15439
915.921	15492
916.034	15222
916.146	15131
916.259	15135
916.371	15218
916.483	15146
916.595	15097
916.708	15195
916.82	15119
916.932	15119
917.044	15039
917.156	14982
917.268	15001
917.38	14967
917.491	14971
917.603	14967
917.715	14921
917.826	14998
917.938	14792
918.049	14689
918.161	14853
918.272	14982
918.384	14994
918.495	14899
918.606	14811
918.717	14731
918.828	14693
918.939	14716
919.05	14670
919.161	14663
919.272	14476
919.383	14526
919.494	14739
919.604	14853
919.715	14777
919.826	14564
919.936	14678
920.047	14758
920.157	14716
920.267	14777
920.378	14670
920.488	14480
920.598	14830
920.708	14941
920.818	14834
920.928	14769
921.038	14918
921.148	14899
921.258	14610
921.368	14446
921.477	14480
921.587	14396
921.697	14237
921.806	14351
921.916	14317
922.025	14035
922.134	13989
922.244	14001
922.353	14035
922.462	13944
922.571	13799
922.68	13719
922.789	13632
922.898	13578
923.007	13639
923.116	13734
923.224	13662
923.333	13670
923.442	13499
923.55	13483
923.659	13529
923.767	13514
923.876	13407
923.984	13472
924.092	13331
924.201	13449
924.309	13411
924.417	13384
924.525	13304
924.633	13320
924.741	14206
924.849	13118
924.956	13274
925.064	13072
925.172	12977
925.279	13023
925.387	13103
925.494	13088
925.602	13221
925.709	13065
925.816	12962
925.924	12977
926.031	13076
926.138	12966
926.245	12977
926.352	12901
926.459	13008
926.566	13152
926.673	12909
926.779	12806
926.886	12806
926.993	12635
927.099	12536
927.206	12635
927.312	12608
927.419	12707
927.525	12601
927.631	12662
927.737	12479
927.843	12445
927.95	12308
928.056	12414
928.162	12467
928.267	12494
928.373	13110
928.479	12452
928.585	12209
928.69	12388
928.796	12490
928.901	12327
929.007	12201
929.112	12262
929.218	12228
929.323	12182
929.428	12106
929.533	12338
929.638	12011
929.743	12125
929.848	12121
929.953	12038
930.058	11988
930.163	11904
930.267	11885
930.372	11988
930.477	11794
930.581	12022
930.685	11939
930.79	11802
930.894	11771
930.998	11676
931.103	11912
931.207	11535
931.311	11379
931.415	11353
931.519	11060
931.623	11132
