Data from test_V78500241_2360.txt Node
Date: Fri Mar 25 15:58:08 CST 2022
User: usil
Spectrometer: V785-0024
Trigger mode: 0
Integration Time (sec): 4.000000E-1
Scans to average: 1
Nonlinearity correction enabled: false
Boxcar width: 0
Storing dark spectrum: false
XAxis mode: Wavelengths
Number of Pixels in Spectrum: 1024
>>>>>Begin Spectral Data<<<<<
801.071	28927
801.214	28938
801.356	28801
801.499	28668
801.641	28664
801.783	28611
801.926	28694
802.068	28557
802.211	28596
802.353	28546
802.496	28413
802.638	28329
802.78	28363
802.923	28249
803.065	28242
803.208	28242
803.35	28401
803.492	28481
803.635	28519
803.777	28401
803.919	28550
804.061	28805
804.204	28645
804.346	28580
804.488	28527
804.63	28672
804.773	28523
804.915	28607
805.057	28721
805.199	28459
805.341	28626
805.483	28828
805.626	28733
805.768	28672
805.91	28759
806.052	28869
806.194	28733
806.336	28820
806.478	28809
806.62	28782
806.762	28850
806.904	28999
807.046	29349
807.188	29086
807.33	29284
807.472	29383
807.614	29166
807.756	29200
807.898	29064
808.04	28858
808.182	28984
808.324	29189
808.465	29159
808.607	29284
808.749	29512
808.891	29649
809.033	29619
809.174	29592
809.316	29360
809.458	29372
809.6	29383
809.741	29646
809.883	29630
810.025	29680
810.166	29737
810.308	29771
810.45	29783
810.591	29649
810.733	29505
810.875	29383
811.016	29459
811.158	29379
811.299	29558
811.441	29630
811.582	29676
811.724	29448
811.865	29478
812.007	29429
812.148	29474
812.29	29562
812.431	29748
812.573	29775
812.714	29931
812.855	30068
812.997	30064
813.138	30273
813.279	30125
813.421	29950
813.562	29996
813.703	29912
813.845	29649
813.986	29551
814.127	29280
814.268	29136
814.41	29292
814.551	29181
814.692	29162
814.833	29181
814.974	29216
815.115	29231
815.256	29109
815.397	29079
815.539	28999
815.68	29098
815.821	28873
815.962	28995
816.103	28896
816.244	28911
816.385	28763
816.526	28790
816.666	28736
816.807	28436
816.948	28679
817.089	28641
817.23	28626
817.371	28557
817.512	28542
817.653	28447
817.793	28459
817.934	28519
818.075	28489
818.216	28599
818.356	28500
818.497	28432
818.638	28284
818.778	28242
818.919	28215
819.06	28322
819.2	28451
819.341	28481
819.481	28500
819.622	28850
819.762	28957
819.903	28767
820.043	28649
820.184	28618
820.324	28694
820.465	28835
820.605	28691
820.746	28519
820.886	28710
821.026	28626
821.167	28577
821.307	28793
821.447	28485
821.588	28519
821.728	28375
821.868	28169
822.008	28105
822.149	28021
822.289	28238
822.429	27690
822.569	27736
822.709	27717
822.849	27606
822.99	27526
823.13	27496
823.27	27538
823.41	27374
823.55	27336
823.69	27370
823.83	27393
823.97	27230
824.11	27142
824.25	27100
824.389	27268
824.529	27321
824.669	27150
824.809	27416
824.949	27180
825.089	27363
825.228	27249
825.368	27089
825.508	26986
825.648	26990
825.787	27062
825.927	27096
826.067	26982
826.206	26986
826.346	27146
826.485	27108
826.625	27043
826.765	27188
826.904	27039
827.044	26933
827.183	26838
827.323	26868
827.462	26925
827.601	26857
827.741	26925
827.88	26929
828.02	26693
828.159	26823
828.298	26762
828.437	26872
828.577	26861
828.716	26910
828.855	26727
828.994	26393
829.134	26423
829.273	26442
829.412	26415
829.551	26434
829.69	26644
829.829	26450
829.968	26469
830.107	26533
830.246	26396
830.385	26370
830.524	26423
830.663	26377
830.802	26115
830.941	26183
831.08	26111
831.219	26206
831.357	26046
831.496	26248
831.635	26054
831.774	26069
831.913	25955
832.051	25890
832.19	25868
832.329	25928
832.467	25875
832.606	25666
832.744	25772
832.883	25734
833.022	25780
833.16	25658
833.299	25715
833.437	25791
833.576	25833
833.714	25887
833.852	25864
833.991	25837
834.129	25803
834.267	25928
834.406	25887
834.544	25780
834.682	25887
834.821	25807
834.959	25963
835.097	25841
835.235	25696
835.373	25765
835.511	25769
835.65	25655
835.788	25647
835.926	25559
836.064	25472
836.202	25521
836.34	25563
836.478	25666
836.615	25643
836.753	25586
836.891	25651
837.029	25647
837.167	25609
837.305	25689
837.443	25445
837.58	25396
837.718	25495
837.856	25392
837.993	25422
838.131	25483
838.269	25270
838.406	25278
838.544	25247
838.681	25015
838.819	25084
838.956	24977
839.094	24837
839.231	24920
839.369	25080
839.506	25209
839.643	25057
839.781	24886
839.918	24749
840.055	24844
840.193	24829
840.33	24791
840.467	24734
840.604	24821
840.742	25015
840.879	24654
841.016	24627
841.153	24639
841.29	24905
841.427	24844
841.564	24814
841.701	24886
841.838	24821
841.975	24654
842.112	24757
842.249	24703
842.385	24608
842.522	24688
842.659	24673
842.796	24475
842.933	24570
843.069	24559
843.206	24483
843.343	24627
843.479	24627
843.616	24566
843.752	24342
843.889	24289
844.025	24509
844.162	24296
844.298	24475
844.435	24330
844.571	24308
844.708	24426
844.844	24494
844.98	24528
845.117	24426
845.253	24330
845.389	24281
845.525	24254
845.661	24159
845.798	24167
845.934	24133
846.07	24068
846.206	24083
846.342	24327
846.478	24095
846.614	23794
846.75	23680
846.886	23760
847.022	23874
847.158	23775
847.294	23779
847.429	23771
847.565	23783
847.701	24121
847.837	23497
847.972	23444
848.108	23608
848.244	23604
848.379	23368
848.515	23406
848.65	23353
848.786	23368
848.921	23376
849.057	23524
849.192	23452
849.328	23349
849.463	23372
849.598	23368
849.734	23216
849.869	23220
850.004	23143
850.14	23147
850.275	23174
850.41	23029
850.545	23033
850.68	23121
850.815	23197
850.95	23090
851.085	23307
851.22	23197
851.355	23143
851.49	23067
851.625	23075
851.76	23048
851.895	23014
852.03	23029
852.165	23079
852.299	23037
852.434	23265
852.569	23193
852.703	23147
852.838	23174
852.973	23250
853.107	23193
853.242	23086
853.376	22896
853.511	22904
853.645	22980
853.78	23086
853.914	22923
854.048	23048
854.183	22919
854.317	22972
854.451	23200
854.585	22965
854.72	22877
854.854	23083
854.988	22858
855.122	22965
855.256	22805
855.39	22995
855.524	22984
855.658	22999
855.792	22923
855.926	22915
856.06	22972
856.194	23025
856.327	23006
856.461	22885
856.595	22858
856.729	23014
856.862	23029
856.996	23044
857.13	23037
857.263	22972
857.397	23022
857.53	22953
857.664	22991
857.797	23056
857.931	22972
858.064	23022
858.197	23033
858.331	22980
858.464	22774
858.597	22755
858.731	22862
858.864	22987
858.997	22839
859.13	22930
859.263	22919
859.396	23090
859.529	22873
859.662	22858
859.795	22869
859.928	22953
860.061	23071
860.194	23136
860.327	23132
860.46	22877
860.592	23223
860.725	23083
860.858	23136
860.99	22873
861.123	22896
861.256	22904
861.388	22961
861.521	23680
861.653	22953
861.786	22729
861.918	22752
862.05	22850
862.183	22793
862.315	22949
862.447	22930
862.58	22843
862.712	22577
862.844	22603
862.976	22721
863.108	22694
863.24	23090
863.372	22554
863.504	22630
863.636	22592
863.768	22729
863.9	22611
864.032	22607
864.164	22653
864.296	22603
864.428	22786
864.559	22793
864.691	22664
864.823	22634
864.954	22626
865.086	22729
865.217	22531
865.349	22443
865.48	22542
865.612	22481
865.743	22637
865.875	22519
866.006	22577
866.137	22516
866.269	22470
866.4	22489
866.531	22455
866.662	22424
866.793	22382
866.924	22409
867.055	22481
867.186	22432
867.317	22512
867.448	22246
867.579	22443
867.71	22230
867.841	22394
867.972	22398
868.103	22489
868.233	22432
868.364	22466
868.495	22497
868.625	22607
868.756	22687
868.886	22630
869.017	22713
869.147	22752
869.278	22782
869.408	22675
869.539	22630
869.669	22634
869.799	22679
869.929	22748
870.06	22729
870.19	22946
870.32	22881
870.45	23022
870.58	23018
870.71	23220
870.84	23064
870.97	23075
871.1	23083
871.23	23292
871.36	23273
871.489	23132
871.619	23322
871.749	23235
871.879	23330
872.008	23425
872.138	23330
872.267	23220
872.397	23250
872.526	22965
872.656	23216
872.785	23105
872.915	23341
873.044	23444
873.173	23288
873.303	23353
873.432	23337
873.561	23360
873.69	23258
873.819	23280
873.948	23398
874.077	23265
874.206	23200
874.335	23356
874.464	23387
874.593	23551
874.722	23474
874.851	23642
874.979	23486
875.108	23661
875.237	23372
875.365	23326
875.494	23402
875.623	23551
875.751	23543
875.88	23512
876.008	23661
876.136	23714
876.265	23840
876.393	23996
876.521	23999
876.65	23912
876.778	23760
876.906	23767
877.034	23889
877.162	23824
877.29	23775
877.418	23783
877.546	23904
877.674	23813
877.802	23771
877.93	23680
878.058	23939
878.185	23737
878.313	23851
878.441	23813
878.568	23745
878.696	23634
878.824	23786
878.951	23904
879.079	24018
879.206	24121
879.333	24030
879.461	23821
879.588	23950
879.715	23847
879.842	24072
879.97	23847
880.097	23726
880.224	23710
880.351	23752
880.478	23558
880.605	23737
880.732	23581
880.859	23863
880.986	23531
881.112	23665
881.239	23467
881.366	23379
881.493	23383
881.619	23261
881.746	23284
881.872	23296
881.999	23242
882.125	23159
882.252	23242
882.378	23121
882.505	23322
882.631	23029
882.757	22869
882.883	23018
883.01	22866
883.136	22828
883.262	22744
883.388	22656
883.514	22892
883.64	22949
883.766	22934
883.892	22615
884.018	22634
884.143	22820
884.269	22953
884.395	22584
884.52	22432
884.646	22607
884.772	22417
884.897	22360
885.023	22493
885.148	22561
885.274	22660
885.399	22588
885.524	22512
885.65	22516
885.775	22489
885.9	22481
886.025	22580
886.15	22554
886.275	22459
886.4	22322
886.525	22447
886.65	22379
886.775	22607
886.9	22611
887.025	22721
887.149	22573
887.274	22185
887.399	22272
887.523	22166
887.648	22162
887.773	22162
887.897	22379
888.021	22261
888.146	22154
888.27	22291
888.395	22337
888.519	22226
888.643	22287
888.767	22169
888.891	22192
889.015	22021
889.139	22010
889.263	22021
889.387	22112
889.511	22322
889.635	22268
889.759	22048
889.883	21991
890.006	22032
890.13	22112
890.254	21956
890.377	22017
890.501	21751
890.624	21701
890.748	21808
890.871	21698
890.995	21561
891.118	21587
891.241	21564
891.364	21542
891.488	21652
891.611	21549
891.734	21652
891.857	21660
891.98	21656
892.103	21591
892.226	21504
892.349	21454
892.471	21401
892.594	21374
892.717	21564
892.839	21549
892.962	21496
893.085	21420
893.207	21591
893.33	21378
893.452	21431
893.575	21576
893.697	21424
893.819	21614
893.941	21705
894.064	21686
894.186	21416
894.308	21405
894.43	21599
894.552	21614
894.674	21561
894.796	21302
894.918	21485
895.04	21397
895.161	21583
895.283	21492
895.405	21298
895.526	21431
895.648	21469
895.769	21393
895.891	21462
896.012	21530
896.134	21564
896.255	21393
896.376	21279
896.498	21287
896.619	21511
896.74	21580
896.861	21488
896.982	21827
897.103	21831
897.224	21610
897.345	21545
897.466	21644
897.587	21656
897.708	21755
897.828	21743
897.949	21648
898.07	21481
898.19	21500
898.311	21595
898.431	21534
898.552	21698
898.672	21675
898.792	21720
898.913	21587
899.033	21469
899.153	21492
899.273	21340
899.393	21321
899.513	21481
899.633	21226
899.753	21275
899.873	21283
899.993	21374
900.113	21397
900.232	21405
900.352	21336
900.472	21184
900.591	21036
900.711	21184
900.83	21066
900.95	21256
901.069	21195
901.189	21039
901.308	20735
901.427	20594
901.546	20609
901.665	20697
901.784	20781
901.904	20541
902.023	20381
902.141	20347
902.26	20233
902.379	20168
902.498	20122
902.617	20225
902.735	20225
902.854	20180
902.973	20122
903.091	19879
903.21	19849
903.328	19868
903.446	19757
903.565	19685
903.683	19693
903.801	19510
903.919	19643
904.038	19613
904.156	19434
904.274	19312
904.392	19396
904.51	19419
904.627	19327
904.745	19438
904.863	19525
904.981	19240
905.098	19084
905.216	19027
905.334	19133
905.451	19034
905.569	19034
905.686	19076
905.803	19031
905.921	18779
906.038	18890
906.155	18894
906.272	18684
906.389	18749
906.506	18654
906.623	18616
906.74	18502
906.857	18433
906.974	18582
907.091	18593
907.208	18703
907.324	18585
907.441	18429
907.557	18254
907.674	18311
907.79	18243
907.907	18247
908.023	18247
908.139	18251
908.256	18247
908.372	18114
908.488	18155
908.604	18053
908.72	17977
908.836	18011
908.952	17977
909.068	18034
909.184	18136
909.3	17901
909.415	18079
909.531	17980
909.647	17866
909.762	17665
909.878	17581
909.993	17695
910.108	17600
910.224	17623
910.339	17623
910.454	17554
910.57	17528
910.685	17376
910.8	17646
910.915	17547
911.03	17478
911.145	17395
911.259	17242
911.374	17292
911.489	17200
911.604	17174
911.718	17045
911.833	17018
911.947	16843
912.062	16790
912.176	16984
912.291	16961
912.405	16915
912.519	17200
912.633	17136
912.748	16949
912.862	17014
912.976	16744
913.09	16675
913.204	16847
913.318	16862
913.431	16786
913.545	16797
913.659	16843
913.772	16786
913.886	16706
914	16538
914.113	16615
914.226	16771
914.34	16645
914.453	16421
914.566	16668
914.68	16462
914.793	16382
914.906	16226
915.019	16215
915.132	16093
915.245	16223
915.358	16196
915.47	16021
915.583	16143
915.696	16059
915.809	16230
915.921	16303
916.034	16150
916.146	16010
916.259	16131
916.371	16067
916.483	16074
916.595	16036
916.708	16029
916.82	15941
916.932	15994
917.044	15918
917.156	15850
917.268	15819
917.38	15770
917.491	15774
917.603	15762
917.715	15762
917.826	15766
917.938	15701
918.049	15584
918.161	15766
918.272	15869
918.384	15778
918.495	15622
918.606	15511
918.717	15424
918.828	15568
918.939	15595
919.05	15526
919.161	15481
919.272	15279
919.383	15393
919.494	15652
919.604	15686
919.715	15469
919.826	15428
919.936	15405
920.047	15557
920.157	15447
920.267	15568
920.378	15450
920.488	15340
920.598	15644
920.708	15759
920.818	15542
920.928	15568
921.038	15717
921.148	15637
921.258	15275
921.368	15272
921.477	15268
921.587	15157
921.697	15100
921.806	15169
921.916	14952
922.025	14785
922.134	14792
922.244	14682
922.353	14857
922.462	14625
922.571	14640
922.68	14518
922.789	14473
922.898	14328
923.007	14362
923.116	14488
923.224	14370
923.333	14393
923.442	14336
923.55	14252
923.659	14286
923.767	14290
923.876	14206
923.984	14294
924.092	14233
924.201	14187
924.309	14206
924.417	14153
924.525	14054
924.633	14031
924.741	15013
924.849	13898
924.956	14035
925.064	13765
925.172	13689
925.279	13860
925.387	13746
925.494	13753
925.602	13864
925.709	13852
925.816	13719
925.924	13666
926.031	13799
926.138	13776
926.245	13795
926.352	13582
926.459	13693
926.566	13750
926.673	13704
926.779	13544
926.886	13609
926.993	13381
927.099	13365
927.206	13316
927.312	13278
927.419	13407
927.525	13362
927.631	13343
927.737	13240
927.843	13129
927.95	13019
928.056	13141
928.162	13137
928.267	13259
928.373	13772
928.479	13145
928.585	12989
928.69	13027
928.796	13069
928.901	12966
929.007	12825
929.112	12935
929.218	12924
929.323	12894
929.428	12871
929.533	12947
929.638	12802
929.743	12825
929.848	12829
929.953	12852
930.058	12627
930.163	12601
930.267	12551
930.372	12696
930.477	12483
930.581	12684
930.685	12566
930.79	12330
930.894	12498
930.998	12369
931.103	12498
931.207	12083
931.311	12030
931.415	11855
931.519	11745
931.623	11691
