Data from test_V78500241_830.txt Node
Date: Fri Mar 25 15:47:33 CST 2022
User: usil
Spectrometer: V785-0024
Trigger mode: 0
Integration Time (sec): 4.000000E-1
Scans to average: 1
Nonlinearity correction enabled: false
Boxcar width: 0
Storing dark spectrum: false
XAxis mode: Wavelengths
Number of Pixels in Spectrum: 1024
>>>>>Begin Spectral Data<<<<<
801.071	27024
801.214	26807
801.356	26682
801.499	26648
801.641	26313
801.783	26476
801.926	26522
802.068	26507
802.211	26453
802.353	26259
802.496	26229
802.638	26088
802.78	26073
802.923	26008
803.065	26039
803.208	25997
803.35	26149
803.492	26187
803.635	26149
803.777	26161
803.919	26229
804.061	26670
804.204	26332
804.346	26237
804.488	26107
804.63	26317
804.773	26134
804.915	26275
805.057	26286
805.199	26195
805.341	26396
805.483	26351
805.626	26366
805.768	26332
805.91	26355
806.052	26237
806.194	26199
806.336	26495
806.478	26355
806.62	26343
806.762	26438
806.904	26571
807.046	26697
807.188	26861
807.33	26678
807.472	26701
807.614	26598
807.756	26686
807.898	26667
808.04	26431
808.182	26621
808.324	26575
808.465	26526
808.607	26811
808.749	26906
808.891	26971
809.033	27055
809.174	26986
809.316	26960
809.458	26929
809.6	26960
809.741	27192
809.883	27119
810.025	27241
810.166	27283
810.308	27169
810.45	27093
810.591	27112
810.733	26796
810.875	26864
811.016	26830
811.158	26921
811.299	26986
811.441	27070
811.582	27005
811.724	26902
811.865	26963
812.007	26811
812.148	26933
812.29	26986
812.431	27043
812.573	27313
812.714	27355
812.855	27427
812.997	27538
813.138	27713
813.279	27549
813.421	27492
813.562	27454
813.703	27291
813.845	27077
813.986	26857
814.127	26716
814.268	26636
814.41	26590
814.551	26640
814.692	26659
814.833	26423
814.974	26575
815.115	26583
815.256	26495
815.397	26511
815.539	26453
815.68	26271
815.821	26332
815.962	26503
816.103	26301
816.244	26218
816.385	26092
816.526	26142
816.666	25913
816.807	25784
816.948	25951
817.089	25921
817.23	25868
817.371	25849
817.512	25879
817.653	25879
817.793	25731
817.934	25822
818.075	25936
818.216	25696
818.356	25769
818.497	25677
818.638	25639
818.778	25708
818.919	25521
819.06	25693
819.2	25693
819.341	25670
819.481	25715
819.622	26005
819.762	26100
819.903	26161
820.043	25864
820.184	26035
820.324	25814
820.465	26046
820.605	26008
820.746	25936
820.886	25807
821.026	25955
821.167	25993
821.307	25986
821.447	25890
821.588	25742
821.728	25597
821.868	25548
822.008	25362
822.149	25339
822.289	25407
822.429	25008
822.569	24962
822.709	24939
822.849	24871
822.99	24821
823.13	24703
823.27	24787
823.41	24658
823.55	24479
823.69	24787
823.83	24665
823.97	24597
824.11	24437
824.25	24308
824.389	24395
824.529	24445
824.669	24407
824.809	24525
824.949	24608
825.089	24658
825.228	24464
825.368	24361
825.508	24330
825.648	24304
825.787	24254
825.927	24350
826.067	24289
826.206	24361
826.346	24376
826.485	24342
826.625	24186
826.765	24467
826.904	24388
827.044	24034
827.183	24041
827.323	24015
827.462	23996
827.601	24106
827.741	23984
827.88	24057
828.02	23999
828.159	24007
828.298	23916
828.437	24125
828.577	23961
828.716	24018
828.855	23882
828.994	23809
829.134	23665
829.273	23783
829.412	23680
829.551	23661
829.69	23634
829.829	23783
829.968	23718
830.107	23771
830.246	23680
830.385	23516
830.524	23547
830.663	23452
830.802	23356
830.941	23383
831.08	23296
831.219	23383
831.357	23364
831.496	23501
831.635	23337
831.774	23254
831.913	23231
832.051	23010
832.19	23048
832.329	23079
832.467	23044
832.606	22968
832.744	22896
832.883	22873
833.022	23056
833.16	22919
833.299	23052
833.437	22934
833.576	23029
833.714	23086
833.852	22999
833.991	23094
834.129	23189
834.267	23105
834.406	23048
834.544	23155
834.682	23067
834.821	22900
834.959	23162
835.097	22961
835.235	23064
835.373	23033
835.511	23086
835.65	22904
835.788	22839
835.926	22687
836.064	22660
836.202	22683
836.34	22877
836.478	22995
836.615	22771
836.753	22946
836.891	22984
837.029	22900
837.167	22698
837.305	22710
837.443	22908
837.58	22812
837.718	22812
837.856	22862
837.993	22592
838.131	22634
838.269	22626
838.406	22599
838.544	22561
838.681	22367
838.819	22314
838.956	22109
839.094	22249
839.231	22181
839.369	22519
839.506	22580
839.643	22531
839.781	22246
839.918	22090
840.055	22276
840.193	22295
840.33	22177
840.467	22158
840.604	22215
840.742	22333
840.879	22082
841.016	22051
841.153	22120
841.29	22291
841.427	22074
841.564	22139
841.701	22139
841.838	22010
841.975	22021
842.112	21994
842.249	21915
842.385	21850
842.522	22090
842.659	21987
842.796	21804
842.933	21880
843.069	21797
843.206	21922
843.343	21922
843.479	21907
843.616	21983
843.752	21675
843.889	21690
844.025	21994
844.162	21618
844.298	21774
844.435	21660
844.571	21572
844.708	21644
844.844	21819
844.98	21812
845.117	21720
845.253	21606
845.389	21553
845.525	21595
845.661	21488
845.798	21370
845.934	21401
846.07	21481
846.206	21435
846.342	21462
846.478	21279
846.614	21218
846.75	21043
846.886	21169
847.022	21230
847.158	21127
847.294	21108
847.429	21173
847.565	21135
847.701	21405
847.837	20861
847.972	20853
848.108	20845
848.244	20902
848.379	20819
848.515	20800
848.65	20716
848.786	20686
848.921	20826
849.057	20796
849.192	20861
849.328	20830
849.463	20758
849.598	20629
849.734	20613
849.869	20606
850.004	20549
850.14	20556
850.275	20503
850.41	20446
850.545	20587
850.68	20461
850.815	20587
850.95	20412
851.085	20781
851.22	20503
851.355	20613
851.49	20324
851.625	20355
851.76	20526
851.895	20579
852.03	20298
852.165	20632
852.299	20606
852.434	20598
852.569	20511
852.703	20442
852.838	20549
852.973	20682
853.107	20651
853.242	20469
853.376	20237
853.511	20164
853.645	20362
853.78	20431
853.914	20377
854.048	20362
854.183	20282
854.317	20473
854.451	20511
854.585	20370
854.72	20377
854.854	20454
854.988	20336
855.122	20370
855.256	20195
855.39	20294
855.524	20309
855.658	20446
855.792	20495
855.926	20507
856.06	20385
856.194	20495
856.327	20278
856.461	20339
856.595	20271
856.729	20423
856.862	20442
856.996	20461
857.13	20427
857.263	20442
857.397	20499
857.53	20408
857.664	20450
857.797	20465
857.931	20427
858.064	20427
858.197	20476
858.331	20237
858.464	20320
858.597	20275
858.731	20396
858.864	20404
858.997	20320
859.13	20381
859.263	20442
859.396	20454
859.529	20412
859.662	20465
859.795	20324
859.928	20423
860.061	20503
860.194	20583
860.327	20484
860.46	20370
860.592	20419
860.725	20465
860.858	20651
860.99	20275
861.123	20320
861.256	20305
861.388	20339
861.521	20929
861.653	20301
861.786	20122
861.918	20134
862.05	20317
862.183	20191
862.315	20339
862.447	20305
862.58	20210
862.712	20122
862.844	19967
862.976	20111
863.108	20145
863.24	20526
863.372	20069
863.504	20046
863.636	20126
863.768	20081
863.9	20058
864.032	19871
864.164	20046
864.296	20039
864.428	20187
864.559	20081
864.691	20103
864.823	20145
864.954	20024
865.086	20081
865.217	19947
865.349	19913
865.48	20142
865.612	20039
865.743	20157
865.875	20016
866.006	19993
866.137	19959
866.269	20012
866.4	20024
866.531	19936
866.662	19894
866.793	19906
866.924	19845
867.055	19936
867.186	19925
867.317	19906
867.448	19856
867.579	19894
867.71	19909
867.841	19788
867.972	19898
868.103	19951
868.233	19909
868.364	19955
868.495	19951
868.625	20153
868.756	20248
868.886	20149
869.017	20210
869.147	20248
869.278	20355
869.408	20214
869.539	20210
869.669	20187
869.799	20164
869.929	20305
870.06	20210
870.19	20537
870.32	20575
870.45	20590
870.58	20560
870.71	20674
870.84	20629
870.97	20492
871.1	20609
871.23	20811
871.36	20830
871.489	20697
871.619	20640
871.749	20765
871.879	20876
872.008	20823
872.138	20746
872.267	20788
872.397	20693
872.526	20682
872.656	20609
872.785	20625
872.915	20880
873.044	20933
873.173	20849
873.303	20872
873.432	20807
873.561	20899
873.69	20887
873.819	20674
873.948	20933
874.077	20769
874.206	20682
874.335	20754
874.464	20891
874.593	21028
874.722	20887
874.851	21043
874.979	21032
875.108	21218
875.237	20971
875.365	20887
875.494	21009
875.623	21108
875.751	20963
875.88	21043
876.008	21017
876.136	21108
876.265	21431
876.393	21656
876.521	21412
876.65	21477
876.778	21416
876.906	21466
877.034	21401
877.162	21393
877.29	21416
877.418	21386
877.546	21359
877.674	21310
877.802	21443
877.93	21294
878.058	21306
878.185	21329
878.313	21439
878.441	21428
878.568	21291
878.696	21435
878.824	21412
878.951	21485
879.079	21561
879.206	21812
879.333	21534
879.461	21500
879.588	21576
879.715	21561
879.842	21538
879.97	21450
880.097	21317
880.224	21279
880.351	21252
880.478	21203
880.605	21169
880.732	21203
880.859	21348
880.986	21275
881.112	21283
881.239	21116
881.366	20925
881.493	21108
881.619	20746
881.746	20842
881.872	20864
881.999	20731
882.125	20716
882.252	20731
882.378	20735
882.505	20864
882.631	20636
882.757	20560
882.883	20659
883.01	20609
883.136	20549
883.262	20298
883.388	20355
883.514	20469
883.64	20571
883.766	20385
883.892	20336
884.018	20355
884.143	20564
884.269	20522
884.395	20256
884.52	20161
884.646	20191
884.772	20096
884.897	20084
885.023	20218
885.148	20339
885.274	20290
885.399	20271
885.524	20100
885.65	20111
885.775	20126
885.9	20214
886.025	20259
886.15	20210
886.275	20126
886.4	20100
886.525	20115
886.65	20115
886.775	20195
886.9	20183
887.025	20286
887.149	20218
887.274	20126
887.399	19928
887.523	19951
887.648	19947
887.773	19906
887.897	20012
888.021	20062
888.146	19921
888.27	20039
888.395	20027
888.519	19970
888.643	19993
888.767	19906
888.891	19856
889.015	19738
889.139	19841
889.263	19788
889.387	19947
889.511	19928
889.635	19852
889.759	19795
889.883	19769
890.006	19647
890.13	19772
890.254	19590
890.377	19655
890.501	19578
890.624	19502
890.748	19525
890.871	19343
890.995	19343
891.118	19263
891.241	19346
891.364	19388
891.488	19521
891.611	19362
891.734	19327
891.857	19343
891.98	19392
892.103	19324
892.226	19312
892.349	19270
892.471	19110
892.594	19213
892.717	19270
892.839	19232
892.962	19289
893.085	19232
893.207	19301
893.33	19274
893.452	19225
893.575	19247
893.697	19206
893.819	19457
893.941	19476
894.064	19346
894.186	19194
894.308	19164
894.43	19316
894.552	19453
894.674	19308
894.796	19194
894.918	19202
895.04	19282
895.161	19240
895.283	19304
895.405	19190
895.526	19179
895.648	19217
895.769	19343
895.891	19335
896.012	19403
896.134	19419
896.255	19381
896.376	19236
896.498	19297
896.619	19400
896.74	19225
896.861	19320
896.982	19639
897.103	19753
897.224	19582
897.345	19582
897.466	19487
897.587	19438
897.708	19571
897.828	19525
897.949	19499
898.07	19400
898.19	19426
898.311	19647
898.431	19514
898.552	19540
898.672	19635
898.792	19696
898.913	19651
899.033	19506
899.153	19358
899.273	19244
899.393	19362
899.513	19327
899.633	19225
899.753	19316
899.873	19346
899.993	19308
900.113	19346
900.232	19289
900.352	19255
900.472	19091
900.591	19053
900.711	19114
900.83	19042
900.95	19187
901.069	19148
901.189	19069
901.308	18749
901.427	18551
901.546	18681
901.665	18658
901.784	18681
901.904	18494
902.023	18399
902.141	18334
902.26	18190
902.379	18254
902.498	18311
902.617	18148
902.735	18277
902.854	18095
902.973	18194
903.091	17916
903.21	17840
903.328	17764
903.446	17756
903.565	17714
903.683	17729
903.801	17524
903.919	17592
904.038	17562
904.156	17414
904.274	17520
904.392	17505
904.51	17433
904.627	17535
904.745	17558
904.863	17532
904.981	17322
905.098	17258
905.216	17102
905.334	17216
905.451	17178
905.569	17083
905.686	17162
905.803	17094
905.921	16896
906.038	17033
906.155	16957
906.272	16828
906.389	16930
906.506	16641
906.623	16641
906.74	16599
906.857	16542
906.974	16649
907.091	16713
907.208	16778
907.324	16786
907.441	16550
907.557	16402
907.674	16413
907.79	16337
907.907	16398
908.023	16413
908.139	16337
908.256	16390
908.372	16276
908.488	16158
908.604	16169
908.72	16074
908.836	16093
908.952	16086
909.068	16166
909.184	16196
909.3	16078
909.415	16158
909.531	16162
909.647	15812
909.762	15873
909.878	15785
909.993	15755
910.108	15838
910.224	15762
910.339	15838
910.454	15762
910.57	15652
910.685	15564
910.8	15869
910.915	15854
911.03	15682
911.145	15466
911.259	15507
911.374	15496
911.489	15496
911.604	15287
911.718	15199
911.833	15222
911.947	15013
912.062	15017
912.176	15340
912.291	15104
912.405	15245
912.519	15416
912.633	15443
912.748	15245
912.862	15093
912.976	15032
913.09	14883
913.204	14918
913.318	15070
913.431	14933
913.545	15051
913.659	15104
913.772	14986
913.886	14925
914	14693
914.113	14963
914.226	14933
914.34	14811
914.453	14727
914.566	14918
914.68	14670
914.793	14705
914.906	14549
915.019	14484
915.132	14377
915.245	14469
915.358	14480
915.47	14442
915.583	14442
915.696	14412
915.809	14503
915.921	14533
916.034	14408
916.146	14298
916.259	14408
916.371	14461
916.483	14469
916.595	14252
916.708	14309
916.82	14324
916.932	14267
917.044	14301
917.156	14248
917.268	14043
917.38	14142
917.491	14138
917.603	14134
917.715	14126
917.826	14263
917.938	14130
918.049	13917
918.161	14123
918.272	14199
918.384	14244
918.495	14126
918.606	13811
918.717	13849
918.828	13997
918.939	13951
919.05	13830
919.161	13879
919.272	13704
919.383	13772
919.494	13974
919.604	14111
919.715	13989
919.826	13807
919.936	13845
920.047	13997
920.157	13928
920.267	14050
920.378	13849
920.488	13902
920.598	14180
920.708	14183
920.818	14107
920.928	14016
921.038	14180
921.148	14138
921.258	13928
921.368	13685
921.477	13742
921.587	13636
921.697	13563
921.806	13715
921.916	13472
922.025	13316
922.134	13327
922.244	13316
922.353	13335
922.462	13278
922.571	13133
922.68	13008
922.789	12958
922.898	12939
923.007	12943
923.116	13023
923.224	12913
923.333	12878
923.442	12825
923.55	12753
923.659	12829
923.767	12856
923.876	12810
923.984	12764
924.092	12719
924.201	12810
924.309	12757
924.417	12726
924.525	12631
924.633	12665
924.741	13616
924.849	12490
924.956	12528
925.064	12414
925.172	12334
925.279	12407
925.387	12445
925.494	12464
925.602	12563
925.709	12521
925.816	12391
925.924	12369
926.031	12441
926.138	12448
926.245	12365
926.352	12285
926.459	12448
926.566	12456
926.673	12361
926.779	12209
926.886	12251
926.993	11999
927.099	11984
927.206	11927
927.312	12015
927.419	12095
927.525	11992
927.631	12045
927.737	11942
927.843	11935
927.95	11760
928.056	11855
928.162	11863
928.267	11904
928.373	12498
928.479	11946
928.585	11638
928.69	11779
928.796	11870
928.901	11805
929.007	11585
929.112	11703
929.218	11665
929.323	11657
929.428	11532
929.533	11691
929.638	11505
929.743	11630
929.848	11657
929.953	11608
930.058	11467
930.163	11254
930.267	11296
930.372	11436
930.477	11269
930.581	11463
930.685	11349
930.79	11235
930.894	11193
930.998	11067
931.103	11334
931.207	10972
931.311	10847
931.415	10790
931.519	10577
931.623	10538
