Data from test_V78500241_932.txt Node
Date: Fri Mar 25 15:48:15 CST 2022
User: usil
Spectrometer: V785-0024
Trigger mode: 0
Integration Time (sec): 4.000000E-1
Scans to average: 1
Nonlinearity correction enabled: false
Boxcar width: 0
Storing dark spectrum: false
XAxis mode: Wavelengths
Number of Pixels in Spectrum: 1024
>>>>>Begin Spectral Data<<<<<
801.071	28588
801.214	28375
801.356	28295
801.499	28032
801.641	28078
801.783	28025
801.926	28207
802.068	28082
802.211	27903
802.353	28078
802.496	27743
802.638	27728
802.78	27561
802.923	27762
803.065	27679
803.208	27759
803.35	27736
803.492	27778
803.635	27857
803.777	27762
803.919	27949
804.061	28116
804.204	27911
804.346	27869
804.488	27861
804.63	27869
804.773	27850
804.915	28010
805.057	28223
805.199	27937
805.341	28017
805.483	28032
805.626	28124
805.768	27937
805.91	28070
806.052	28029
806.194	27994
806.336	28215
806.478	28044
806.62	28078
806.762	28143
806.904	28394
807.046	28584
807.188	28527
807.33	28557
807.472	28626
807.614	28356
807.756	28470
807.898	28401
808.04	28272
808.182	28447
808.324	28394
808.465	28443
808.607	28656
808.749	28805
808.891	28888
809.033	28881
809.174	28866
809.316	28767
809.458	28805
809.6	28729
809.741	28748
809.883	29010
810.025	29143
810.166	29010
810.308	29041
810.45	29109
810.591	28984
810.733	28828
810.875	28873
811.016	28763
811.158	28698
811.299	28843
811.441	28930
811.582	28927
811.724	28805
811.865	28896
812.007	28713
812.148	28828
812.29	28710
812.431	29075
812.573	29166
812.714	29277
812.855	29341
812.997	29402
813.138	29547
813.279	29524
813.421	29535
813.562	29383
813.703	29094
813.845	29098
813.986	28812
814.127	28679
814.268	28565
814.41	28447
814.551	28474
814.692	28675
814.833	28599
814.974	28421
815.115	28478
815.256	28333
815.397	28382
815.539	28375
815.68	28253
815.821	28280
815.962	28310
816.103	28188
816.244	28242
816.385	28188
816.526	27994
816.666	28002
816.807	27781
816.948	27880
817.089	27884
817.23	27914
817.371	27873
817.512	27720
817.653	27804
817.793	27759
817.934	27842
818.075	27956
818.216	27774
818.356	27804
818.497	27694
818.638	27488
818.778	27583
818.919	27545
819.06	27500
819.2	27736
819.341	27789
819.481	27846
819.622	27979
819.762	28131
819.903	28025
820.043	28002
820.184	27918
820.324	27979
820.465	28002
820.605	27857
820.746	28002
820.886	27785
821.026	27888
821.167	27804
821.307	27911
821.447	27778
821.588	27705
821.728	27652
821.868	27458
822.008	27325
822.149	27367
822.289	27241
822.429	26929
822.569	26872
822.709	26815
822.849	26815
822.99	26830
823.13	26845
823.27	26735
823.41	26625
823.55	26530
823.69	26537
823.83	26617
823.97	26720
824.11	26419
824.25	26317
824.389	26404
824.529	26617
824.669	26480
824.809	26655
824.949	26450
825.089	26514
825.228	26457
825.368	26317
825.508	26499
825.648	26336
825.787	26347
825.927	26434
826.067	26286
826.206	26339
826.346	26362
826.485	26301
826.625	26374
826.765	26339
826.904	26374
827.044	25989
827.183	26164
827.323	26012
827.462	26077
827.601	26054
827.741	25955
827.88	26039
828.02	25906
828.159	26050
828.298	26008
828.437	26107
828.577	25989
828.716	26050
828.855	25894
828.994	25742
829.134	25727
829.273	25811
829.412	25837
829.551	25674
829.69	25655
829.829	25761
829.968	25845
830.107	25655
830.246	25708
830.385	25597
830.524	25594
830.663	25521
830.802	25400
830.941	25331
831.08	25293
831.219	25419
831.357	25407
831.496	25533
831.635	25331
831.774	25171
831.913	25126
832.051	25103
832.19	25148
832.329	25114
832.467	25141
832.606	25027
832.744	25008
832.883	25027
833.022	25057
833.16	25065
833.299	25061
833.437	25114
833.576	25145
833.714	25160
833.852	25057
833.991	25023
834.129	25118
834.267	25118
834.406	25053
834.544	25206
834.682	25031
834.821	25156
834.959	25221
835.097	24920
835.235	25103
835.373	25122
835.511	25023
835.65	24924
835.788	25000
835.926	24833
836.064	24772
836.202	24810
836.34	24848
836.478	25076
836.615	24920
836.753	24871
836.891	24954
837.029	24958
837.167	24821
837.305	24871
837.443	24684
837.58	24833
837.718	24833
837.856	24719
837.993	24730
838.131	24798
838.269	24631
838.406	24642
838.544	24536
838.681	24384
838.819	24315
838.956	24258
839.094	24258
839.231	24338
839.369	24346
839.506	24669
839.643	24372
839.781	24251
839.918	24167
840.055	24209
840.193	24201
840.33	24076
840.467	24091
840.604	24083
840.742	24251
840.879	24003
841.016	24003
841.153	24015
841.29	24243
841.427	24083
841.564	24026
841.701	24095
841.838	24034
841.975	23927
842.112	23973
842.249	23893
842.385	23668
842.522	23984
842.659	23893
842.796	23809
842.933	23870
843.069	23764
843.206	23817
843.343	23779
843.479	23802
843.616	23733
843.752	23657
843.889	23687
844.025	23729
844.162	23554
844.298	23646
844.435	23646
844.571	23608
844.708	23657
844.844	23843
844.98	23767
845.117	23729
845.253	23627
845.389	23596
845.525	23516
845.661	23566
845.798	23254
845.934	23467
846.07	23277
846.206	23501
846.342	23493
846.478	23315
846.614	23117
846.75	23022
846.886	22923
847.022	23117
847.158	23113
847.294	23094
847.429	23071
847.565	23105
847.701	23216
847.837	22805
847.972	22889
848.108	22866
848.244	22866
848.379	22733
848.515	22672
848.65	22618
848.786	22733
848.921	22771
849.057	22755
849.192	22694
849.328	22702
849.463	22622
849.598	22603
849.734	22656
849.869	22417
850.004	22421
850.14	22470
850.275	22440
850.41	22261
850.545	22466
850.68	22333
850.815	22390
850.95	22402
851.085	22611
851.22	22599
851.355	22447
851.49	22356
851.625	22424
851.76	22382
851.895	22360
852.03	22348
852.165	22440
852.299	22432
852.434	22542
852.569	22344
852.703	22394
852.838	22443
852.973	22603
853.107	22557
853.242	22249
853.376	22379
853.511	22196
853.645	22215
853.78	22318
853.914	22246
854.048	22253
854.183	22230
854.317	22268
854.451	22398
854.585	22124
854.72	22303
854.854	22261
854.988	22219
855.122	22078
855.256	22154
855.39	22306
855.524	22234
855.658	22325
855.792	22352
855.926	22109
856.06	22398
856.194	22261
856.327	22204
856.461	22086
856.595	22192
856.729	22223
856.862	22303
856.996	22238
857.13	22306
857.263	22348
857.397	22249
857.53	22257
857.664	22287
857.797	22238
857.931	22367
858.064	22337
858.197	22409
858.331	22268
858.464	22040
858.597	22177
858.731	22348
858.864	22188
858.997	22158
859.13	22268
859.263	22177
859.396	22306
859.529	22246
859.662	22158
859.795	22162
859.928	22135
860.061	22287
860.194	22398
860.327	22306
860.46	22143
860.592	22280
860.725	22367
860.858	22417
860.99	22215
861.123	22238
861.256	22131
861.388	22249
861.521	22949
861.653	22112
861.786	21972
861.918	22036
862.05	22067
862.183	22097
862.315	22177
862.447	22188
862.58	22131
862.712	21987
862.844	21930
862.976	22006
863.108	21991
863.24	22272
863.372	21873
863.504	21937
863.636	21975
863.768	21926
863.9	21968
864.032	21911
864.164	21899
864.296	21888
864.428	21979
864.559	21998
864.691	21941
864.823	21816
864.954	21831
865.086	21850
865.217	21968
865.349	21781
865.48	21876
865.612	21869
865.743	21857
865.875	21846
866.006	21774
866.137	21861
866.269	21873
866.4	21804
866.531	21880
866.662	21766
866.793	21739
866.924	21804
867.055	21762
867.186	21633
867.317	21663
867.448	21663
867.579	21762
867.71	21618
867.841	21694
867.972	21709
868.103	21724
868.233	21724
868.364	21781
868.495	21861
868.625	22048
868.756	22078
868.886	21915
869.017	22017
869.147	22048
869.278	22090
869.408	22029
869.539	22070
869.669	22097
869.799	22070
869.929	22139
870.06	22063
870.19	22280
870.32	22295
870.45	22413
870.58	22322
870.71	22626
870.84	22428
870.97	22398
871.1	22348
871.23	22603
871.36	22516
871.489	22523
871.619	22615
871.749	22596
871.879	22557
872.008	22599
872.138	22653
872.267	22664
872.397	22485
872.526	22329
872.656	22386
872.785	22485
872.915	22580
873.044	22763
873.173	22679
873.303	22721
873.432	22668
873.561	22565
873.69	22519
873.819	22561
873.948	22630
874.077	22557
874.206	22565
874.335	22630
874.464	22755
874.593	22843
874.722	22790
874.851	22889
874.979	22774
875.108	22934
875.237	22717
875.365	22759
875.494	22759
875.623	22843
875.751	22812
875.88	22942
876.008	23025
876.136	23029
876.265	23242
876.393	23204
876.521	23349
876.65	23265
876.778	23231
876.906	23174
877.034	23159
877.162	23121
877.29	23006
877.418	23227
877.546	23170
877.674	23147
877.802	23113
877.93	23109
878.058	23162
878.185	22927
878.313	23189
878.441	23235
878.568	22968
878.696	23071
878.824	23231
878.951	23296
879.079	23379
879.206	23395
879.333	23387
879.461	23159
879.588	23288
879.715	23315
879.842	23326
879.97	23227
880.097	23033
880.224	23033
880.351	22930
880.478	23056
880.605	22854
880.732	22885
880.859	23181
880.986	22946
881.112	22987
881.239	22805
881.366	22782
881.493	22824
881.619	22489
881.746	22504
881.872	22615
881.999	22535
882.125	22459
882.252	22546
882.378	22611
882.505	22656
882.631	22390
882.757	22329
882.883	22344
883.01	22280
883.136	22276
883.262	22154
883.388	22044
883.514	22139
883.64	22318
883.766	22185
883.892	21968
884.018	21953
884.143	22158
884.269	22120
884.395	21857
884.52	21899
884.646	21819
884.772	21861
884.897	21751
885.023	21884
885.148	22006
885.274	22044
885.399	21960
885.524	21937
885.65	21937
885.775	21895
885.9	21743
886.025	21918
886.15	21892
886.275	21823
886.4	21759
886.525	21895
886.65	21759
886.775	21739
886.9	22017
887.025	22040
887.149	21861
887.274	21736
887.399	21488
887.523	21519
887.648	21485
887.773	21485
887.897	21644
888.021	21717
888.146	21538
888.27	21755
888.395	21572
888.519	21656
888.643	21583
888.767	21606
888.891	21564
889.015	21416
889.139	21504
889.263	21367
889.387	21553
889.511	21519
889.635	21431
889.759	21420
889.883	21447
890.006	21283
890.13	21629
890.254	21336
890.377	21283
890.501	21222
890.624	21081
890.748	21214
890.871	21017
890.995	21028
891.118	21013
891.241	21096
891.364	20921
891.488	21024
891.611	20975
891.734	20937
891.857	21051
891.98	21039
892.103	20929
892.226	20956
892.349	20929
892.471	20792
892.594	20891
892.717	20998
892.839	20857
892.962	20944
893.085	20960
893.207	20826
893.33	20697
893.452	20788
893.575	20933
893.697	20754
893.819	21074
893.941	20979
894.064	21051
894.186	20754
894.308	20807
894.43	20933
894.552	20975
894.674	20883
894.796	20777
894.918	20788
895.04	20769
895.161	21017
895.283	20872
895.405	20910
895.526	20777
895.648	20819
895.769	20826
895.891	20914
896.012	20838
896.134	20895
896.255	20758
896.376	20765
896.498	20868
896.619	20887
896.74	20902
896.861	20838
896.982	21131
897.103	21291
897.224	21116
897.345	21077
897.466	20990
897.587	20967
897.708	21218
897.828	21039
897.949	21055
898.07	20971
898.19	20975
898.311	21169
898.431	20982
898.552	21108
898.672	21123
898.792	21028
898.913	21142
899.033	21009
899.153	21001
899.273	20754
899.393	20834
899.513	20849
899.633	20960
899.753	20731
899.873	20712
899.993	20788
900.113	20579
900.232	20777
900.352	20686
900.472	20686
900.591	20454
900.711	20530
900.83	20484
900.95	20640
901.069	20617
901.189	20438
901.308	20210
901.427	20096
901.546	20149
901.665	20195
901.784	20210
901.904	19993
902.023	19845
902.141	19780
902.26	19734
902.379	19696
902.498	19632
902.617	19643
902.735	19647
902.854	19594
902.973	19521
903.091	19289
903.21	19247
903.328	19289
903.446	19240
903.565	19187
903.683	19057
903.801	18886
903.919	19107
904.038	19004
904.156	18882
904.274	18894
904.392	18791
904.51	18829
904.627	18825
904.745	18833
904.863	18901
904.981	18661
905.098	18566
905.216	18410
905.334	18498
905.451	18566
905.569	18509
905.686	18582
905.803	18517
905.921	18239
906.038	18437
906.155	18266
906.272	18254
906.389	18292
906.506	18034
906.623	18102
906.74	17965
906.857	17969
906.974	17950
907.091	18140
907.208	18174
907.324	18102
907.441	18003
907.557	17752
907.674	17802
907.79	17737
907.907	17798
908.023	17745
908.139	17828
908.256	17710
908.372	17539
908.488	17589
908.604	17516
908.72	17448
908.836	17566
908.952	17421
909.068	17474
909.184	17558
909.3	17452
909.415	17547
909.531	17467
909.647	17174
909.762	17159
909.878	17151
909.993	17147
910.108	17208
910.224	17254
910.339	17280
910.454	17064
910.57	17025
910.685	16881
910.8	17220
910.915	17067
911.03	17029
911.145	16721
911.259	16778
911.374	16774
911.489	16786
911.604	16645
911.718	16470
911.833	16538
911.947	16417
912.062	16394
912.176	16398
912.291	16588
912.405	16546
912.519	16664
912.633	16637
912.748	16497
912.862	16413
912.976	16329
913.09	16154
913.204	16261
913.318	16394
913.431	16310
913.545	16299
913.659	16398
913.772	16249
913.886	16204
914	16086
914.113	16150
914.226	16291
914.34	16154
914.453	15975
914.566	16223
914.68	16017
914.793	15838
914.906	15759
915.019	15709
915.132	15656
915.245	15709
915.358	15690
915.47	15652
915.583	15698
915.696	15629
915.809	15850
915.921	15842
916.034	15660
916.146	15485
916.259	15660
916.371	15641
916.483	15519
916.595	15542
916.708	15549
916.82	15549
916.932	15496
917.044	15485
917.156	15382
917.268	15340
917.38	15256
917.491	15370
917.603	15272
917.715	15348
917.826	15382
917.938	15203
918.049	15154
918.161	15298
918.272	15458
918.384	15443
918.495	15340
918.606	15169
918.717	15051
918.828	15028
918.939	15017
919.05	14918
919.161	14971
919.272	14883
919.383	14906
919.494	15089
919.604	15302
919.715	15123
919.826	14971
919.936	15119
920.047	15074
920.157	14986
920.267	15272
920.378	14986
920.488	15028
920.598	15173
920.708	15329
920.818	15062
920.928	15131
921.038	15291
921.148	15351
921.258	15005
921.368	14849
921.477	14750
921.587	14686
921.697	14686
921.806	14785
921.916	14651
922.025	14427
922.134	14446
922.244	14305
922.353	14434
922.462	14267
922.571	14115
922.68	14024
922.789	14020
922.898	14035
923.007	13868
923.116	14035
923.224	13967
923.333	14031
923.442	13818
923.55	13814
923.659	13913
923.767	13864
923.876	13883
923.984	13928
924.092	13757
924.201	13769
924.309	13761
924.417	13814
924.525	13780
924.633	13586
924.741	14465
924.849	13487
924.956	13590
925.064	13567
925.172	13285
925.279	13381
925.387	13487
925.494	13438
925.602	13495
925.709	13381
925.816	13312
925.924	13335
926.031	13430
926.138	13411
926.245	13312
926.352	13225
926.459	13324
926.566	13373
926.673	13324
926.779	13129
926.886	13107
926.993	12958
927.099	12970
927.206	12901
927.312	12909
927.419	13034
927.525	13050
927.631	12985
927.737	12779
927.843	12798
927.95	12677
928.056	12791
928.162	12791
928.267	12810
928.373	13327
928.479	12806
928.585	12589
928.69	12722
928.796	12821
928.901	12631
929.007	12460
929.112	12639
929.218	12555
929.323	12532
929.428	12490
929.533	12601
929.638	12399
929.743	12403
929.848	12433
929.953	12422
930.058	12304
930.163	12205
930.267	12163
930.372	12327
930.477	12125
930.581	12391
930.685	12136
930.79	12034
930.894	12110
930.998	12045
931.103	12083
931.207	11722
931.311	11729
931.415	11691
931.519	11471
931.623	11452
