Data from test_V78500241_2823.txt Node
Date: Fri Mar 25 16:01:21 CST 2022
User: usil
Spectrometer: V785-0024
Trigger mode: 0
Integration Time (sec): 4.000000E-1
Scans to average: 1
Nonlinearity correction enabled: false
Boxcar width: 0
Storing dark spectrum: false
XAxis mode: Wavelengths
Number of Pixels in Spectrum: 1024
>>>>>Begin Spectral Data<<<<<
801.071	29102
801.214	28984
801.356	28927
801.499	28862
801.641	28599
801.783	28805
801.926	28809
802.068	28717
802.211	28687
802.353	28611
802.496	28386
802.638	28341
802.78	28265
802.923	28401
803.065	28272
803.208	28428
803.35	28470
803.492	28592
803.635	28645
803.777	28516
803.919	28683
804.061	28869
804.204	28809
804.346	28668
804.488	28428
804.63	28668
804.773	28569
804.915	28649
805.057	28782
805.199	28691
805.341	28820
805.483	28831
805.626	28862
805.768	28607
805.91	28873
806.052	28866
806.194	28664
806.336	28873
806.478	28740
806.62	28911
806.762	28999
806.904	29102
807.046	29254
807.188	29307
807.33	29231
807.472	29326
807.614	29398
807.756	29273
807.898	29121
808.04	29128
808.182	29178
808.324	29197
808.465	29200
808.607	29250
808.749	29623
808.891	29585
809.033	29775
809.174	29493
809.316	29547
809.458	29478
809.6	29383
809.741	29440
809.883	29592
810.025	29775
810.166	29714
810.308	29668
810.45	29737
810.591	29752
810.733	29604
810.875	29440
811.016	29406
811.158	29497
811.299	29486
811.441	29718
811.582	29726
811.724	29524
811.865	29570
812.007	29634
812.148	29570
812.29	29608
812.431	29756
812.573	29874
812.714	29912
812.855	30034
812.997	30289
813.138	30357
813.279	30209
813.421	30079
813.562	29969
813.703	29923
813.845	29828
813.986	29710
814.127	29391
814.268	29280
814.41	29353
814.551	29265
814.692	29334
814.833	29212
814.974	29261
815.115	29318
815.256	29143
815.397	29197
815.539	29204
815.68	29064
815.821	28999
815.962	29052
816.103	29079
816.244	29079
816.385	28850
816.526	28820
816.666	28672
816.807	28584
816.948	28599
817.089	28710
817.23	28592
817.371	28573
817.512	28660
817.653	28679
817.793	28447
817.934	28557
818.075	28668
818.216	28607
818.356	28584
818.497	28546
818.638	28405
818.778	28371
818.919	28424
819.06	28466
819.2	28523
819.341	28607
819.481	28615
819.622	28904
819.762	28919
819.903	28820
820.043	28885
820.184	28683
820.324	28637
820.465	28733
820.605	28698
820.746	28691
820.886	28660
821.026	28805
821.167	28660
821.307	28615
821.447	28596
821.588	28504
821.728	28398
821.868	28150
822.008	28120
822.149	28082
822.289	28131
822.429	27816
822.569	27911
822.709	27762
822.849	27637
822.99	27530
823.13	27549
823.27	27603
823.41	27310
823.55	27313
823.69	27496
823.83	27386
823.97	27393
824.11	27207
824.25	27173
824.389	27329
824.529	27321
824.669	27226
824.809	27393
824.949	27321
825.089	27275
825.228	27260
825.368	27093
825.508	27184
825.648	27199
825.787	27169
825.927	27272
826.067	27077
826.206	27017
826.346	27161
826.485	27199
826.625	27032
826.765	27077
826.904	27100
827.044	26933
827.183	26883
827.323	26925
827.462	26864
827.601	26868
827.741	26895
827.88	26739
828.02	26777
828.159	26887
828.298	26826
828.437	26830
828.577	26876
828.716	26800
828.855	26667
828.994	26545
829.134	26423
829.273	26507
829.412	26461
829.551	26431
829.69	26537
829.829	26571
829.968	26598
830.107	26682
830.246	26632
830.385	26488
830.524	26427
830.663	26256
830.802	26252
830.941	26164
831.08	26058
831.219	26210
831.357	26153
831.496	26419
831.635	26054
831.774	26149
831.913	26027
832.051	25921
832.19	25997
832.329	25970
832.467	25860
832.606	25674
832.744	25696
832.883	25845
833.022	25742
833.16	25727
833.299	25917
833.437	25803
833.576	25947
833.714	25902
833.852	25974
833.991	25811
834.129	25871
834.267	25864
834.406	26008
834.544	25830
834.682	25795
834.821	25894
834.959	25909
835.097	25677
835.235	25970
835.373	25860
835.511	25753
835.65	25746
835.788	25753
835.926	25662
836.064	25499
836.202	25445
836.34	25632
836.478	25833
836.615	25689
836.753	25571
836.891	25791
837.029	25677
837.167	25582
837.305	25666
837.443	25537
837.58	25468
837.718	25529
837.856	25597
837.993	25487
838.131	25373
838.269	25369
838.406	25365
838.544	25278
838.681	25137
838.819	25057
838.956	25118
839.094	24848
839.231	24996
839.369	25187
839.506	25415
839.643	25259
839.781	25061
839.918	24852
840.055	24875
840.193	24951
840.33	24798
840.467	24981
840.604	24867
840.742	24996
840.879	24772
841.016	24833
841.153	24821
841.29	25069
841.427	24620
841.564	24871
841.701	24673
841.838	24779
841.975	24673
842.112	24635
842.249	24646
842.385	24563
842.522	24696
842.659	24700
842.796	24593
842.933	24623
843.069	24490
843.206	24570
843.343	24627
843.479	24646
843.616	24521
843.752	24391
843.889	24414
844.025	24547
844.162	24323
844.298	24585
844.435	24289
844.571	24471
844.708	24403
844.844	24464
844.98	24388
845.117	24536
845.253	24292
845.389	24106
845.525	24346
845.661	24243
845.798	24072
845.934	24064
846.07	24018
846.206	24079
846.342	24197
846.478	24159
846.614	23916
846.75	23767
846.886	23878
847.022	23840
847.158	23893
847.294	23836
847.429	23817
847.565	23771
847.701	23996
847.837	23710
847.972	23531
848.108	23661
848.244	23699
848.379	23501
848.515	23334
848.65	23395
848.786	23326
848.921	23345
849.057	23448
849.192	23535
849.328	23440
849.463	23303
849.598	23368
849.734	23360
849.869	23208
850.004	23277
850.14	23006
850.275	23258
850.41	23071
850.545	23174
850.68	23204
850.815	23151
850.95	23200
851.085	23307
851.22	23337
851.355	23178
851.49	23197
851.625	23254
851.76	23204
851.895	23044
852.03	23098
852.165	23303
852.299	23170
852.434	23261
852.569	23166
852.703	23216
852.838	23296
852.973	23204
853.107	23288
853.242	23067
853.376	22930
853.511	23048
853.645	22980
853.78	23033
853.914	22965
854.048	22915
854.183	23105
854.317	22968
854.451	23121
854.585	23056
854.72	22987
854.854	23056
854.988	22949
855.122	23060
855.256	22782
855.39	22881
855.524	23056
855.658	23060
855.792	23006
855.926	22953
856.06	22984
856.194	23109
856.327	22885
856.461	23010
856.595	23071
856.729	22991
856.862	22987
856.996	22938
857.13	23086
857.263	23098
857.397	23102
857.53	22980
857.664	23014
857.797	23124
857.931	23162
858.064	23010
858.197	23200
858.331	23029
858.464	22915
858.597	22911
858.731	22908
858.864	22885
858.997	22881
859.13	23014
859.263	23018
859.396	23193
859.529	22885
859.662	22957
859.795	22987
859.928	23155
860.061	23216
860.194	23109
860.327	23033
860.46	23086
860.592	23296
860.725	23102
860.858	23075
860.99	23044
861.123	22968
861.256	22889
861.388	22984
861.521	23748
861.653	22778
861.786	22869
861.918	22881
862.05	22965
862.183	22995
862.315	23022
862.447	23048
862.58	22938
862.712	22797
862.844	22675
862.976	22862
863.108	22812
863.24	23124
863.372	22706
863.504	22706
863.636	22637
863.768	22744
863.9	22691
864.032	22634
864.164	22812
864.296	22721
864.428	22767
864.559	22744
864.691	22869
864.823	22729
864.954	22645
865.086	22729
865.217	22698
865.349	22531
865.48	22634
865.612	22599
865.743	22774
865.875	22679
866.006	22634
866.137	22660
866.269	22668
866.4	22489
866.531	22455
866.662	22592
866.793	22538
866.924	22546
867.055	22527
867.186	22523
867.317	22485
867.448	22379
867.579	22447
867.71	22459
867.841	22421
867.972	22535
868.103	22592
868.233	22405
868.364	22478
868.495	22550
868.625	22839
868.756	22991
868.886	22675
869.017	22755
869.147	22759
869.278	22976
869.408	22831
869.539	22839
869.669	22831
869.799	22797
869.929	22774
870.06	22858
870.19	23060
870.32	23056
870.45	23151
870.58	23094
870.71	23246
870.84	23307
870.97	23155
871.1	23204
871.23	23311
871.36	23429
871.489	23235
871.619	23284
871.749	23258
871.879	23368
872.008	23436
872.138	23440
872.267	23425
872.397	23254
872.526	23231
872.656	23159
872.785	23212
872.915	23353
873.044	23524
873.173	23360
873.303	23452
873.432	23360
873.561	23471
873.69	23501
873.819	23284
873.948	23463
874.077	23269
874.206	23326
874.335	23429
874.464	23509
874.593	23707
874.722	23440
874.851	23714
874.979	23585
875.108	23680
875.237	23528
875.365	23459
875.494	23672
875.623	23611
875.751	23604
875.88	23646
876.008	23775
876.136	23676
876.265	23984
876.393	24083
876.521	24018
876.65	24087
876.778	23912
876.906	23866
877.034	24030
877.162	23824
877.29	23821
877.418	23863
877.546	23973
877.674	23958
877.802	23916
877.93	23973
878.058	23840
878.185	23707
878.313	23893
878.441	23977
878.568	23745
878.696	23802
878.824	23866
878.951	24030
879.079	24068
879.206	24186
879.333	24060
879.461	23847
879.588	24079
879.715	24064
879.842	24144
879.97	23980
880.097	23847
880.224	23703
880.351	23794
880.478	23676
880.605	23604
880.732	23729
880.859	23897
880.986	23767
881.112	23790
881.239	23611
881.366	23372
881.493	23535
881.619	23250
881.746	23315
881.872	23391
881.999	23185
882.125	23277
882.252	23223
882.378	23280
882.505	23402
882.631	23033
882.757	23010
882.883	22976
883.01	22953
883.136	22767
883.262	22759
883.388	22763
883.514	22915
883.64	22900
883.766	22839
883.892	22835
884.018	22653
884.143	22850
884.269	22816
884.395	22637
884.52	22481
884.646	22554
884.772	22489
884.897	22542
885.023	22672
885.148	22721
885.274	22778
885.399	22702
885.524	22580
885.65	22531
885.775	22447
885.9	22569
886.025	22675
886.15	22626
886.275	22459
886.4	22485
886.525	22580
886.65	22519
886.775	22504
886.9	22672
887.025	22771
887.149	22481
887.274	22462
887.399	22337
887.523	22398
887.648	22348
887.773	22253
887.897	22371
888.021	22337
888.146	22409
888.27	22470
888.395	22325
888.519	22402
888.643	22234
888.767	22436
888.891	22204
889.015	22173
889.139	22185
889.263	22131
889.387	22169
889.511	22428
889.635	22143
889.759	22150
889.883	22105
890.006	22166
890.13	22215
890.254	22070
890.377	22032
890.501	21892
890.624	21880
890.748	21892
890.871	21686
890.995	21663
891.118	21580
891.241	21728
891.364	21652
891.488	21755
891.611	21671
891.734	21690
891.857	21622
891.98	21686
892.103	21679
892.226	21751
892.349	21523
892.471	21481
892.594	21553
892.717	21587
892.839	21564
892.962	21629
893.085	21660
893.207	21496
893.33	21393
893.452	21420
893.575	21583
893.697	21530
893.819	21709
893.941	21618
894.064	21671
894.186	21568
894.308	21568
894.43	21629
894.552	21717
894.674	21637
894.796	21496
894.918	21393
895.04	21492
895.161	21599
895.283	21507
895.405	21488
895.526	21466
895.648	21435
895.769	21557
895.891	21534
896.012	21652
896.134	21663
896.255	21507
896.376	21553
896.498	21515
896.619	21504
896.74	21458
896.861	21549
896.982	21895
897.103	21968
897.224	21797
897.345	21770
897.466	21690
897.587	21789
897.708	21739
897.828	21660
897.949	21686
898.07	21530
898.19	21542
898.311	21682
898.431	21641
898.552	21770
898.672	21827
898.792	21736
898.913	21698
899.033	21614
899.153	21492
899.273	21393
899.393	21405
899.513	21496
899.633	21454
899.753	21568
899.873	21439
899.993	21359
900.113	21325
900.232	21408
900.352	21192
900.472	21211
900.591	21131
900.711	21173
900.83	21222
900.95	21237
901.069	21188
901.189	21055
901.308	20788
901.427	20724
901.546	20655
901.665	20777
901.784	20773
901.904	20640
902.023	20450
902.141	20298
902.26	20225
902.379	20278
902.498	20248
902.617	20145
902.735	20218
902.854	20050
902.973	20202
903.091	20039
903.21	19940
903.328	19822
903.446	19799
903.565	19776
903.683	19696
903.801	19590
903.919	19681
904.038	19639
904.156	19487
904.274	19544
904.392	19457
904.51	19289
904.627	19365
904.745	19453
904.863	19460
904.981	19320
905.098	19046
905.216	19190
905.334	19038
905.451	19114
905.569	19050
905.686	19137
905.803	19088
905.921	18791
906.038	19023
906.155	18935
906.272	18821
906.389	18825
906.506	18597
906.623	18627
906.74	18547
906.857	18532
906.974	18502
907.091	18570
907.208	18837
907.324	18631
907.441	18570
907.557	18357
907.674	18266
907.79	18338
907.907	18251
908.023	18334
908.139	18467
908.256	18182
908.372	18235
908.488	18144
908.604	18155
908.72	18034
908.836	18098
908.952	18049
909.068	17988
909.184	18106
909.3	18015
909.415	18095
909.531	18026
909.647	17874
909.762	17775
909.878	17714
909.993	17714
910.108	17661
910.224	17718
910.339	17684
910.454	17630
910.57	17467
910.685	17433
910.8	17760
910.915	17668
911.03	17551
911.145	17410
911.259	17318
911.374	17284
911.489	17242
911.604	17155
911.718	17014
911.833	17052
911.947	16953
912.062	16900
912.176	17105
912.291	17132
912.405	17045
912.519	17307
912.633	17185
912.748	16976
912.862	17003
912.976	16877
913.09	16793
913.204	16847
913.318	16881
913.431	16957
913.545	16968
913.659	16946
913.772	16801
913.886	16664
914	16565
914.113	16622
914.226	16778
914.34	16649
914.453	16531
914.566	16672
914.68	16489
914.793	16531
914.906	16295
915.019	16192
915.132	16204
915.245	16124
915.358	16211
915.47	16200
915.583	16192
915.696	16272
915.809	16280
915.921	16238
916.034	16139
916.146	16051
916.259	16086
916.371	16173
916.483	16158
916.595	16002
916.708	15968
916.82	16040
916.932	16010
917.044	16040
917.156	15934
917.268	15778
917.38	15793
917.491	15835
917.603	15816
917.715	15854
917.826	15998
917.938	15800
918.049	15641
918.161	15831
918.272	15907
918.384	15850
918.495	15713
918.606	15629
918.717	15439
918.828	15614
918.939	15530
919.05	15458
919.161	15580
919.272	15332
919.383	15344
919.494	15572
919.604	15720
919.715	15591
919.826	15325
919.936	15420
920.047	15534
920.157	15397
920.267	15701
920.378	15389
920.488	15485
920.598	15652
920.708	15793
920.818	15667
920.928	15542
921.038	15728
921.148	15739
921.258	15469
921.368	15249
921.477	15192
921.587	15192
921.697	15123
921.806	15123
921.916	15032
922.025	14861
922.134	14838
922.244	14788
922.353	14887
922.462	14689
922.571	14667
922.68	14511
922.789	14514
922.898	14503
923.007	14336
923.116	14480
923.224	14347
923.333	14541
923.442	14442
923.55	14229
923.659	14370
923.767	14355
923.876	14305
923.984	14305
924.092	14202
924.201	14164
924.309	14119
924.417	14199
924.525	14119
924.633	14123
924.741	15123
924.849	13944
924.956	14084
925.064	13837
925.172	13811
925.279	13841
925.387	13890
925.494	13807
925.602	14035
925.709	13890
925.816	13719
925.924	13799
926.031	13887
926.138	13814
926.245	13776
926.352	13750
926.459	13807
926.566	13822
926.673	13727
926.779	13647
926.886	13647
926.993	13457
927.099	13453
927.206	13384
927.312	13384
927.419	13491
927.525	13369
927.631	13415
927.737	13324
927.843	13183
927.95	13103
928.056	13171
928.162	13263
928.267	13247
928.373	13795
928.479	13297
928.585	13012
928.69	13126
928.796	13213
928.901	13084
929.007	12890
929.112	13091
929.218	12954
929.323	13015
929.428	12875
929.533	13084
929.638	12825
929.743	12916
929.848	12909
929.953	12878
930.058	12745
930.163	12574
930.267	12601
930.372	12741
930.477	12608
930.581	12810
930.685	12604
930.79	12570
930.894	12475
930.998	12399
931.103	12544
931.207	12258
931.311	12110
931.415	12038
931.519	11790
931.623	11722
