Data from test_V78500241_92.txt Node
Date: Fri Mar 25 15:42:26 CST 2022
User: usil
Spectrometer: V785-0024
Trigger mode: 0
Integration Time (sec): 4.000000E-1
Scans to average: 1
Nonlinearity correction enabled: false
Boxcar width: 0
Storing dark spectrum: false
XAxis mode: Wavelengths
Number of Pixels in Spectrum: 1024
>>>>>Begin Spectral Data<<<<<
801.071	29497
801.214	29486
801.356	29197
801.499	28942
801.641	28828
801.783	29044
801.926	28949
802.068	28873
802.211	28763
802.353	28930
802.496	28672
802.638	28649
802.78	28493
802.923	28618
803.065	28485
803.208	28474
803.35	28694
803.492	28755
803.635	28717
803.777	28596
803.919	28736
804.061	28999
804.204	28656
804.346	28694
804.488	28740
804.63	28687
804.773	28535
804.915	28691
805.057	28797
805.199	28691
805.341	28687
805.483	28717
805.626	28656
805.768	28675
805.91	28717
806.052	28801
806.194	28694
806.336	29067
806.478	28812
806.62	28679
806.762	28923
806.904	28995
807.046	29258
807.188	29197
807.33	29337
807.472	29235
807.614	29071
807.756	29105
807.898	28957
808.04	28828
808.182	28946
808.324	28873
808.465	28942
808.607	29197
808.749	29292
808.891	29303
809.033	29364
809.174	29330
809.316	29147
809.458	29402
809.6	29311
809.741	29322
809.883	29296
810.025	29581
810.166	29368
810.308	29440
810.45	29417
810.591	29474
810.733	29265
810.875	29242
811.016	29212
811.158	29178
811.299	29395
811.441	29425
811.582	29398
811.724	29155
811.865	29231
812.007	29170
812.148	29223
812.29	29239
812.431	29425
812.573	29577
812.714	29649
812.855	29798
812.997	29855
813.138	29942
813.279	29828
813.421	29733
813.562	29668
813.703	29406
813.845	29315
813.986	29048
814.127	29025
814.268	28866
814.41	28774
814.551	28881
814.692	28953
814.833	28790
814.974	28637
815.115	28797
815.256	28584
815.397	28748
815.539	28778
815.68	28466
815.821	28592
815.962	28485
816.103	28508
816.244	28474
816.385	28211
816.526	28249
816.666	28128
816.807	27941
816.948	27949
817.089	28067
817.23	28185
817.371	28101
817.512	27899
817.653	27945
817.793	27842
817.934	27800
818.075	27914
818.216	27918
818.356	28040
818.497	27690
818.638	27625
818.778	27701
818.919	27770
819.06	27743
819.2	27793
819.341	27759
819.481	27732
819.622	28067
819.762	28219
819.903	28101
820.043	27953
820.184	27835
820.324	27816
820.465	27991
820.605	27888
820.746	28017
820.886	27690
821.026	27865
821.167	27892
821.307	27914
821.447	27751
821.588	27644
821.728	27561
821.868	27504
822.008	27275
822.149	27329
822.289	27363
822.429	27017
822.569	26853
822.709	26944
822.849	26750
822.99	26727
823.13	26716
823.27	26693
823.41	26606
823.55	26469
823.69	26541
823.83	26609
823.97	26537
824.11	26385
824.25	26149
824.389	26404
824.529	26370
824.669	26191
824.809	26377
824.949	26347
825.089	26347
825.228	26427
825.368	26122
825.508	26256
825.648	26138
825.787	26138
825.927	26153
826.067	25982
826.206	26005
826.346	26046
826.485	26210
826.625	26107
826.765	26252
826.904	26088
827.044	25955
827.183	25856
827.323	25841
827.462	25860
827.601	25704
827.741	25788
827.88	25788
828.02	25761
828.159	25723
828.298	25727
828.437	25913
828.577	25662
828.716	25955
828.855	25624
828.994	25419
829.134	25487
829.273	25457
829.412	25518
829.551	25426
829.69	25270
829.829	25415
829.968	25460
830.107	25499
830.246	25415
830.385	25335
830.524	25179
830.663	25164
830.802	25129
830.941	24901
831.08	24932
831.219	25015
831.357	24992
831.496	25095
831.635	25004
831.774	24867
831.913	24715
832.051	24749
832.19	24669
832.329	24654
832.467	24623
832.606	24578
832.744	24536
832.883	24494
833.022	24399
833.16	24604
833.299	24460
833.437	24635
833.576	24669
833.714	24673
833.852	24661
833.991	24544
834.129	24669
834.267	24722
834.406	24566
834.544	24604
834.682	24486
834.821	24612
834.959	24863
835.097	24601
835.235	24525
835.373	24593
835.511	24665
835.65	24456
835.788	24353
835.926	24372
836.064	24182
836.202	24133
836.34	24399
836.478	24380
836.615	24429
836.753	24410
836.891	24437
837.029	24319
837.167	24433
837.305	24178
837.443	24190
837.58	24258
837.718	24292
837.856	24190
837.993	24178
838.131	24247
838.269	24197
838.406	24121
838.544	24030
838.681	23821
838.819	23764
838.956	23703
839.094	23558
839.231	23676
839.369	23832
839.506	24068
839.643	23828
839.781	23608
839.918	23421
840.055	23524
840.193	23627
840.33	23589
840.467	23570
840.604	23608
840.742	23874
840.879	23455
841.016	23474
841.153	23474
841.29	23630
841.427	23421
841.564	23570
841.701	23501
841.838	23402
841.975	23425
842.112	23516
842.249	23299
842.385	23143
842.522	23356
842.659	23265
842.796	23033
842.933	23197
843.069	23208
843.206	23041
843.343	23181
843.479	23200
843.616	22949
843.752	22927
843.889	22889
844.025	23056
844.162	22911
844.298	22965
844.435	22790
844.571	22790
844.708	22904
844.844	23052
844.98	22953
845.117	23086
845.253	22736
845.389	22877
845.525	22687
845.661	22828
845.798	22622
845.934	22725
846.07	22440
846.206	22497
846.342	22649
846.478	22622
846.614	22371
846.75	22238
846.886	22287
847.022	22424
847.158	22322
847.294	22371
847.429	22329
847.565	22261
847.701	22417
847.837	22059
847.972	22143
848.108	22051
848.244	22124
848.379	21926
848.515	21819
848.65	21789
848.786	21915
848.921	21945
849.057	21991
849.192	21953
849.328	21838
849.463	21972
849.598	21732
849.734	21785
849.869	21728
850.004	21576
850.14	21679
850.275	21622
850.41	21595
850.545	21595
850.68	21534
850.815	21583
850.95	21549
851.085	21789
851.22	21656
851.355	21679
851.49	21557
851.625	21568
851.76	21625
851.895	21477
852.03	21526
852.165	21603
852.299	21679
852.434	21629
852.569	21580
852.703	21633
852.838	21641
852.973	21701
853.107	21736
853.242	21378
853.376	21420
853.511	21150
853.645	21405
853.78	21519
853.914	21389
854.048	21283
854.183	21336
854.317	21397
854.451	21629
854.585	21348
854.72	21283
854.854	21310
854.988	21291
855.122	21249
855.256	21348
855.39	21272
855.524	21458
855.658	21355
855.792	21412
855.926	21252
856.06	21355
856.194	21488
856.327	21397
856.461	21291
856.595	21283
856.729	21485
856.862	21405
856.996	21382
857.13	21477
857.263	21313
857.397	21466
857.53	21283
857.664	21439
857.797	21469
857.931	21348
858.064	21340
858.197	21504
858.331	21222
858.464	21176
858.597	21184
858.731	21207
858.864	21127
858.997	21298
859.13	21382
859.263	21340
859.396	21233
859.529	21237
859.662	21081
859.795	21161
859.928	21272
860.061	21462
860.194	21275
860.327	21332
860.46	21306
860.592	21283
860.725	21397
860.858	21378
860.99	21165
861.123	21348
861.256	21195
861.388	21348
861.521	21823
861.653	21055
861.786	21127
861.918	21188
862.05	21302
862.183	21264
862.315	21317
862.447	21382
862.58	21226
862.712	20998
862.844	20963
862.976	21093
863.108	20925
863.24	21412
863.372	20880
863.504	21028
863.636	21131
863.768	20971
863.9	20956
864.032	20853
864.164	20902
864.296	20910
864.428	21116
864.559	21001
864.691	20933
864.823	21051
864.954	20956
865.086	20933
865.217	20944
865.349	20777
865.48	20880
865.612	20777
865.743	21100
865.875	20887
866.006	20735
866.137	20933
866.269	20811
866.4	20826
866.531	20807
866.662	20716
866.793	20651
866.924	20731
867.055	20918
867.186	20876
867.317	20682
867.448	20735
867.579	20670
867.71	20708
867.841	20724
867.972	20750
868.103	20796
868.233	20769
868.364	20769
868.495	20758
868.625	21005
868.756	21066
868.886	20918
869.017	20826
869.147	21013
869.278	21058
869.408	20979
869.539	20952
869.669	21036
869.799	20963
869.929	21199
870.06	21104
870.19	21355
870.32	21268
870.45	21363
870.58	21386
870.71	21424
870.84	21488
870.97	21302
871.1	21306
871.23	21587
871.36	21507
871.489	21454
871.619	21469
871.749	21614
871.879	21496
872.008	21736
872.138	21656
872.267	21599
872.397	21401
872.526	21420
872.656	21523
872.785	21363
872.915	21656
873.044	21644
873.173	21770
873.303	21553
873.432	21644
873.561	21694
873.69	21633
873.819	21435
873.948	21667
874.077	21629
874.206	21557
874.335	21618
874.464	21755
874.593	21972
874.722	21736
874.851	21857
874.979	21762
875.108	21930
875.237	21797
875.365	21698
875.494	21759
875.623	21907
875.751	21838
875.88	21865
876.008	21968
876.136	21972
876.265	22268
876.393	22386
876.521	22287
876.65	22360
876.778	22249
876.906	22196
877.034	22192
877.162	22272
877.29	22082
877.418	22303
877.546	22238
877.674	22265
877.802	22181
877.93	22257
878.058	22230
878.185	22032
878.313	22169
878.441	22226
878.568	22063
878.696	22040
878.824	22249
878.951	22276
879.079	22306
879.206	22436
879.333	22363
879.461	22226
879.588	22432
879.715	22348
879.842	22436
879.97	22268
880.097	21926
880.224	21979
880.351	22036
880.478	22067
880.605	21975
880.732	22090
880.859	22215
880.986	21968
881.112	22082
881.239	21983
881.366	21778
881.493	21641
881.619	21603
881.746	21705
881.872	21652
881.999	21561
882.125	21431
882.252	21564
882.378	21534
882.505	21823
882.631	21515
882.757	21450
882.883	21473
883.01	21329
883.136	21260
883.262	21207
883.388	21135
883.514	21310
883.64	21348
883.766	21245
883.892	21127
884.018	21135
884.143	21279
884.269	21408
884.395	21100
884.52	20990
884.646	21005
884.772	20853
884.897	20925
885.023	20906
885.148	21077
885.274	21085
885.399	21089
885.524	20845
885.65	21009
885.775	20967
885.9	20887
886.025	21131
886.15	21051
886.275	20758
886.4	20739
886.525	20956
886.65	20857
886.775	20842
886.9	21001
887.025	21222
887.149	20853
887.274	20720
887.399	20686
887.523	20670
887.648	20606
887.773	20667
887.897	20735
888.021	20724
888.146	20727
888.27	20708
888.395	20937
888.519	20697
888.643	20861
888.767	20758
888.891	20598
889.015	20495
889.139	20514
889.263	20492
889.387	20545
889.511	20602
889.635	20575
889.759	20469
889.883	20370
890.006	20530
890.13	20564
890.254	20355
890.377	20446
890.501	20309
890.624	20161
890.748	20351
890.871	20134
890.995	20020
891.118	19955
891.241	20069
891.364	20081
891.488	20221
891.611	20058
891.734	20077
891.857	20073
891.98	20043
892.103	20016
892.226	20020
892.349	20008
892.471	19780
892.594	19997
892.717	19978
892.839	19978
892.962	19921
893.085	19955
893.207	19951
893.33	19879
893.452	19932
893.575	20046
893.697	19833
893.819	20172
893.941	20161
894.064	20126
894.186	20027
894.308	19928
894.43	20069
894.552	20119
894.674	20073
894.796	19894
894.918	19913
895.04	19936
895.161	20065
895.283	20001
895.405	19906
895.526	19967
895.648	19974
895.769	19967
895.891	20081
896.012	20142
896.134	20122
896.255	20001
896.376	20084
896.498	19989
896.619	20020
896.74	19997
896.861	20149
896.982	20347
897.103	20541
897.224	20317
897.345	20229
897.466	20187
897.587	20180
897.708	20229
897.828	20301
897.949	20103
898.07	20043
898.19	20138
898.311	20225
898.431	20084
898.552	20183
898.672	20298
898.792	20142
898.913	20134
899.033	20062
899.153	20096
899.273	19807
899.393	19849
899.513	19978
899.633	19928
899.753	19791
899.873	19940
899.993	19963
900.113	19837
900.232	19947
900.352	19814
900.472	19769
900.591	19643
900.711	19696
900.83	19563
900.95	19738
901.069	19811
901.189	19708
901.308	19365
901.427	19221
901.546	19183
901.665	19247
901.784	19297
901.904	19072
902.023	18996
902.141	18837
902.26	18829
902.379	18871
902.498	18738
902.617	18635
902.735	18669
902.854	18700
902.973	18601
903.091	18559
903.21	18426
903.328	18483
903.446	18433
903.565	18262
903.683	18251
903.801	18057
903.919	18247
904.038	18334
904.156	17988
904.274	18064
904.392	18045
904.51	17969
904.627	18015
904.745	17939
904.863	18015
904.981	17821
905.098	17627
905.216	17710
905.334	17646
905.451	17684
905.569	17589
905.686	17611
905.803	17687
905.921	17467
906.038	17440
906.155	17425
906.272	17315
906.389	17482
906.506	17261
906.623	17235
906.74	17136
906.857	17109
906.974	17083
907.091	17227
907.208	17303
907.324	17216
907.441	17041
907.557	16923
907.674	16934
907.79	16740
907.907	16877
908.023	16862
908.139	16824
908.256	16729
908.372	16733
908.488	16694
908.604	16538
908.72	16443
908.836	16611
908.952	16558
909.068	16550
909.184	16634
909.3	16542
909.415	16573
909.531	16375
909.647	16337
909.762	16120
909.878	16192
909.993	16268
910.108	16093
910.224	16230
910.339	16226
910.454	16177
910.57	16150
910.685	16025
910.8	16303
910.915	16139
911.03	16059
911.145	15835
911.259	15876
911.374	15747
911.489	15759
911.604	15606
911.718	15572
911.833	15637
911.947	15473
912.062	15496
912.176	15545
912.291	15675
912.405	15603
912.519	15701
912.633	15743
912.748	15584
912.862	15591
912.976	15386
913.09	15272
913.204	15214
913.318	15325
913.431	15443
913.545	15447
913.659	15519
913.772	15313
913.886	15108
914	15089
914.113	15325
914.226	15283
914.34	15298
914.453	15093
914.566	15222
914.68	15142
914.793	15123
914.906	14864
915.019	14746
915.132	14750
915.245	14845
915.358	14887
915.47	14891
915.583	14674
915.696	14777
915.809	14895
915.921	14868
916.034	14708
916.146	14727
916.259	14758
916.371	14762
916.483	14727
916.595	14579
916.708	14697
916.82	14587
916.932	14560
917.044	14560
917.156	14511
917.268	14495
917.38	14469
917.491	14450
917.603	14442
917.715	14499
917.826	14545
917.938	14400
918.049	14347
918.161	14450
918.272	14484
918.384	14617
918.495	14370
918.606	14275
918.717	14164
918.828	14309
918.939	14229
919.05	14168
919.161	14206
919.272	14024
919.383	13921
919.494	14134
919.604	14324
919.715	14168
919.826	14073
919.936	14157
920.047	14202
920.157	14149
920.267	14389
920.378	14107
920.488	14149
920.598	14248
920.708	14427
920.818	14233
920.928	14324
921.038	14438
921.148	14309
921.258	14077
921.368	14046
921.477	13940
921.587	13860
921.697	13704
921.806	13902
921.916	13784
922.025	13586
922.134	13594
922.244	13476
922.353	13556
922.462	13403
922.571	13362
922.68	13171
922.789	13141
922.898	13187
923.007	13080
923.116	13209
923.224	13103
923.333	13114
923.442	13034
923.55	12958
923.659	12947
923.767	13099
923.876	12924
923.984	13004
924.092	12913
924.201	12966
924.309	12882
924.417	12848
924.525	12890
924.633	12863
924.741	13655
924.849	12547
924.956	12875
925.064	12585
925.172	12551
925.279	12589
925.387	12589
925.494	12578
925.602	12772
925.709	12677
925.816	12486
925.924	12585
926.031	12658
926.138	12642
926.245	12547
926.352	12433
926.459	12563
926.566	12536
926.673	12441
926.779	12403
926.886	12437
926.993	12178
927.099	12129
927.206	12114
927.312	12034
927.419	12136
927.525	12072
927.631	12140
927.737	12068
927.843	12079
927.95	11923
928.056	11893
928.162	11916
928.267	12041
928.373	12559
928.479	12060
928.585	11794
928.69	11920
928.796	12026
928.901	11847
929.007	11726
929.112	11904
929.218	11775
929.323	11756
929.428	11577
929.533	11809
929.638	11676
929.743	11638
929.848	11680
929.953	11665
930.058	11471
930.163	11315
930.267	11448
930.372	11611
930.477	11402
930.581	11566
930.685	11455
930.79	11261
930.894	11318
930.998	11246
931.103	11372
931.207	10972
931.311	10965
931.415	10877
931.519	10618
931.623	10599
