Data from test_V78500241_1077.txt Node
Date: Fri Mar 25 15:49:15 CST 2022
User: usil
Spectrometer: V785-0024
Trigger mode: 0
Integration Time (sec): 4.000000E-1
Scans to average: 1
Nonlinearity correction enabled: false
Boxcar width: 0
Storing dark spectrum: false
XAxis mode: Wavelengths
Number of Pixels in Spectrum: 1024
>>>>>Begin Spectral Data<<<<<
801.071	28386
801.214	28272
801.356	28158
801.499	28048
801.641	27816
801.783	27793
801.926	28017
802.068	27831
802.211	27884
802.353	27698
802.496	27690
802.638	27625
802.78	27561
802.923	27507
803.065	27591
803.208	27496
803.35	27652
803.492	27709
803.635	27869
803.777	27823
803.919	27720
804.061	28200
804.204	27854
804.346	27652
804.488	27622
804.63	27785
804.773	27603
804.915	27671
805.057	27922
805.199	27652
805.341	27679
805.483	28055
805.626	27956
805.768	27903
805.91	27934
806.052	27899
806.194	27808
806.336	28044
806.478	28036
806.62	27899
806.762	28135
806.904	28219
807.046	28592
807.188	28344
807.33	28375
807.472	28401
807.614	28371
807.756	28398
807.898	28325
808.04	28249
808.182	28147
808.324	28306
808.465	28379
808.607	28527
808.749	28630
808.891	28702
809.033	28839
809.174	28778
809.316	28679
809.458	28618
809.6	28622
809.741	28713
809.883	28771
810.025	28854
810.166	28858
810.308	28862
810.45	28923
810.591	28778
810.733	28679
810.875	28649
811.016	28497
811.158	28481
811.299	28843
811.441	28816
811.582	28831
811.724	28786
811.865	28634
812.007	28668
812.148	28683
812.29	28740
812.431	28790
812.573	29025
812.714	29025
812.855	29178
812.997	29395
813.138	29402
813.279	29140
813.421	29322
813.562	29181
813.703	28987
813.845	28831
813.986	28679
814.127	28489
814.268	28268
814.41	28470
814.551	28230
814.692	28459
814.833	28284
814.974	28219
815.115	28516
815.256	28242
815.397	28257
815.539	28219
815.68	28021
815.821	28112
815.962	28101
816.103	28128
816.244	28067
816.385	27930
816.526	27922
816.666	27736
816.807	27580
816.948	27907
817.089	27854
817.23	27606
817.371	27622
817.512	27507
817.653	27572
817.793	27538
817.934	27618
818.075	27736
818.216	27698
818.356	27610
818.497	27408
818.638	27416
818.778	27332
818.919	27447
819.06	27389
819.2	27568
819.341	27625
819.481	27644
819.622	27800
819.762	27918
819.903	27869
820.043	27880
820.184	27743
820.324	27762
820.465	28002
820.605	27797
820.746	27819
820.886	27637
821.026	27793
821.167	27770
821.307	27789
821.447	27667
821.588	27720
821.728	27568
821.868	27393
822.008	27131
822.149	27195
822.289	27051
822.429	26819
822.569	26754
822.709	26872
822.849	26583
822.99	26781
823.13	26651
823.27	26621
823.41	26514
823.55	26305
823.69	26469
823.83	26495
823.97	26434
824.11	26275
824.25	26275
824.389	26256
824.529	26396
824.669	26423
824.809	26389
824.949	26522
825.089	26461
825.228	26385
825.368	26115
825.508	26259
825.648	26077
825.787	26275
825.927	26180
826.067	26100
826.206	26168
826.346	26240
826.485	26206
826.625	26119
826.765	26214
826.904	26180
827.044	25963
827.183	25944
827.323	25841
827.462	25883
827.601	25818
827.741	25860
827.88	25902
828.02	25769
828.159	25727
828.298	25852
828.437	25944
828.577	25822
828.716	25989
828.855	25708
828.994	25521
829.134	25563
829.273	25556
829.412	25396
829.551	25502
829.69	25537
829.829	25613
829.968	25750
830.107	25651
830.246	25632
830.385	25491
830.524	25369
830.663	25327
830.802	25209
830.941	25107
831.08	25171
831.219	25206
831.357	25183
831.496	25430
831.635	25103
831.774	25164
831.913	25099
832.051	25122
832.19	24871
832.329	24947
832.467	24932
832.606	24802
832.744	24859
832.883	24753
833.022	24856
833.16	24882
833.299	24837
833.437	24844
833.576	24779
833.714	24856
833.852	25008
833.991	24882
834.129	24992
834.267	24966
834.406	24985
834.544	24875
834.682	25107
834.821	24996
834.959	24985
835.097	24821
835.235	24916
835.373	24840
835.511	24913
835.65	24726
835.788	24764
835.926	24650
836.064	24486
836.202	24528
836.34	24829
836.478	24958
836.615	24616
836.753	24833
836.891	24798
837.029	24715
837.167	24696
837.305	24635
837.443	24608
837.58	24582
837.718	24559
837.856	24604
837.993	24452
838.131	24601
838.269	24429
838.406	24361
838.544	24460
838.681	24201
838.819	24117
838.956	23904
839.094	24060
839.231	23984
839.369	24186
839.506	24399
839.643	24171
839.781	24057
839.918	23954
840.055	23885
840.193	23935
840.33	23961
840.467	23958
840.604	24057
840.742	24125
840.879	23863
841.016	23897
841.153	23908
841.29	24003
841.427	23859
841.564	23958
841.701	24003
841.838	23946
841.975	23889
842.112	23767
842.249	23794
842.385	23748
842.522	23996
842.659	23843
842.796	23737
842.933	23699
843.069	23699
843.206	23634
843.343	23687
843.479	23676
843.616	23589
843.752	23334
843.889	23455
844.025	23611
844.162	23425
844.298	23638
844.435	23478
844.571	23467
844.708	23573
844.844	23661
844.98	23680
845.117	23623
845.253	23509
845.389	23318
845.525	23311
845.661	23254
845.798	23193
845.934	23341
846.07	23174
846.206	23288
846.342	23303
846.478	23189
846.614	23003
846.75	22957
846.886	22831
847.022	22877
847.158	22961
847.294	23003
847.429	22972
847.565	22900
847.701	23086
847.837	22820
847.972	22611
848.108	22717
848.244	22668
848.379	22611
848.515	22542
848.65	22500
848.786	22561
848.921	22569
849.057	22527
849.192	22542
849.328	22611
849.463	22409
849.598	22428
849.734	22337
849.869	22303
850.004	22162
850.14	22276
850.275	22417
850.41	22162
850.545	22272
850.68	22226
850.815	22215
850.95	22249
851.085	22367
851.22	22440
851.355	22367
851.49	22246
851.625	22219
851.76	22257
851.895	22223
852.03	22131
852.165	22230
852.299	22257
852.434	22379
852.569	22268
852.703	22211
852.838	22333
852.973	22474
853.107	22382
853.242	22234
853.376	22188
853.511	22025
853.645	22135
853.78	22230
853.914	22078
854.048	22017
854.183	22101
854.317	22177
854.451	22314
854.585	22109
854.72	22090
854.854	22306
854.988	22010
855.122	22105
855.256	22002
855.39	22067
855.524	22188
855.658	22215
855.792	22143
855.926	22158
856.06	22261
856.194	22181
856.327	22055
856.461	22040
856.595	22032
856.729	21960
856.862	22219
856.996	21991
857.13	22173
857.263	22169
857.397	22257
857.53	22021
857.664	22135
857.797	22162
857.931	22253
858.064	22112
858.197	22158
858.331	22036
858.464	21865
858.597	22029
858.731	21983
858.864	22040
858.997	22059
859.13	22067
859.263	22185
859.396	22207
859.529	22143
859.662	22143
859.795	22002
859.928	22078
860.061	22188
860.194	22226
860.327	22143
860.46	22002
860.592	22196
860.725	22284
860.858	22276
860.99	22234
861.123	22044
861.256	22090
861.388	22021
861.521	22713
861.653	21857
861.786	21934
861.918	21823
862.05	21956
862.183	22044
862.315	22120
862.447	22055
862.58	22010
862.712	21835
862.844	21861
862.976	21903
863.108	21937
863.24	22230
863.372	21759
863.504	21835
863.636	21743
863.768	21873
863.9	21785
864.032	21739
864.164	21724
864.296	21766
864.428	21903
864.559	21816
864.691	21964
864.823	21888
864.954	21781
865.086	21766
865.217	21660
865.349	21679
865.48	21663
865.612	21667
865.743	21808
865.875	21633
866.006	21690
866.137	21747
866.269	21743
866.4	21599
866.531	21595
866.662	21549
866.793	21606
866.924	21587
867.055	21576
867.186	21561
867.317	21614
867.448	21572
867.579	21580
867.71	21538
867.841	21507
867.972	21682
868.103	21648
868.233	21648
868.364	21553
868.495	21812
868.625	21774
868.756	21861
868.886	21869
869.017	21800
869.147	21911
869.278	21922
869.408	21819
869.539	21800
869.669	21991
869.799	22074
869.929	22017
870.06	21907
870.19	22223
870.32	22097
870.45	22242
870.58	22329
870.71	22284
870.84	22318
870.97	22143
871.1	22284
871.23	22455
871.36	22451
871.489	22310
871.619	22462
871.749	22485
871.879	22489
872.008	22508
872.138	22394
872.267	22443
872.397	22306
872.526	22192
872.656	22360
872.785	22352
872.915	22535
873.044	22409
873.173	22500
873.303	22573
873.432	22531
873.561	22531
873.69	22519
873.819	22348
873.948	22550
874.077	22440
874.206	22421
874.335	22409
874.464	22546
874.593	22649
874.722	22637
874.851	22733
874.979	22615
875.108	22786
875.237	22546
875.365	22672
875.494	22637
875.623	22717
875.751	22683
875.88	22816
876.008	22839
876.136	22873
876.265	22957
876.393	23200
876.521	23170
876.65	23128
876.778	23117
876.906	22999
877.034	23086
877.162	23083
877.29	23044
877.418	22980
877.546	23014
877.674	22961
877.802	23113
877.93	22946
878.058	23044
878.185	22847
878.313	22896
878.441	22930
878.568	22755
878.696	22866
878.824	23147
878.951	23128
879.079	23311
879.206	23353
879.333	23223
879.461	23098
879.588	23113
879.715	23128
879.842	23318
879.97	23102
880.097	22915
880.224	22809
880.351	22831
880.478	22786
880.605	22786
880.732	22866
880.859	22976
880.986	22911
881.112	22847
881.239	22672
881.366	22580
881.493	22516
881.619	22352
881.746	22459
881.872	22417
881.999	22306
882.125	22322
882.252	22421
882.378	22390
882.505	22493
882.631	22299
882.757	22116
882.883	22188
883.01	22185
883.136	21994
883.262	21934
883.388	21876
883.514	22135
883.64	22162
883.766	21991
883.892	21854
884.018	21819
884.143	21983
884.269	22105
884.395	21861
884.52	21701
884.646	21759
884.772	21682
884.897	21682
885.023	21705
885.148	21755
885.274	21846
885.399	21831
885.524	21652
885.65	21663
885.775	21682
885.9	21576
886.025	21641
886.15	21865
886.275	21743
886.4	21652
886.525	21781
886.65	21675
886.775	21644
886.9	21838
887.025	21907
887.149	21713
887.274	21504
887.399	21485
887.523	21401
887.648	21519
887.773	21534
887.897	21526
888.021	21542
888.146	21397
888.27	21553
888.395	21583
888.519	21549
888.643	21439
888.767	21595
888.891	21370
889.015	21272
889.139	21230
889.263	21294
889.387	21435
889.511	21595
889.635	21481
889.759	21241
889.883	21245
890.006	21252
890.13	21424
890.254	21317
890.377	21298
890.501	21001
890.624	20982
890.748	21192
890.871	20918
890.995	20887
891.118	20819
891.241	20883
891.364	20838
891.488	20937
891.611	20918
891.734	20906
891.857	20937
891.98	20986
892.103	20918
892.226	20906
892.349	20853
892.471	20659
892.594	20762
892.717	20826
892.839	20800
892.962	20689
893.085	20769
893.207	20617
893.33	20640
893.452	20590
893.575	20762
893.697	20629
893.819	20815
893.941	20853
894.064	21028
894.186	20606
894.308	20678
894.43	20773
894.552	20857
894.674	20781
894.796	20613
894.918	20727
895.04	20594
895.161	20826
895.283	20602
895.405	20655
895.526	20682
895.648	20842
895.769	20781
895.891	20727
896.012	20743
896.134	20773
896.255	20823
896.376	20765
896.498	20735
896.619	20800
896.74	20743
896.861	20773
896.982	21138
897.103	21077
897.224	21009
897.345	20986
897.466	20948
897.587	20895
897.708	21001
897.828	21017
897.949	20929
898.07	20834
898.19	20845
898.311	20979
898.431	20914
898.552	21001
898.672	21070
898.792	21020
898.913	20868
899.033	20853
899.153	20644
899.273	20526
899.393	20712
899.513	20811
899.633	20579
899.753	20674
899.873	20568
899.993	20735
900.113	20640
900.232	20533
900.352	20621
900.472	20522
900.591	20320
900.711	20419
900.83	20389
900.95	20469
901.069	20484
901.189	20423
901.308	20138
901.427	20092
901.546	19974
901.665	19959
901.784	20043
901.904	19849
902.023	19727
902.141	19674
902.26	19540
902.379	19597
902.498	19521
902.617	19457
902.735	19601
902.854	19464
902.973	19415
903.091	19183
903.21	19232
903.328	19095
903.446	19088
903.565	19023
903.683	19031
903.801	18814
903.919	18916
904.038	18962
904.156	18760
904.274	18779
904.392	18779
904.51	18730
904.627	18715
904.745	18753
904.863	18741
904.981	18578
905.098	18494
905.216	18506
905.334	18475
905.451	18513
905.569	18319
905.686	18407
905.803	18437
905.921	18155
906.038	18216
906.155	18190
906.272	18136
906.389	18106
906.506	17977
906.623	17950
906.74	17912
906.857	17684
906.974	17840
907.091	17988
907.208	18041
907.324	17916
907.441	17821
907.557	17828
907.674	17707
907.79	17653
907.907	17630
908.023	17562
908.139	17638
908.256	17710
908.372	17551
908.488	17501
908.604	17516
908.72	17299
908.836	17395
908.952	17356
909.068	17455
909.184	17368
909.3	17387
909.415	17337
909.531	17376
909.647	17060
909.762	17071
909.878	17018
909.993	16930
910.108	17094
910.224	17033
910.339	17109
910.454	16946
910.57	16892
910.685	16774
910.8	17060
910.915	17025
911.03	16805
911.145	16717
911.259	16603
911.374	16596
911.489	16592
911.604	16432
911.718	16443
911.833	16386
911.947	16424
912.062	16238
912.176	16356
912.291	16485
912.405	16459
912.519	16592
912.633	16580
912.748	16440
912.862	16360
912.976	16196
913.09	16120
913.204	16120
913.318	16135
913.431	16192
913.545	16238
913.659	16257
913.772	16154
913.886	16055
914	15987
914.113	16063
914.226	16112
914.34	16002
914.453	15865
914.566	16040
914.68	15899
914.793	15755
914.906	15701
915.019	15618
915.132	15603
915.245	15542
915.358	15492
915.47	15637
915.583	15656
915.696	15584
915.809	15694
915.921	15686
916.034	15496
916.146	15572
916.259	15466
916.371	15538
916.483	15477
916.595	15473
916.708	15473
916.82	15523
916.932	15363
917.044	15386
917.156	15374
917.268	15199
917.38	15207
917.491	15146
917.603	15165
917.715	15321
917.826	15291
917.938	15100
918.049	15066
918.161	15184
918.272	15230
918.384	15230
918.495	15119
918.606	14956
918.717	14910
918.828	15024
918.939	15058
919.05	14838
919.161	15005
919.272	14727
919.383	14857
919.494	15039
919.604	15135
919.715	14971
919.826	14830
919.936	14842
920.047	15051
920.157	14899
920.267	15039
920.378	14838
920.488	14849
920.598	15116
920.708	15256
920.818	15001
920.928	15032
921.038	15233
921.148	15138
921.258	14887
921.368	14708
921.477	14610
921.587	14594
921.697	14495
921.806	14701
921.916	14514
922.025	14351
922.134	14298
922.244	14229
922.353	14355
922.462	14153
922.571	14031
922.68	14031
922.789	14027
922.898	13890
923.007	13841
923.116	14046
923.224	13902
923.333	13849
923.442	13761
923.55	13841
923.659	13689
923.767	13849
923.876	13765
923.984	13715
924.092	13746
924.201	13731
924.309	13670
924.417	13605
924.525	13590
924.633	13601
924.741	14370
924.849	13460
924.956	13556
925.064	13419
925.172	13289
925.279	13327
925.387	13304
925.494	13335
925.602	13460
925.709	13388
925.816	13244
925.924	13259
926.031	13430
926.138	13316
926.245	13327
926.352	13312
926.459	13274
926.566	13464
926.673	13263
926.779	13057
926.886	13099
926.993	13004
927.099	12951
927.206	12890
927.312	12863
927.419	12989
927.525	12905
927.631	12871
927.737	12764
927.843	12829
927.95	12642
928.056	12779
928.162	12711
928.267	12802
928.373	13263
928.479	12863
928.585	12570
928.69	12726
928.796	12692
928.901	12623
929.007	12452
929.112	12601
929.218	12582
929.323	12448
929.428	12452
929.533	12528
929.638	12376
929.743	12433
929.848	12517
929.953	12353
930.058	12300
930.163	12140
930.267	12117
930.372	12323
930.477	12136
930.581	12384
930.685	12163
930.79	12045
930.894	12133
930.998	11927
931.103	12163
931.207	11764
931.311	11619
931.415	11570
931.519	11330
931.623	11391
