Data from test_V78500241_315.txt Node
Date: Fri Mar 25 15:43:59 CST 2022
User: usil
Spectrometer: V785-0024
Trigger mode: 0
Integration Time (sec): 4.000000E-1
Scans to average: 1
Nonlinearity correction enabled: false
Boxcar width: 0
Storing dark spectrum: false
XAxis mode: Wavelengths
Number of Pixels in Spectrum: 1024
>>>>>Begin Spectral Data<<<<<
801.071	29832
801.214	29866
801.356	29707
801.499	29551
801.641	29577
801.783	29581
801.926	29661
802.068	29524
802.211	29463
802.353	29341
802.496	29212
802.638	29223
802.78	29280
802.923	29006
803.065	29105
803.208	29140
803.35	29143
803.492	29372
803.635	29383
803.777	29193
803.919	29375
804.061	29646
804.204	29288
804.346	29383
804.488	29292
804.63	29356
804.773	29242
804.915	29398
805.057	29452
805.199	29318
805.341	29524
805.483	29490
805.626	29410
805.768	29444
805.91	29349
806.052	29421
806.194	29512
806.336	29714
806.478	29531
806.62	29463
806.762	29577
806.904	29809
807.046	29923
807.188	29927
807.33	29874
807.472	29901
807.614	29927
807.756	29824
807.898	29828
808.04	29562
808.182	29790
808.324	29653
808.465	29756
808.607	30041
808.749	30117
808.891	30213
809.033	30319
809.174	30232
809.316	30232
809.458	30125
809.6	30167
809.741	30213
809.883	30213
810.025	30327
810.166	30391
810.308	30433
810.45	30422
810.591	30304
810.733	30163
810.875	30057
811.016	30060
811.158	30038
811.299	30277
811.441	30174
811.582	30251
811.724	30053
811.865	30186
812.007	30098
812.148	30148
812.29	30209
812.431	30273
812.573	30422
812.714	30505
812.855	30677
812.997	30791
813.138	30802
813.279	30890
813.421	30642
813.562	30601
813.703	30479
813.845	30353
813.986	29969
814.127	29916
814.268	29862
814.41	29836
814.551	29756
814.692	30018
814.833	29726
814.974	29817
815.115	29946
815.256	29760
815.397	29726
815.539	29581
815.68	29703
815.821	29463
815.962	29528
816.103	29520
816.244	29638
816.385	29246
816.526	29345
816.666	29102
816.807	29037
816.948	29162
817.089	29159
817.23	29056
817.371	29056
817.512	29083
817.653	28873
817.793	28930
817.934	28923
818.075	29090
818.216	29025
818.356	28911
818.497	28797
818.638	28679
818.778	28694
818.919	28687
819.06	28892
819.2	28839
819.341	29006
819.481	28991
819.622	29220
819.762	29372
819.903	29383
820.043	29315
820.184	29105
820.324	29060
820.465	29216
820.605	29098
820.746	29143
820.886	28987
821.026	29136
821.167	29102
821.307	29010
821.447	28972
821.588	28904
821.728	28763
821.868	28546
822.008	28474
822.149	28421
822.289	28314
822.429	28192
822.569	28032
822.709	28230
822.849	28010
822.99	28086
823.13	27774
823.27	27762
823.41	27717
823.55	27603
823.69	27785
823.83	27713
823.97	27564
824.11	27568
824.25	27561
824.389	27488
824.529	27595
824.669	27481
824.809	27652
824.949	27671
825.089	27614
825.228	27580
825.368	27427
825.508	27382
825.648	27389
825.787	27424
825.927	27473
826.067	27397
826.206	27443
826.346	27439
826.485	27386
826.625	27355
826.765	27367
826.904	27370
827.044	27214
827.183	27123
827.323	27146
827.462	27096
827.601	27150
827.741	27237
827.88	26982
828.02	26864
828.159	27180
828.298	27176
828.437	26895
828.577	27005
828.716	27241
828.855	26982
828.994	26625
829.134	26731
829.273	26804
829.412	26689
829.551	26651
829.69	26602
829.829	26705
829.968	26796
830.107	26830
830.246	26739
830.385	26552
830.524	26667
830.663	26415
830.802	26480
830.941	26248
831.08	26187
831.219	26396
831.357	26336
831.496	26533
831.635	26324
831.774	26191
831.913	26084
832.051	26069
832.19	26077
832.329	26153
832.467	26107
832.606	25807
832.744	25856
832.883	25974
833.022	25966
833.16	25887
833.299	25868
833.437	26062
833.576	26054
833.714	26119
833.852	26039
833.991	25871
834.129	26062
834.267	26069
834.406	25909
834.544	25955
834.682	25894
834.821	25902
834.959	26031
835.097	25894
835.235	25959
835.373	25951
835.511	25917
835.65	25788
835.788	25746
835.926	25727
836.064	25567
836.202	25715
836.34	25769
836.478	25852
836.615	25746
836.753	25769
836.891	25708
837.029	25807
837.167	25693
837.305	25635
837.443	25658
837.58	25632
837.718	25647
837.856	25533
837.993	25643
838.131	25548
838.269	25411
838.406	25388
838.544	25327
838.681	25266
838.819	25179
838.956	24962
839.094	24947
839.231	25122
839.369	25095
839.506	25350
839.643	25278
839.781	24985
839.918	24913
840.055	25023
840.193	24875
840.33	24833
840.467	24848
840.604	24992
840.742	25266
840.879	24654
841.016	24875
841.153	24844
841.29	25046
841.427	24837
841.564	24909
841.701	24882
841.838	24802
841.975	24833
842.112	24749
842.249	24711
842.385	24677
842.522	24871
842.659	24707
842.796	24585
842.933	24513
843.069	24490
843.206	24426
843.343	24544
843.479	24696
843.616	24570
843.752	24357
843.889	24254
844.025	24528
844.162	24350
844.298	24311
844.435	24338
844.571	24239
844.708	24304
844.844	24490
844.98	24456
845.117	24456
845.253	24353
845.389	24220
845.525	24224
845.661	24213
845.798	24034
845.934	24068
846.07	24011
846.206	24098
846.342	24068
846.478	23969
846.614	23748
846.75	23741
846.886	23756
847.022	23642
847.158	23741
847.294	23767
847.429	23912
847.565	23695
847.701	24038
847.837	23493
847.972	23337
848.108	23653
848.244	23642
848.379	23436
848.515	23288
848.65	23410
848.786	23376
848.921	23212
849.057	23383
849.192	23414
849.328	23368
849.463	23292
849.598	23379
849.734	23204
849.869	23121
850.004	22942
850.14	23094
850.275	23094
850.41	22923
850.545	22930
850.68	22904
850.815	23090
850.95	22862
851.085	23109
851.22	23265
851.355	22934
851.49	23060
851.625	23064
851.76	22980
851.895	22896
852.03	22949
852.165	22908
852.299	23113
852.434	23151
852.569	23003
852.703	22984
852.838	23052
852.973	23090
853.107	23147
853.242	22869
853.376	22847
853.511	22824
853.645	22828
853.78	22934
853.914	22881
854.048	22839
854.183	22763
854.317	22843
854.451	22968
854.585	22896
854.72	22900
854.854	22923
854.988	22725
855.122	22790
855.256	22706
855.39	22786
855.524	22896
855.658	22854
855.792	22869
855.926	22919
856.06	22801
856.194	22797
856.327	22752
856.461	22736
856.595	22797
856.729	22725
856.862	22923
856.996	22828
857.13	22828
857.263	22934
857.397	22858
857.53	22752
857.664	22892
857.797	22790
857.931	22904
858.064	22759
858.197	22873
858.331	22835
858.464	22755
858.597	22713
858.731	22828
858.864	22691
858.997	22698
859.13	22805
859.263	22801
859.396	22748
859.529	22778
859.662	22801
859.795	22596
859.928	22858
860.061	22858
860.194	22938
860.327	22763
860.46	22740
860.592	22782
860.725	22881
860.858	22869
860.99	22774
861.123	22790
861.256	22748
861.388	22672
861.521	23509
861.653	22588
861.786	22668
861.918	22603
862.05	22778
862.183	22679
862.315	22801
862.447	22858
862.58	22687
862.712	22512
862.844	22516
862.976	22577
863.108	22630
863.24	22949
863.372	22398
863.504	22474
863.636	22500
863.768	22596
863.9	22413
864.032	22466
864.164	22390
864.296	22432
864.428	22531
864.559	22451
864.691	22550
864.823	22386
864.954	22500
865.086	22360
865.217	22352
865.349	22280
865.48	22299
865.612	22223
865.743	22557
865.875	22432
866.006	22360
866.137	22440
866.269	22394
866.4	22329
866.531	22314
866.662	22200
866.793	22131
866.924	22352
867.055	22341
867.186	22276
867.317	22059
867.448	22329
867.579	22246
867.71	22135
867.841	22128
867.972	22265
868.103	22162
868.233	22215
868.364	22177
868.495	22246
868.625	22386
868.756	22554
868.886	22481
869.017	22474
869.147	22580
869.278	22630
869.408	22569
869.539	22462
869.669	22603
869.799	22489
869.929	22660
870.06	22500
870.19	22816
870.32	22805
870.45	22877
870.58	22812
870.71	22999
870.84	22927
870.97	22786
871.1	22889
871.23	22885
871.36	23090
871.489	22835
871.619	23113
871.749	23117
871.879	23052
872.008	23113
872.138	23090
872.267	23064
872.397	22927
872.526	22820
872.656	22976
872.785	22904
872.915	23090
873.044	23242
873.173	23064
873.303	23197
873.432	23067
873.561	23250
873.69	23197
873.819	23098
873.948	23083
874.077	23113
874.206	23041
874.335	23079
874.464	23242
874.593	23307
874.722	23265
874.851	23341
874.979	23364
875.108	23379
875.237	23208
875.365	23109
875.494	23235
875.623	23398
875.751	23318
875.88	23353
876.008	23436
876.136	23509
876.265	23600
876.393	23779
876.521	23805
876.65	23756
876.778	23707
876.906	23703
877.034	23524
877.162	23745
877.29	23623
877.418	23737
877.546	23726
877.674	23516
877.802	23653
877.93	23585
878.058	23570
878.185	23486
878.313	23573
878.441	23691
878.568	23493
878.696	23570
878.824	23661
878.951	23661
879.079	23752
879.206	24038
879.333	23916
879.461	23661
879.588	23722
879.715	23802
879.842	23912
879.97	23745
880.097	23524
880.224	23353
880.351	23406
880.478	23478
880.605	23505
880.732	23501
880.859	23657
880.986	23459
881.112	23474
881.239	23292
881.366	23159
881.493	23083
881.619	23056
881.746	23052
881.872	22991
881.999	22896
882.125	22942
882.252	23197
882.378	23006
882.505	23197
882.631	22854
882.757	22702
882.883	22706
883.01	22748
883.136	22641
883.262	22622
883.388	22512
883.514	22702
883.64	22615
883.766	22531
883.892	22409
884.018	22443
884.143	22702
884.269	22702
884.395	22375
884.52	22261
884.646	22253
884.772	22226
884.897	22238
885.023	22272
885.148	22478
885.274	22504
885.399	22394
885.524	22295
885.65	22287
885.775	22257
885.9	22306
886.025	22390
886.15	22318
886.275	22219
886.4	22177
886.525	22322
886.65	22284
886.775	22207
886.9	22405
887.025	22531
887.149	22238
887.274	22116
887.399	22177
887.523	22044
887.648	22086
887.773	21915
887.897	22120
888.021	22067
888.146	21994
888.27	22116
888.395	22124
888.519	22143
888.643	22112
888.767	22021
888.891	22051
889.015	21895
889.139	21945
889.263	21781
889.387	21972
889.511	21930
889.635	21998
889.759	21759
889.883	21720
890.006	21816
890.13	21892
890.254	21831
890.377	21789
890.501	21648
890.624	21424
890.748	21599
890.871	21408
890.995	21386
891.118	21431
891.241	21416
891.364	21329
891.488	21481
891.611	21298
891.734	21420
891.857	21450
891.98	21431
892.103	21405
892.226	21473
892.349	21367
892.471	21165
892.594	21214
892.717	21188
892.839	21233
892.962	21363
893.085	21405
893.207	21291
893.33	21184
893.452	21211
893.575	21291
893.697	21203
893.819	21488
893.941	21530
894.064	21408
894.186	21214
894.308	21188
894.43	21245
894.552	21370
894.674	21275
894.796	21127
894.918	21192
895.04	21131
895.161	21393
895.283	21382
895.405	21096
895.526	21359
895.648	21207
895.769	21264
895.891	21340
896.012	21416
896.134	21447
896.255	21173
896.376	21173
896.498	21325
896.619	21294
896.74	21359
896.861	21420
896.982	21572
897.103	21675
897.224	21568
897.345	21564
897.466	21454
897.587	21431
897.708	21572
897.828	21545
897.949	21424
898.07	21287
898.19	21378
898.311	21580
898.431	21374
898.552	21420
898.672	21523
898.792	21443
898.913	21393
899.033	21344
899.153	21214
899.273	21058
899.393	21226
899.513	21119
899.633	21188
899.753	21249
899.873	21116
899.993	21112
900.113	21028
900.232	21142
900.352	21032
900.472	20963
900.591	20910
900.711	21005
900.83	20811
900.95	20990
901.069	20994
901.189	20758
901.308	20617
901.427	20438
901.546	20370
901.665	20560
901.784	20366
901.904	20438
902.023	20229
902.141	20020
902.26	19978
902.379	20069
902.498	20035
902.617	19959
902.735	20005
902.854	19974
902.973	19963
903.091	19723
903.21	19605
903.328	19784
903.446	19552
903.565	19407
903.683	19407
903.801	19301
903.919	19388
904.038	19384
904.156	19183
904.274	19354
904.392	19061
904.51	19141
904.627	19198
904.745	19179
904.863	19209
904.981	18981
905.098	18882
905.216	18882
905.334	18817
905.451	18848
905.569	18848
905.686	18795
905.803	18867
905.921	18627
906.038	18677
906.155	18650
906.272	18578
906.389	18540
906.506	18475
906.623	18361
906.74	18353
906.857	18194
906.974	18300
907.091	18433
907.208	18445
907.324	18361
907.441	18285
907.557	18049
907.674	18083
907.79	17946
907.907	18144
908.023	17992
908.139	18095
908.256	17988
908.372	17824
908.488	17904
908.604	17783
908.72	17668
908.836	17779
908.952	17668
909.068	17843
909.184	17855
909.3	17703
909.415	17752
909.531	17638
909.647	17417
909.762	17455
909.878	17334
909.993	17444
910.108	17299
910.224	17368
910.339	17376
910.454	17383
910.57	17216
910.685	17231
910.8	17414
910.915	17254
911.03	17235
911.145	17033
911.259	16976
911.374	16946
911.489	17083
911.604	16908
911.718	16675
911.833	16713
911.947	16752
912.062	16660
912.176	16816
912.291	16805
912.405	16691
912.519	16946
912.633	16850
912.748	16675
912.862	16649
912.976	16485
913.09	16360
913.204	16398
913.318	16519
913.431	16481
913.545	16497
913.659	16577
913.772	16375
913.886	16249
914	16230
914.113	16394
914.226	16394
914.34	16394
914.453	16204
914.566	16360
914.68	16265
914.793	16131
914.906	15945
915.019	15873
915.132	15873
915.245	15876
915.358	15972
915.47	15846
915.583	15842
915.696	15922
915.809	16006
915.921	15934
916.034	15831
916.146	15812
916.259	15736
916.371	15831
916.483	15873
916.595	15694
916.708	15732
916.82	15747
916.932	15652
917.044	15641
917.156	15595
917.268	15447
917.38	15507
917.491	15469
917.603	15557
917.715	15511
917.826	15488
917.938	15515
918.049	15302
918.161	15408
918.272	15576
918.384	15549
918.495	15428
918.606	15336
918.717	15199
918.828	15363
918.939	15279
919.05	15146
919.161	15218
919.272	14948
919.383	15062
919.494	15256
919.604	15370
919.715	15249
919.826	15165
919.936	15055
920.047	15165
920.157	15112
920.267	15378
920.378	15233
920.488	15097
920.598	15275
920.708	15389
920.818	15275
920.928	15241
921.038	15431
921.148	15370
921.258	15100
921.368	15024
921.477	14899
921.587	14982
921.697	14659
921.806	14998
921.916	14678
922.025	14613
922.134	14598
922.244	14537
922.353	14533
922.462	14389
922.571	14320
922.68	14145
922.789	14084
922.898	14191
923.007	14024
923.116	14161
923.224	14035
923.333	14020
923.442	13917
923.55	13951
923.659	14043
923.767	14153
923.876	13906
923.984	13932
924.092	13860
924.201	13898
924.309	13967
924.417	13845
924.525	13795
924.633	13746
924.741	14644
924.849	13616
924.956	13715
925.064	13537
925.172	13521
925.279	13567
925.387	13586
925.494	13457
925.602	13601
925.709	13658
925.816	13377
925.924	13468
926.031	13540
926.138	13434
926.245	13525
926.352	13221
926.459	13518
926.566	13476
926.673	13407
926.779	13293
926.886	13221
926.993	13084
927.099	13099
927.206	13000
927.312	13034
927.419	13152
927.525	12989
927.631	13069
927.737	12962
927.843	12909
927.95	12745
928.056	12901
928.162	12878
928.267	12844
928.373	13540
928.479	12939
928.585	12688
928.69	12806
928.796	12840
928.901	12703
929.007	12559
929.112	12745
929.218	12757
929.323	12601
929.428	12570
929.533	12745
929.638	12498
929.743	12547
929.848	12578
929.953	12475
930.058	12486
930.163	12228
930.267	12251
930.372	12380
930.477	12201
930.581	12384
930.685	12308
930.79	12152
930.894	12194
930.998	12125
931.103	12235
931.207	11847
931.311	11855
931.415	11714
931.519	11455
931.623	11463
