Data from test_V78500241_162.txt Node
Date: Fri Mar 25 15:42:55 CST 2022
User: usil
Spectrometer: V785-0024
Trigger mode: 0
Integration Time (sec): 4.000000E-1
Scans to average: 1
Nonlinearity correction enabled: false
Boxcar width: 0
Storing dark spectrum: false
XAxis mode: Wavelengths
Number of Pixels in Spectrum: 1024
>>>>>Begin Spectral Data<<<<<
801.071	29220
801.214	29151
801.356	28938
801.499	29037
801.641	28900
801.783	28873
801.926	28961
802.068	28858
802.211	28843
802.353	28561
802.496	28440
802.638	28356
802.78	28394
802.923	28341
803.065	28253
803.208	28523
803.35	28474
803.492	28672
803.635	28603
803.777	28398
803.919	28649
804.061	28778
804.204	28588
804.346	28379
804.488	28413
804.63	28649
804.773	28405
804.915	28413
805.057	28641
805.199	28519
805.341	28763
805.483	28649
805.626	28592
805.768	28538
805.91	28577
806.052	28710
806.194	28546
806.336	28748
806.478	28702
806.62	28512
806.762	28713
806.904	28908
807.046	29025
807.188	28972
807.33	29041
807.472	29052
807.614	28896
807.756	28957
807.898	28923
808.04	28755
808.182	28858
808.324	28733
808.465	28767
808.607	29037
808.749	29132
808.891	29258
809.033	29277
809.174	29223
809.316	29052
809.458	29223
809.6	29102
809.741	29254
809.883	29216
810.025	29372
810.166	29326
810.308	29402
810.45	29391
810.591	29231
810.733	29197
810.875	29273
811.016	29067
811.158	29056
811.299	29341
811.441	29334
811.582	29368
811.724	29018
811.865	29071
812.007	29109
812.148	29140
812.29	29197
812.431	29292
812.573	29337
812.714	29497
812.855	29554
812.997	29684
813.138	29859
813.279	29775
813.421	29695
813.562	29592
813.703	29429
813.845	29375
813.986	29029
814.127	28713
814.268	28721
814.41	28866
814.551	28767
814.692	28881
814.833	28691
814.974	28535
815.115	28729
815.256	28504
815.397	28440
815.539	28584
815.68	28455
815.821	28314
815.962	28607
816.103	28375
816.244	28375
816.385	28192
816.526	28238
816.666	28044
816.807	27926
816.948	27953
817.089	27991
817.23	27937
817.371	27926
817.512	27876
817.653	27854
817.793	27922
817.934	27865
818.075	27694
818.216	27770
818.356	27793
818.497	27720
818.638	27504
818.778	27641
818.919	27549
819.06	27583
819.2	27644
819.341	27819
819.481	27606
819.622	27914
819.762	28032
819.903	27953
820.043	28013
820.184	27895
820.324	27842
820.465	27949
820.605	27774
820.746	28006
820.886	27785
821.026	27846
821.167	27835
821.307	27953
821.447	27762
821.588	27831
821.728	27545
821.868	27538
822.008	27184
822.149	27207
822.289	27055
822.429	26815
822.569	26842
822.709	26792
822.849	26773
822.99	26651
823.13	26545
823.27	26545
823.41	26476
823.55	26298
823.69	26480
823.83	26404
823.97	26412
824.11	26298
824.25	26290
824.389	26218
824.529	26240
824.669	26168
824.809	26469
824.949	26355
825.089	26328
825.228	26389
825.368	26107
825.508	26122
825.648	26157
825.787	26180
825.927	26065
826.067	26073
826.206	26199
826.346	26111
826.485	26214
826.625	26142
826.765	26145
826.904	25993
827.044	25757
827.183	25856
827.323	25658
827.462	25712
827.601	25715
827.741	25715
827.88	25723
828.02	25632
828.159	25677
828.298	25715
828.437	25795
828.577	25624
828.716	25769
828.855	25586
828.994	25426
829.134	25476
829.273	25430
829.412	25559
829.551	25316
829.69	25438
829.829	25293
829.968	25400
830.107	25457
830.246	25381
830.385	25213
830.524	25251
830.663	25145
830.802	25137
830.941	24852
831.08	24947
831.219	24943
831.357	24962
831.496	25164
831.635	25019
831.774	24791
831.913	24894
832.051	24559
832.19	24688
832.329	24582
832.467	24540
832.606	24601
832.744	24559
832.883	24661
833.022	24433
833.16	24677
833.299	24509
833.437	24631
833.576	24703
833.714	24673
833.852	24623
833.991	24597
834.129	24688
834.267	24684
834.406	24559
834.544	24639
834.682	24593
834.821	24566
834.959	24753
835.097	24486
835.235	24570
835.373	24479
835.511	24513
835.65	24467
835.788	24399
835.926	24254
836.064	24121
836.202	24251
836.34	24540
836.478	24494
836.615	24232
836.753	24300
836.891	24414
837.029	24391
837.167	24391
837.305	24296
837.443	24319
837.58	24270
837.718	24334
837.856	24182
837.993	24167
838.131	24182
838.269	23916
838.406	24216
838.544	23859
838.681	23866
838.819	23745
838.956	23703
839.094	23695
839.231	23726
839.369	23775
839.506	23954
839.643	23817
839.781	23471
839.918	23551
840.055	23551
840.193	23524
840.33	23615
840.467	23676
840.604	23562
840.742	23840
840.879	23353
841.016	23604
841.153	23372
841.29	23589
841.427	23676
841.564	23531
841.701	23520
841.838	23341
841.975	23433
842.112	23345
842.249	23239
842.385	23315
842.522	23395
842.659	23299
842.796	23109
842.933	23197
843.069	23178
843.206	23143
843.343	23265
843.479	23181
843.616	23124
843.752	22942
843.889	22946
844.025	23037
844.162	22900
844.298	22968
844.435	22866
844.571	22831
844.708	22934
844.844	23018
844.98	23056
845.117	22984
845.253	22850
845.389	22767
845.525	22759
845.661	22908
845.798	22580
845.934	22637
846.07	22508
846.206	22748
846.342	22736
846.478	22637
846.614	22474
846.75	22333
846.886	22382
847.022	22459
847.158	22382
847.294	22382
847.429	22405
847.565	22333
847.701	22523
847.837	22078
847.972	22093
848.108	22230
848.244	22173
848.379	21975
848.515	21991
848.65	21876
848.786	21926
848.921	21953
849.057	22025
849.192	21934
849.328	21903
849.463	21926
849.598	21846
849.734	21816
849.869	21618
850.004	21701
850.14	21736
850.275	21732
850.41	21515
850.545	21614
850.68	21671
850.815	21595
850.95	21641
851.085	21865
851.22	21797
851.355	21720
851.49	21637
851.625	21553
851.76	21511
851.895	21583
852.03	21557
852.165	21656
852.299	21648
852.434	21583
852.569	21728
852.703	21625
852.838	21679
852.973	21694
853.107	21648
853.242	21610
853.376	21435
853.511	21275
853.645	21275
853.78	21690
853.914	21363
854.048	21488
854.183	21507
854.317	21374
854.451	21530
854.585	21545
854.72	21435
854.854	21405
854.988	21321
855.122	21519
855.256	21378
855.39	21249
855.524	21618
855.658	21389
855.792	21447
855.926	21538
856.06	21488
856.194	21580
856.327	21310
856.461	21359
856.595	21252
856.729	21515
856.862	21553
856.996	21420
857.13	21416
857.263	21572
857.397	21401
857.53	21397
857.664	21439
857.797	21401
857.931	21542
858.064	21496
858.197	21466
858.331	21351
858.464	21374
858.597	21272
858.731	21367
858.864	21317
858.997	21348
859.13	21363
859.263	21424
859.396	21519
859.529	21340
859.662	21336
859.795	21313
859.928	21416
860.061	21466
860.194	21603
860.327	21386
860.46	21313
860.592	21355
860.725	21466
860.858	21458
860.99	21245
861.123	21336
861.256	21329
861.388	21355
861.521	22055
861.653	21272
861.786	21180
861.918	21249
862.05	21283
862.183	21351
862.315	21344
862.447	21439
862.58	21363
862.712	21154
862.844	21070
862.976	21157
863.108	21173
863.24	21473
863.372	21100
863.504	20982
863.636	21005
863.768	21043
863.9	20986
864.032	20944
864.164	20975
864.296	21070
864.428	21062
864.559	21119
864.691	20952
864.823	21001
864.954	21024
865.086	20960
865.217	20971
865.349	20876
865.48	20918
865.612	21096
865.743	20994
865.875	20956
866.006	20971
866.137	20849
866.269	20998
866.4	20925
866.531	20853
866.662	20906
866.793	20697
866.924	20925
867.055	20883
867.186	20902
867.317	20811
867.448	20739
867.579	20804
867.71	20857
867.841	20777
867.972	20800
868.103	20899
868.233	20785
868.364	20838
868.495	20895
868.625	21066
868.756	21116
868.886	21074
869.017	21020
869.147	21222
869.278	21150
869.408	21119
869.539	21070
869.669	21119
869.799	21146
869.929	21222
870.06	21176
870.19	21272
870.32	21359
870.45	21424
870.58	21530
870.71	21633
870.84	21629
870.97	21500
871.1	21648
871.23	21656
871.36	21637
871.489	21534
871.619	21625
871.749	21671
871.879	21713
872.008	21823
872.138	21698
872.267	21679
872.397	21583
872.526	21405
872.656	21496
872.785	21545
872.915	21625
873.044	21800
873.173	21705
873.303	21846
873.432	21675
873.561	21835
873.69	21675
873.819	21835
873.948	21823
874.077	21652
874.206	21679
874.335	21717
874.464	21778
874.593	21945
874.722	21960
874.851	21983
874.979	21956
875.108	21960
875.237	21998
875.365	21884
875.494	21926
875.623	21956
875.751	22051
875.88	22010
876.008	22124
876.136	21979
876.265	22242
876.393	22390
876.521	22382
876.65	22432
876.778	22272
876.906	22223
877.034	22253
877.162	22322
877.29	22299
877.418	22409
877.546	22211
877.674	22246
877.802	22265
877.93	22242
878.058	22192
878.185	22200
878.313	22143
878.441	22325
878.568	22055
878.696	22238
878.824	22390
878.951	22360
879.079	22493
879.206	22557
879.333	22470
879.461	22413
879.588	22440
879.715	22379
879.842	22500
879.97	22405
880.097	22128
880.224	22135
880.351	22109
880.478	22070
880.605	22078
880.732	22093
880.859	22226
880.986	22128
881.112	22162
881.239	22086
881.366	21827
881.493	21743
881.619	21797
881.746	21652
881.872	21717
881.999	21682
882.125	21629
882.252	21675
882.378	21663
882.505	21823
882.631	21682
882.757	21317
882.883	21492
883.01	21447
883.136	21389
883.262	21268
883.388	21252
883.514	21291
883.64	21325
883.766	21336
883.892	21195
884.018	21252
884.143	21397
884.269	21443
884.395	21214
884.52	21039
884.646	21096
884.772	21005
884.897	20902
885.023	21009
885.148	21077
885.274	21378
885.399	21116
885.524	21077
885.65	21077
885.775	21051
885.9	21024
886.025	21260
886.15	21135
886.275	21001
886.4	20868
886.525	20937
886.65	20906
886.775	20872
886.9	21089
887.025	21203
887.149	20937
887.274	20868
887.399	20849
887.523	20731
887.648	20689
887.773	20739
887.897	20800
888.021	20777
888.146	20765
888.27	20883
888.395	20796
888.519	20960
888.643	20815
888.767	20735
888.891	20651
889.015	20552
889.139	20617
889.263	20393
889.387	20720
889.511	20693
889.635	20781
889.759	20526
889.883	20621
890.006	20560
890.13	20735
890.254	20522
890.377	20495
890.501	20393
890.624	20248
890.748	20469
890.871	20244
890.995	20161
891.118	20084
891.241	20183
891.364	20046
891.488	20275
891.611	20111
891.734	20206
891.857	20210
891.98	20077
892.103	20176
892.226	20142
892.349	20054
892.471	19921
892.594	20039
892.717	20111
892.839	20187
892.962	20027
893.085	20138
893.207	20107
893.33	19788
893.452	19936
893.575	19963
893.697	19932
893.819	20233
893.941	20199
894.064	20221
894.186	20039
894.308	19932
894.43	20202
894.552	20134
894.674	20103
894.796	20054
894.918	19982
895.04	20111
895.161	20050
895.283	20100
895.405	19959
895.526	20035
895.648	20008
895.769	20092
895.891	20115
896.012	20206
896.134	20221
896.255	20164
896.376	20035
896.498	20111
896.619	20183
896.74	20172
896.861	20054
896.982	20457
897.103	20450
897.224	20568
897.345	20309
897.466	20221
897.587	20332
897.708	20381
897.828	20377
897.949	20278
898.07	20073
898.19	20244
898.311	20431
898.431	20271
898.552	20317
898.672	20362
898.792	20286
898.913	20191
899.033	20138
899.153	20001
899.273	20005
899.393	19921
899.513	19978
899.633	19989
899.753	19993
899.873	19841
899.993	19951
900.113	19807
900.232	20012
900.352	19871
900.472	19772
900.591	19575
900.711	19871
900.83	19833
900.95	19890
901.069	19799
901.189	19727
901.308	19487
901.427	19403
901.546	19468
901.665	19293
901.784	19346
901.904	19259
902.023	19084
902.141	18996
902.26	18825
902.379	18867
902.498	18825
902.617	18825
902.735	18920
902.854	18776
902.973	18798
903.091	18620
903.21	18555
903.328	18475
903.446	18448
903.565	18346
903.683	18346
903.801	18228
903.919	18304
904.038	18194
904.156	18106
904.274	18087
904.392	18083
904.51	18045
904.627	17999
904.745	18076
904.863	18197
904.981	17908
905.098	17775
905.216	17676
905.334	17817
905.451	17756
905.569	17767
905.686	17745
905.803	17687
905.921	17604
906.038	17600
906.155	17577
906.272	17421
906.389	17398
906.506	17261
906.623	17349
906.74	17284
906.857	17132
906.974	17174
907.091	17254
907.208	17261
907.324	17341
907.441	17155
907.557	17041
907.674	16889
907.79	17041
907.907	16877
908.023	16927
908.139	16995
908.256	16949
908.372	16805
908.488	16812
908.604	16664
908.72	16592
908.836	16592
908.952	16508
909.068	16592
909.184	16748
909.3	16607
909.415	16713
909.531	16611
909.647	16390
909.762	16238
909.878	16211
909.993	16341
910.108	16238
910.224	16249
910.339	16459
910.454	16276
910.57	16223
910.685	16074
910.8	16367
910.915	16352
911.03	16074
911.145	15945
911.259	15964
911.374	16032
911.489	15808
911.604	15831
911.718	15739
911.833	15694
911.947	15675
912.062	15431
912.176	15690
912.291	15694
912.405	15652
912.519	15793
912.633	15797
912.748	15648
912.862	15584
912.976	15473
913.09	15389
913.204	15416
913.318	15405
913.431	15545
913.545	15591
913.659	15564
913.772	15416
913.886	15222
914	15275
914.113	15405
914.226	15325
914.34	15291
914.453	15104
914.566	15389
914.68	15165
914.793	15135
914.906	15032
915.019	14845
915.132	14785
915.245	14918
915.358	14864
915.47	14838
915.583	14845
915.696	14891
915.809	15017
915.921	15024
916.034	14883
916.146	14868
916.259	14712
916.371	14777
916.483	14758
916.595	14754
916.708	14682
916.82	14686
916.932	14598
917.044	14560
917.156	14651
917.268	14556
917.38	14495
917.491	14564
917.603	14651
917.715	14663
917.826	14552
917.938	14495
918.049	14389
918.161	14473
918.272	14682
918.384	14564
918.495	14438
918.606	14328
918.717	14259
918.828	14358
918.939	14343
919.05	14221
919.161	14130
919.272	14073
919.383	14126
919.494	14309
919.604	14514
919.715	14149
919.826	14119
919.936	14244
920.047	14358
920.157	14221
920.267	14294
920.378	14252
920.488	14180
920.598	14366
920.708	14484
920.818	14377
920.928	14404
921.038	14465
921.148	14438
921.258	14142
921.368	14107
921.477	13997
921.587	13997
921.697	13864
921.806	13982
921.916	13818
922.025	13677
922.134	13605
922.244	13571
922.353	13681
922.462	13544
922.571	13457
922.68	13221
922.789	13221
922.898	13221
923.007	13107
923.116	13316
923.224	13251
923.333	13259
923.442	13107
923.55	13080
923.659	13072
923.767	13168
923.876	13061
923.984	13012
924.092	12996
924.201	12962
924.309	13023
924.417	12977
924.525	12905
924.633	12977
924.741	13689
924.849	12700
924.956	12852
925.064	12760
925.172	12566
925.279	12654
925.387	12722
925.494	12726
925.602	12844
925.709	12776
925.816	12601
925.924	12604
926.031	12623
926.138	12650
926.245	12646
926.352	12544
926.459	12639
926.566	12730
926.673	12669
926.779	12475
926.886	12414
926.993	12270
927.099	12243
927.206	12186
927.312	12224
927.419	12270
927.525	12197
927.631	12353
927.737	12190
927.843	12083
927.95	11973
928.056	11996
928.162	12003
928.267	12205
928.373	12829
928.479	12194
928.585	11904
928.69	11965
928.796	12026
928.901	11920
929.007	11813
929.112	11916
929.218	11897
929.323	11802
929.428	11691
929.533	11904
929.638	11764
929.743	11714
929.848	11699
929.953	11760
930.058	11680
930.163	11471
930.267	11596
930.372	11562
930.477	11436
930.581	11600
930.685	11539
930.79	11410
930.894	11387
930.998	11341
931.103	11448
931.207	11083
931.311	11056
931.415	10991
931.519	10767
931.623	10755
