Data from test_V78500241_2672.txt Node
Date: Fri Mar 25 16:00:18 CST 2022
User: usil
Spectrometer: V785-0024
Trigger mode: 0
Integration Time (sec): 4.000000E-1
Scans to average: 1
Nonlinearity correction enabled: false
Boxcar width: 0
Storing dark spectrum: false
XAxis mode: Wavelengths
Number of Pixels in Spectrum: 1024
>>>>>Begin Spectral Data<<<<<
801.071	28752
801.214	28710
801.356	28565
801.499	28599
801.641	28371
801.783	28413
801.926	28596
802.068	28291
802.211	28363
802.353	28299
802.496	28147
802.638	28017
802.78	28143
802.923	28032
803.065	27884
803.208	27998
803.35	28116
803.492	28143
803.635	28390
803.777	28185
803.919	28504
804.061	28637
804.204	28436
804.346	28295
804.488	28284
804.63	28337
804.773	28185
804.915	28348
805.057	28500
805.199	28234
805.341	28440
805.483	28481
805.626	28424
805.768	28280
805.91	28413
806.052	28371
806.194	28265
806.336	28592
806.478	28519
806.62	28428
806.762	28535
806.904	28687
807.046	28908
807.188	28923
807.33	28885
807.472	29006
807.614	28946
807.756	28873
807.898	28881
808.04	28805
808.182	28660
808.324	28816
808.465	28805
808.607	29151
808.749	29029
808.891	29322
809.033	29273
809.174	29166
809.316	29204
809.458	29242
809.6	29090
809.741	29261
809.883	29303
810.025	29417
810.166	29433
810.308	29562
810.45	29364
810.591	29261
810.733	29151
810.875	29174
811.016	28984
811.158	29060
811.299	29364
811.441	29425
811.582	29296
811.724	29341
811.865	29052
812.007	29223
812.148	29212
812.29	29254
812.431	29395
812.573	29551
812.714	29516
812.855	29661
812.997	29741
813.138	29954
813.279	29847
813.421	29703
813.562	29634
813.703	29516
813.845	29349
813.986	29200
814.127	29029
814.268	28820
814.41	28946
814.551	28965
814.692	29010
814.833	28873
814.974	28877
815.115	28904
815.256	28767
815.397	28664
815.539	28816
815.68	28653
815.821	28630
815.962	28641
816.103	28809
816.244	28550
816.385	28318
816.526	28493
816.666	28398
816.807	28211
816.948	28265
817.089	28329
817.23	28344
817.371	28200
817.512	28154
817.653	28219
817.793	28200
817.934	28280
818.075	28299
818.216	28188
818.356	28196
818.497	28002
818.638	27994
818.778	27869
818.919	27907
819.06	28013
819.2	28128
819.341	28116
819.481	28242
819.622	28436
819.762	28622
819.903	28508
820.043	28417
820.184	28382
820.324	28219
820.465	28386
820.605	28333
820.746	28329
820.886	28112
821.026	28447
821.167	28341
821.307	28284
821.447	28177
821.588	28078
821.728	28185
821.868	27831
822.008	27854
822.149	27747
822.289	27717
822.429	27542
822.569	27317
822.709	27397
822.849	27203
822.99	27260
823.13	27230
823.27	27123
823.41	27127
823.55	26967
823.69	27085
823.83	26887
823.97	26933
824.11	26842
824.25	26830
824.389	26796
824.529	26876
824.669	26765
824.809	26899
824.949	26842
825.089	26800
825.228	26781
825.368	26758
825.508	26788
825.648	26788
825.787	26765
825.927	26655
826.067	26602
826.206	26556
826.346	26750
826.485	26811
826.625	26807
826.765	26815
826.904	26765
827.044	26518
827.183	26629
827.323	26298
827.462	26731
827.601	26609
827.741	26514
827.88	26507
828.02	26313
828.159	26461
828.298	26476
828.437	26507
828.577	26381
828.716	26568
828.855	26298
828.994	26119
829.134	26164
829.273	26153
829.412	26134
829.551	26024
829.69	26210
829.829	26229
829.968	26271
830.107	26187
830.246	26122
830.385	26081
830.524	26103
830.663	25940
830.802	25803
830.941	25791
831.08	25757
831.219	25974
831.357	25864
831.496	26073
831.635	25723
831.774	25788
831.913	25685
832.051	25559
832.19	25544
832.329	25510
832.467	25419
832.606	25396
832.744	25320
832.883	25407
833.022	25373
833.16	25362
833.299	25487
833.437	25358
833.576	25468
833.714	25491
833.852	25540
833.991	25464
834.129	25537
834.267	25575
834.406	25518
834.544	25479
834.682	25483
834.821	25453
834.959	25597
835.097	25304
835.235	25506
835.373	25544
835.511	25415
835.65	25327
835.788	25411
835.926	25202
836.064	25110
836.202	25103
836.34	25411
836.478	25327
836.615	25308
836.753	25297
836.891	25426
837.029	25335
837.167	25228
837.305	25175
837.443	25228
837.58	25194
837.718	25114
837.856	25198
837.993	25008
838.131	25225
838.269	24951
838.406	25038
838.544	24886
838.681	24776
838.819	24696
838.956	24532
839.094	24665
839.231	24608
839.369	24646
839.506	25034
839.643	24890
839.781	24631
839.918	24460
840.055	24445
840.193	24601
840.33	24642
840.467	24536
840.604	24517
840.742	24852
840.879	24388
841.016	24407
841.153	24300
841.29	24563
841.427	24460
841.564	24418
841.701	24547
841.838	24429
841.975	24441
842.112	24456
842.249	24273
842.385	24224
842.522	24395
842.659	24361
842.796	24262
842.933	24361
843.069	24273
843.206	24174
843.343	24334
843.479	24190
843.616	24350
843.752	24034
843.889	24102
844.025	24190
844.162	24072
844.298	24091
844.435	24038
844.571	23904
844.708	23973
844.844	24247
844.98	24114
845.117	24079
845.253	24011
845.389	23904
845.525	23840
845.661	23980
845.798	23794
845.934	23809
846.07	23619
846.206	23790
846.342	23836
846.478	23714
846.614	23596
846.75	23463
846.886	23577
847.022	23562
847.158	23501
847.294	23600
847.429	23589
847.565	23467
847.701	23509
847.837	23284
847.972	23178
848.108	23181
848.244	23288
848.379	23162
848.515	23018
848.65	22942
848.786	23143
848.921	23109
849.057	23113
849.192	23132
849.328	23098
849.463	23098
849.598	23037
849.734	22854
849.869	22828
850.004	22923
850.14	22816
850.275	22953
850.41	22653
850.545	22801
850.68	22923
850.815	22816
850.95	22786
851.085	22942
851.22	22752
851.355	22900
851.49	22816
851.625	22930
851.76	22721
851.895	22668
852.03	22713
852.165	22797
852.299	22904
852.434	22949
852.569	22908
852.703	22820
852.838	22869
852.973	22976
853.107	23022
853.242	22771
853.376	22721
853.511	22512
853.645	22470
853.78	22649
853.914	22698
854.048	22546
854.183	22630
854.317	22733
854.451	22889
854.585	22637
854.72	22580
854.854	22736
854.988	22653
855.122	22664
855.256	22527
855.39	22752
855.524	22630
855.658	22717
855.792	22725
855.926	22713
856.06	22729
856.194	22767
856.327	22713
856.461	22618
856.595	22554
856.729	22546
856.862	22790
856.996	22615
857.13	22767
857.263	22736
857.397	22660
857.53	22698
857.664	22763
857.797	22721
857.931	22812
858.064	22675
858.197	22797
858.331	22694
858.464	22672
858.597	22557
858.731	22607
858.864	22611
858.997	22672
859.13	22717
859.263	22679
859.396	22744
859.529	22748
859.662	22580
859.795	22546
859.928	22713
860.061	22771
860.194	22847
860.327	22653
860.46	22740
860.592	22645
860.725	22858
860.858	22713
860.99	22546
861.123	22615
861.256	22641
861.388	22630
861.521	23345
861.653	22535
861.786	22443
861.918	22508
862.05	22527
862.183	22584
862.315	22649
862.447	22725
862.58	22634
862.712	22333
862.844	22322
862.976	22417
863.108	22356
863.24	22656
863.372	22344
863.504	22417
863.636	22493
863.768	22421
863.9	22249
864.032	22192
864.164	22287
864.296	22348
864.428	22485
864.559	22367
864.691	22379
864.823	22333
864.954	22284
865.086	22211
865.217	22223
865.349	22272
865.48	22234
865.612	22215
865.743	22379
865.875	22234
866.006	22322
866.137	22303
866.269	22200
866.4	22219
866.531	22196
866.662	22074
866.793	22356
866.924	22082
867.055	22139
867.186	22226
867.317	22143
867.448	21899
867.579	22070
867.71	21975
867.841	22017
867.972	22097
868.103	22143
868.233	22070
868.364	22162
868.495	22253
868.625	22455
868.756	22493
868.886	22405
869.017	22432
869.147	22379
869.278	22413
869.408	22363
869.539	22428
869.669	22470
869.799	22386
869.929	22516
870.06	22542
870.19	22687
870.32	22664
870.45	22645
870.58	22831
870.71	22812
870.84	22881
870.97	22790
871.1	22691
871.23	23083
871.36	22911
871.489	22866
871.619	22938
871.749	23052
871.879	23014
872.008	23189
872.138	22995
872.267	23029
872.397	22839
872.526	22809
872.656	22961
872.785	22866
872.915	23025
873.044	23090
873.173	22984
873.303	23067
873.432	23014
873.561	23162
873.69	23006
873.819	23006
873.948	22984
874.077	22991
874.206	22987
874.335	23102
874.464	23109
874.593	23189
874.722	23288
874.851	23121
874.979	23208
875.108	23280
875.237	23216
875.365	22976
875.494	23200
875.623	23345
875.751	23166
875.88	23254
876.008	23368
876.136	23448
876.265	23630
876.393	23733
876.521	23760
876.65	23577
876.778	23585
876.906	23577
877.034	23478
877.162	23554
877.29	23421
877.418	23509
877.546	23570
877.674	23551
877.802	23570
877.93	23592
878.058	23448
878.185	23368
878.313	23452
878.441	23665
878.568	23364
878.696	23524
878.824	23562
878.951	23748
879.079	23707
879.206	23969
879.333	23722
879.461	23573
879.588	23634
879.715	23699
879.842	23836
879.97	23558
880.097	23440
880.224	23429
880.351	23410
880.478	23459
880.605	23414
880.732	23273
880.859	23627
880.986	23398
881.112	23364
881.239	23204
881.366	23147
881.493	23083
881.619	22816
881.746	22987
881.872	22889
881.999	22987
882.125	22892
882.252	22961
882.378	22839
882.505	22991
882.631	22801
882.757	22675
882.883	22755
883.01	22611
883.136	22580
883.262	22538
883.388	22432
883.514	22573
883.64	22664
883.766	22508
883.892	22428
884.018	22436
884.143	22489
884.269	22554
884.395	22314
884.52	22166
884.646	22234
884.772	22204
884.897	22215
885.023	22242
885.148	22386
885.274	22398
885.399	22322
885.524	22147
885.65	22226
885.775	22318
885.9	22360
886.025	22379
886.15	22356
886.275	22112
886.4	22143
886.525	22188
886.65	22158
886.775	22204
886.9	22322
887.025	22398
887.149	22181
887.274	22105
887.399	21987
887.523	21994
887.648	21934
887.773	21793
887.897	22196
888.021	22181
888.146	21880
888.27	22067
888.395	22067
888.519	21960
888.643	22147
888.767	22032
888.891	21907
889.015	21880
889.139	21895
889.263	21728
889.387	22078
889.511	22044
889.635	21991
889.759	21819
889.883	21804
890.006	21884
890.13	21915
890.254	21652
890.377	21781
890.501	21530
890.624	21412
890.748	21488
890.871	21431
890.995	21359
891.118	21367
891.241	21363
891.364	21412
891.488	21424
891.611	21382
891.734	21325
891.857	21283
891.98	21272
892.103	21397
892.226	21401
892.349	21233
892.471	21081
892.594	21230
892.717	21256
892.839	21230
892.962	21146
893.085	21291
893.207	21195
893.33	21123
893.452	21184
893.575	21192
893.697	21119
893.819	21291
893.941	21416
894.064	21279
894.186	21154
894.308	21096
894.43	21325
894.552	21405
894.674	21249
894.796	21195
894.918	21218
895.04	21169
895.161	21313
895.283	21218
895.405	21108
895.526	21218
895.648	21165
895.769	21165
895.891	21176
896.012	21264
896.134	21412
896.255	21351
896.376	21184
896.498	21150
896.619	21218
896.74	21043
896.861	21306
896.982	21591
897.103	21564
897.224	21507
897.345	21374
897.466	21310
897.587	21412
897.708	21511
897.828	21534
897.949	21435
898.07	21180
898.19	21310
898.311	21485
898.431	21252
898.552	21256
898.672	21424
898.792	21500
898.913	21310
899.033	21176
899.153	21192
899.273	21051
899.393	21112
899.513	21169
899.633	21112
899.753	21081
899.873	21047
899.993	21154
900.113	21028
900.232	21058
900.352	21119
900.472	21020
900.591	20800
900.711	20861
900.83	20845
900.95	20956
901.069	20918
901.189	20788
901.308	20651
901.427	20530
901.546	20450
901.665	20339
901.784	20556
901.904	20434
902.023	20244
902.141	20115
902.26	20043
902.379	20065
902.498	19963
902.617	19951
902.735	19955
902.854	19963
902.973	19890
903.091	19616
903.21	19601
903.328	19693
903.446	19495
903.565	19365
903.683	19441
903.801	19320
903.919	19377
904.038	19384
904.156	19251
904.274	19217
904.392	19141
904.51	19228
904.627	19084
904.745	19114
904.863	19251
904.981	19046
905.098	18882
905.216	18859
905.334	18745
905.451	18848
905.569	18768
905.686	18996
905.803	18856
905.921	18593
906.038	18745
906.155	18696
906.272	18502
906.389	18532
906.506	18456
906.623	18357
906.74	18422
906.857	18251
906.974	18308
907.091	18346
907.208	18479
907.324	18235
907.441	18125
907.557	18121
907.674	18140
907.79	18053
907.907	18019
908.023	18015
908.139	17999
908.256	17939
908.372	17904
908.488	17908
908.604	17756
908.72	17741
908.836	17748
908.952	17687
909.068	17843
909.184	17882
909.3	17828
909.415	17821
909.531	17729
909.647	17478
909.762	17520
909.878	17360
909.993	17452
910.108	17528
910.224	17402
910.339	17440
910.454	17318
910.57	17318
910.685	17189
910.8	17478
910.915	17414
911.03	17227
911.145	16984
911.259	17075
911.374	17109
911.489	16908
911.604	16946
911.718	16812
911.833	16839
911.947	16767
912.062	16698
912.176	16805
912.291	16835
912.405	16782
912.519	16995
912.633	16896
912.748	16801
912.862	16729
912.976	16611
913.09	16618
913.204	16538
913.318	16615
913.431	16630
913.545	16637
913.659	16744
913.772	16519
913.886	16424
914	16386
914.113	16504
914.226	16523
914.34	16382
914.453	16291
914.566	16424
914.68	16360
914.793	16280
914.906	16071
915.019	16032
915.132	15949
915.245	15983
915.358	16017
915.47	15945
915.583	15975
915.696	15968
915.809	16086
915.921	16051
916.034	15915
916.146	15808
916.259	15819
916.371	15903
916.483	15907
916.595	15690
916.708	15781
916.82	15804
916.932	15766
917.044	15717
917.156	15610
917.268	15717
917.38	15641
917.491	15606
917.603	15610
917.715	15633
917.826	15679
917.938	15477
918.049	15405
918.161	15519
918.272	15580
918.384	15557
918.495	15496
918.606	15344
918.717	15256
918.828	15340
918.939	15378
919.05	15264
919.161	15382
919.272	14986
919.383	15233
919.494	15374
919.604	15511
919.715	15245
919.826	15173
919.936	15275
920.047	15291
920.157	15222
920.267	15412
920.378	15264
920.488	15321
920.598	15393
920.708	15477
920.818	15355
920.928	15447
921.038	15538
921.148	15511
921.258	15184
921.368	15085
921.477	15043
921.587	14990
921.697	14838
921.806	14994
921.916	14830
922.025	14663
922.134	14602
922.244	14579
922.353	14750
922.462	14450
922.571	14518
922.68	14339
922.789	14267
922.898	14259
923.007	14214
923.116	14366
923.224	14240
923.333	14183
923.442	14134
923.55	14145
923.659	14111
923.767	14119
923.876	14043
923.984	14100
924.092	14008
924.201	14058
924.309	14001
924.417	13947
924.525	13909
924.633	13963
924.741	14876
924.849	13746
924.956	13871
925.064	13780
925.172	13689
925.279	13647
925.387	13712
925.494	13624
925.602	13772
925.709	13677
925.816	13533
925.924	13575
926.031	13670
926.138	13552
926.245	13590
926.352	13483
926.459	13693
926.566	13761
926.673	13460
926.779	13514
926.886	13377
926.993	13312
927.099	13247
927.206	13217
927.312	13072
927.419	13255
927.525	13217
927.631	13198
927.737	13110
927.843	12989
927.95	12951
928.056	12966
928.162	13072
928.267	13072
928.373	13559
928.479	13133
928.585	12814
928.69	12913
928.796	13015
928.901	12913
929.007	12760
929.112	12890
929.218	12817
929.323	12772
929.428	12734
929.533	12806
929.638	12700
929.743	12700
929.848	12772
929.953	12627
930.058	12593
930.163	12429
930.267	12350
930.372	12540
930.477	12292
930.581	12498
930.685	12540
930.79	12300
930.894	12308
930.998	12216
931.103	12399
931.207	12030
931.311	12053
931.415	11836
931.519	11577
931.623	11680
