Data from test_V78500241_2769.txt Node
Date: Fri Mar 25 16:00:58 CST 2022
User: usil
Spectrometer: V785-0024
Trigger mode: 0
Integration Time (sec): 4.000000E-1
Scans to average: 1
Nonlinearity correction enabled: false
Boxcar width: 0
Storing dark spectrum: false
XAxis mode: Wavelengths
Number of Pixels in Spectrum: 1024
>>>>>Begin Spectral Data<<<<<
801.071	29071
801.214	29029
801.356	28729
801.499	28626
801.641	28489
801.783	28706
801.926	28599
802.068	28527
802.211	28535
802.353	28500
802.496	28379
802.638	28333
802.78	28226
802.923	28207
803.065	28147
803.208	28219
803.35	28325
803.492	28421
803.635	28512
803.777	28523
803.919	28497
804.061	28930
804.204	28615
804.346	28550
804.488	28455
804.63	28812
804.773	28607
804.915	28580
805.057	28740
805.199	28702
805.341	28687
805.483	28740
805.626	28771
805.768	28607
805.91	28839
806.052	28683
806.194	28679
806.336	28980
806.478	28710
806.62	28759
806.762	28809
806.904	28892
807.046	29337
807.188	29075
807.33	29174
807.472	29322
807.614	29216
807.756	29151
807.898	29033
808.04	28892
808.182	29022
808.324	29067
808.465	29140
808.607	29242
808.749	29406
808.891	29482
809.033	29524
809.174	29528
809.316	29410
809.458	29345
809.6	29349
809.741	29649
809.883	29600
810.025	29794
810.166	29737
810.308	29699
810.45	29596
810.591	29562
810.733	29478
810.875	29391
811.016	29318
811.158	29292
811.299	29497
811.441	29554
811.582	29516
811.724	29505
811.865	29417
812.007	29364
812.148	29337
812.29	29543
812.431	29646
812.573	29748
812.714	29977
812.855	29912
812.997	30155
813.138	30125
813.279	30079
813.421	29942
813.562	29927
813.703	29809
813.845	29771
813.986	29429
814.127	29273
814.268	29181
814.41	29136
814.551	29170
814.692	29242
814.833	29067
814.974	29315
815.115	29254
815.256	29079
815.397	29086
815.539	29075
815.68	29189
815.821	28991
815.962	29029
816.103	29056
816.244	28938
816.385	28778
816.526	28717
816.666	28675
816.807	28440
816.948	28580
817.089	28493
817.23	28573
817.371	28493
817.512	28413
817.653	28481
817.793	28538
817.934	28466
818.075	28504
818.216	28546
818.356	28405
818.497	28436
818.638	28223
818.778	28325
818.919	28265
819.06	28356
819.2	28382
819.341	28424
819.481	28531
819.622	28645
819.762	28866
819.903	28713
820.043	28656
820.184	28637
820.324	28519
820.465	28656
820.605	28774
820.746	28512
820.886	28375
821.026	28683
821.167	28466
821.307	28694
821.447	28481
821.588	28470
821.728	28535
821.868	28139
822.008	28017
822.149	27888
822.289	27998
822.429	27698
822.569	27610
822.709	27766
822.849	27523
822.99	27587
823.13	27507
823.27	27408
823.41	27268
823.55	27180
823.69	27275
823.83	27302
823.97	27272
824.11	27085
824.25	27176
824.389	27047
824.529	27256
824.669	27154
824.809	27233
824.949	27154
825.089	27184
825.228	27150
825.368	27032
825.508	27051
825.648	27058
825.787	27043
825.927	27081
826.067	26979
826.206	27077
826.346	26975
826.485	27081
826.625	26979
826.765	27192
826.904	27039
827.044	26765
827.183	26933
827.323	26750
827.462	26838
827.601	26697
827.741	26785
827.88	26849
828.02	26598
828.159	26648
828.298	26838
828.437	26857
828.577	26682
828.716	26868
828.855	26629
828.994	26469
829.134	26404
829.273	26579
829.412	26419
829.551	26408
829.69	26381
829.829	26602
829.968	26355
830.107	26598
830.246	26412
830.385	26358
830.524	26362
830.663	26172
830.802	26229
830.941	26096
831.08	26081
831.219	26195
831.357	26084
831.496	26301
831.635	26054
831.774	25871
831.913	25917
832.051	25909
832.19	25845
832.329	25913
832.467	25685
832.606	25719
832.744	25514
832.883	25704
833.022	25685
833.16	25727
833.299	25814
833.437	25833
833.576	25830
833.714	25715
833.852	25769
833.991	25890
834.129	26027
834.267	25887
834.406	25807
834.544	25868
834.682	25860
834.821	25780
834.959	25997
835.097	25803
835.235	25769
835.373	25655
835.511	25799
835.65	25563
835.788	25563
835.926	25533
836.064	25457
836.202	25616
836.34	25575
836.478	25826
836.615	25472
836.753	25742
836.891	25613
837.029	25635
837.167	25468
837.305	25491
837.443	25476
837.58	25518
837.718	25575
837.856	25430
837.993	25358
838.131	25472
838.269	25422
838.406	25434
838.544	25293
838.681	25088
838.819	25069
838.956	24920
839.094	24875
839.231	24932
839.369	25088
839.506	25232
839.643	25050
839.781	24932
839.918	24916
840.055	24833
840.193	24772
840.33	24795
840.467	24779
840.604	24821
840.742	25023
840.879	24741
841.016	24738
841.153	24635
841.29	24787
841.427	24783
841.564	24806
841.701	24821
841.838	24715
841.975	24749
842.112	24730
842.249	24585
842.385	24597
842.522	24798
842.659	24726
842.796	24570
842.933	24620
843.069	24372
843.206	24486
843.343	24597
843.479	24498
843.616	24544
843.752	24273
843.889	24403
844.025	24528
844.162	24311
844.298	24437
844.435	24395
844.571	24323
844.708	24388
844.844	24498
844.98	24437
845.117	24433
845.253	24235
845.389	24216
845.525	24148
845.661	24190
845.798	24110
845.934	24125
846.07	24155
846.206	24171
846.342	24232
846.478	24007
846.614	23779
846.75	23619
846.886	23779
847.022	23935
847.158	23771
847.294	23775
847.429	23794
847.565	23718
847.701	23969
847.837	23642
847.972	23512
848.108	23634
848.244	23566
848.379	23516
848.515	23402
848.65	23414
848.786	23360
848.921	23383
849.057	23528
849.192	23429
849.328	23383
849.463	23296
849.598	23368
849.734	23231
849.869	23368
850.004	23147
850.14	23140
850.275	23200
850.41	23052
850.545	23178
850.68	23147
850.815	23254
850.95	23128
851.085	23414
851.22	23334
851.355	23124
851.49	23117
851.625	23178
851.76	23037
851.895	23109
852.03	23086
852.165	23113
852.299	23147
852.434	23166
852.569	23185
852.703	23121
852.838	23330
852.973	23299
853.107	23197
853.242	23102
853.376	22957
853.511	22858
853.645	22858
853.78	23128
853.914	22980
854.048	22896
854.183	22930
854.317	23010
854.451	23140
854.585	23067
854.72	22885
854.854	23117
854.988	22892
855.122	23003
855.256	22850
855.39	22961
855.524	22965
855.658	23094
855.792	22957
855.926	23044
856.06	23018
856.194	23117
856.327	23079
856.461	22892
856.595	22900
856.729	22991
856.862	23128
856.996	23075
857.13	23022
857.263	22999
857.397	23006
857.53	22900
857.664	22957
857.797	22972
857.931	23060
858.064	23022
858.197	23003
858.331	22949
858.464	22896
858.597	22942
858.731	22984
858.864	22793
858.997	22980
859.13	22984
859.263	23006
859.396	23060
859.529	23029
859.662	22877
859.795	23033
859.928	23071
860.061	23018
860.194	23121
860.327	23151
860.46	23067
860.592	23067
860.725	23041
860.858	23121
860.99	22862
861.123	22889
861.256	23018
861.388	23022
861.521	23745
861.653	22839
861.786	22793
861.918	22812
862.05	22942
862.183	22862
862.315	22930
862.447	22934
862.58	22805
862.712	22698
862.844	22774
862.976	22679
863.108	22660
863.24	23105
863.372	22577
863.504	22622
863.636	22733
863.768	22637
863.9	22641
864.032	22584
864.164	22641
864.296	22554
864.428	22949
864.559	22721
864.691	22660
864.823	22649
864.954	22596
865.086	22660
865.217	22516
865.349	22497
865.48	22565
865.612	22516
865.743	22584
865.875	22611
866.006	22523
866.137	22546
866.269	22656
866.4	22554
866.531	22493
866.662	22363
866.793	22405
866.924	22462
867.055	22489
867.186	22535
867.317	22455
867.448	22402
867.579	22546
867.71	22360
867.841	22344
867.972	22538
868.103	22462
868.233	22481
868.364	22565
868.495	22588
868.625	22767
868.756	22850
868.886	22664
869.017	22752
869.147	22778
869.278	22828
869.408	22778
869.539	22721
869.669	22740
869.799	22759
869.929	22942
870.06	22828
870.19	22953
870.32	22957
870.45	22987
870.58	23132
870.71	23216
870.84	23200
870.97	23060
871.1	23075
871.23	23261
871.36	23353
871.489	23227
871.619	23178
871.749	23307
871.879	23341
872.008	23425
872.138	23379
872.267	23296
872.397	23223
872.526	23185
872.656	23041
872.785	23109
872.915	23258
873.044	23334
873.173	23402
873.303	23322
873.432	23330
873.561	23395
873.69	23429
873.819	23299
873.948	23372
874.077	23315
874.206	23292
874.335	23417
874.464	23383
874.593	23600
874.722	23436
874.851	23482
874.979	23501
875.108	23680
875.237	23520
875.365	23474
875.494	23383
875.623	23600
875.751	23421
875.88	23497
876.008	23707
876.136	23821
876.265	23855
876.393	24159
876.521	24011
876.65	24076
876.778	23996
876.906	23824
877.034	23741
877.162	23870
877.29	23775
877.418	23821
877.546	23939
877.674	23882
877.802	23923
877.93	23824
878.058	23843
878.185	23733
878.313	23722
878.441	23752
878.568	23748
878.696	23802
878.824	23897
878.951	24057
879.079	24007
879.206	24155
879.333	23988
879.461	23908
879.588	23923
879.715	23961
879.842	24087
879.97	24026
880.097	23752
880.224	23668
880.351	23783
880.478	23794
880.605	23699
880.732	23619
880.859	23901
880.986	23661
881.112	23695
881.239	23623
881.366	23501
881.493	23296
881.619	23288
881.746	23265
881.872	23170
881.999	23155
882.125	23105
882.252	23216
882.378	23254
882.505	23292
882.631	23018
882.757	22927
882.883	23067
883.01	23037
883.136	22930
883.262	22713
883.388	22748
883.514	22999
883.64	22843
883.766	22862
883.892	22618
884.018	22759
884.143	22820
884.269	23003
884.395	22694
884.52	22592
884.646	22664
884.772	22599
884.897	22474
885.023	22546
885.148	22622
885.274	22618
885.399	22641
885.524	22542
885.65	22516
885.775	22573
885.9	22470
886.025	22698
886.15	22645
886.275	22481
886.4	22455
886.525	22550
886.65	22402
886.775	22481
886.9	22721
887.025	22733
887.149	22500
887.274	22238
887.399	22356
887.523	22219
887.648	22150
887.773	22272
887.897	22333
888.021	22265
888.146	22215
888.27	22356
888.395	22474
888.519	22295
888.643	22318
888.767	22451
888.891	22211
889.015	22200
889.139	22150
889.263	21979
889.387	22086
889.511	22242
889.635	22093
889.759	22158
889.883	22051
890.006	22067
890.13	22192
890.254	21945
890.377	22048
890.501	21930
890.624	21781
890.748	21945
890.871	21644
890.995	21652
891.118	21591
891.241	21698
891.364	21610
891.488	21690
891.611	21709
891.734	21633
891.857	21599
891.98	21660
892.103	21641
892.226	21606
892.349	21580
892.471	21382
892.594	21466
892.717	21526
892.839	21439
892.962	21507
893.085	21515
893.207	21511
893.33	21302
893.452	21405
893.575	21481
893.697	21428
893.819	21610
893.941	21789
894.064	21542
894.186	21374
894.308	21408
894.43	21637
894.552	21568
894.674	21591
894.796	21378
894.918	21507
895.04	21401
895.161	21587
895.283	21641
895.405	21496
895.526	21557
895.648	21408
895.769	21466
895.891	21435
896.012	21599
896.134	21568
896.255	21462
896.376	21340
896.498	21351
896.619	21473
896.74	21412
896.861	21500
896.982	21884
897.103	21953
897.224	21679
897.345	21679
897.466	21679
897.587	21660
897.708	21778
897.828	21720
897.949	21622
898.07	21530
898.19	21583
898.311	21816
898.431	21618
898.552	21633
898.672	21614
898.792	21759
898.913	21686
899.033	21580
899.153	21401
899.273	21340
899.393	21469
899.513	21367
899.633	21435
899.753	21393
899.873	21386
899.993	21439
900.113	21249
900.232	21275
900.352	21294
900.472	21218
900.591	21131
900.711	21085
900.83	20982
900.95	21199
901.069	21180
901.189	21013
901.308	20834
901.427	20746
901.546	20750
901.665	20674
901.784	20602
901.904	20533
902.023	20541
902.141	20275
902.26	20142
902.379	20233
902.498	20142
902.617	20164
902.735	20252
902.854	20103
902.973	20092
903.091	19978
903.21	19799
903.328	19753
903.446	19685
903.565	19685
903.683	19605
903.801	19533
903.919	19525
904.038	19658
904.156	19335
904.274	19468
904.392	19381
904.51	19331
904.627	19415
904.745	19350
904.863	19407
904.981	19236
905.098	19122
905.216	19065
905.334	19069
905.451	19076
905.569	19042
905.686	19031
905.803	19012
905.921	18776
906.038	18913
906.155	18856
906.272	18814
906.389	18837
906.506	18555
906.623	18551
906.74	18601
906.857	18467
906.974	18460
907.091	18703
907.208	18749
907.324	18551
907.441	18384
907.557	18308
907.674	18361
907.79	18243
907.907	18395
908.023	18330
908.139	18262
908.256	18174
908.372	18095
908.488	18114
908.604	17961
908.72	18007
908.836	18003
908.952	18003
909.068	18007
909.184	18083
909.3	17992
909.415	17942
909.531	18041
909.647	17756
909.762	17726
909.878	17695
909.993	17764
910.108	17672
910.224	17600
910.339	17668
910.454	17589
910.57	17520
910.685	17433
910.8	17775
910.915	17566
911.03	17486
911.145	17349
911.259	17383
911.374	17280
911.489	17223
911.604	17029
911.718	17121
911.833	17033
911.947	16889
912.062	16816
912.176	17048
912.291	16999
912.405	17037
912.519	17166
912.633	17113
912.748	17018
912.862	17041
912.976	16919
913.09	16877
913.204	16831
913.318	16923
913.431	16946
913.545	16812
913.659	16980
913.772	16774
913.886	16744
914	16573
914.113	16744
914.226	16759
914.34	16645
914.453	16527
914.566	16687
914.68	16451
914.793	16451
914.906	16375
915.019	16177
915.132	16093
915.245	16090
915.358	16188
915.47	16246
915.583	16166
915.696	16162
915.809	16303
915.921	16325
916.034	16143
916.146	16112
916.259	16029
916.371	16112
916.483	16071
916.595	16067
916.708	16086
916.82	15998
916.932	15987
917.044	15895
917.156	16010
917.268	15812
917.38	15899
917.491	15751
917.603	15816
917.715	15876
917.826	15907
917.938	15675
918.049	15732
918.161	15766
918.272	15789
918.384	15812
918.495	15690
918.606	15629
918.717	15454
918.828	15637
918.939	15561
919.05	15469
919.161	15435
919.272	15340
919.383	15332
919.494	15492
919.604	15705
919.715	15538
919.826	15431
919.936	15374
920.047	15504
920.157	15458
920.267	15553
920.378	15504
920.488	15523
920.598	15599
920.708	15739
920.818	15530
920.928	15606
921.038	15770
921.148	15572
921.258	15458
921.368	15260
921.477	15150
921.587	15195
921.697	15066
921.806	15119
921.916	15062
922.025	14883
922.134	14815
922.244	14880
922.353	14788
922.462	14674
922.571	14659
922.68	14446
922.789	14442
922.898	14423
923.007	14396
923.116	14476
923.224	14511
923.333	14457
923.442	14313
923.55	14218
923.659	14320
923.767	14347
923.876	14248
923.984	14259
924.092	14259
924.201	14172
924.309	14301
924.417	14237
924.525	14134
924.633	14039
924.741	15051
924.849	13913
924.956	13997
925.064	13917
925.172	13738
925.279	13788
925.387	13788
925.494	13803
925.602	14012
925.709	13925
925.816	13670
925.924	13769
926.031	13826
926.138	13696
926.245	13696
926.352	13693
926.459	13761
926.566	13875
926.673	13677
926.779	13544
926.886	13540
926.993	13403
927.099	13320
927.206	13400
927.312	13339
927.419	13419
927.525	13293
927.631	13468
927.737	13175
927.843	13240
927.95	13088
928.056	13160
928.162	13247
928.267	13190
928.373	13632
928.479	13198
928.585	13004
928.69	13031
928.796	13122
928.901	13069
929.007	12894
929.112	12996
929.218	12958
929.323	12916
929.428	12825
929.533	12951
929.638	12734
929.743	12905
929.848	12833
929.953	12757
930.058	12677
930.163	12585
930.267	12635
930.372	12753
930.477	12525
930.581	12692
930.685	12559
930.79	12384
930.894	12467
930.998	12418
931.103	12464
931.207	12144
931.311	12038
931.415	11904
931.519	11737
931.623	11832
