Data from test_V78500241_229.txt Node
Date: Fri Mar 25 15:43:23 CST 2022
User: usil
Spectrometer: V785-0024
Trigger mode: 0
Integration Time (sec): 4.000000E-1
Scans to average: 1
Nonlinearity correction enabled: false
Boxcar width: 0
Storing dark spectrum: false
XAxis mode: Wavelengths
Number of Pixels in Spectrum: 1024
>>>>>Begin Spectral Data<<<<<
801.071	29512
801.214	29444
801.356	29280
801.499	29098
801.641	29044
801.783	29029
801.926	29010
802.068	29010
802.211	29022
802.353	28843
802.496	28679
802.638	28645
802.78	28672
802.923	28516
803.065	28489
803.208	28584
803.35	28713
803.492	28626
803.635	28740
803.777	28672
803.919	28858
804.061	29052
804.204	28797
804.346	28599
804.488	28656
804.63	28824
804.773	28584
804.915	28881
805.057	28702
805.199	28694
805.341	28740
805.483	28748
805.626	28774
805.768	28710
805.91	28831
806.052	28915
806.194	28691
806.336	29010
806.478	28930
806.62	28778
806.762	28942
806.904	29029
807.046	29398
807.188	29242
807.33	29079
807.472	29360
807.614	29071
807.756	29200
807.898	29060
808.04	28991
808.182	28980
808.324	29071
808.465	29025
808.607	29326
808.749	29497
808.891	29558
809.033	29528
809.174	29452
809.316	29296
809.458	29417
809.6	29227
809.741	29539
809.883	29630
810.025	29703
810.166	29847
810.308	29634
810.45	29733
810.591	29615
810.733	29566
810.875	29433
811.016	29410
811.158	29364
811.299	29512
811.441	29558
811.582	29505
811.724	29296
811.865	29341
812.007	29387
812.148	29512
812.29	29372
812.431	29581
812.573	29748
812.714	29832
812.855	29828
812.997	30003
813.138	30041
813.279	30011
813.421	30068
813.562	29813
813.703	29653
813.845	29433
813.986	29250
814.127	29086
814.268	29083
814.41	29029
814.551	28968
814.692	29041
814.833	28949
814.974	28968
815.115	28919
815.256	28858
815.397	28915
815.539	28858
815.68	28828
815.821	28790
815.962	28748
816.103	28774
816.244	28618
816.385	28512
816.526	28394
816.666	28344
816.807	28261
816.948	28413
817.089	28352
817.23	28257
817.371	28405
817.512	28116
817.653	28211
817.793	28185
817.934	28242
818.075	28424
818.216	28341
818.356	28120
818.497	28002
818.638	27823
818.778	27846
818.919	27857
819.06	27937
819.2	28086
819.341	28112
819.481	28082
819.622	28306
819.762	28375
819.903	28314
820.043	28284
820.184	28265
820.324	28177
820.465	28192
820.605	28337
820.746	28215
820.886	28131
821.026	28188
821.167	28215
821.307	28158
821.447	28116
821.588	28112
821.728	27861
821.868	27785
822.008	27625
822.149	27622
822.289	27671
822.429	27260
822.569	27226
822.709	27241
822.849	27077
822.99	26971
823.13	27081
823.27	26906
823.41	26929
823.55	26746
823.69	26804
823.83	26902
823.97	26792
824.11	26632
824.25	26552
824.389	26609
824.529	26678
824.669	26629
824.809	26537
824.949	26670
825.089	26617
825.228	26731
825.368	26488
825.508	26351
825.648	26667
825.787	26537
825.927	26530
826.067	26492
826.206	26412
826.346	26564
826.485	26594
826.625	26473
826.765	26678
826.904	26492
827.044	26271
827.183	26317
827.323	26161
827.462	26210
827.601	26214
827.741	26191
827.88	26183
828.02	26031
828.159	26107
828.298	26058
828.437	26233
828.577	26020
828.716	26202
828.855	26180
828.994	25811
829.134	25875
829.273	25864
829.412	25807
829.551	25868
829.69	25849
829.829	25791
829.968	25833
830.107	25868
830.246	25761
830.385	25807
830.524	25685
830.663	25582
830.802	25601
830.941	25381
831.08	25228
831.219	25460
831.357	25407
831.496	25495
831.635	25362
831.774	25373
831.913	25145
832.051	25263
832.19	25194
832.329	25076
832.467	25088
832.606	24935
832.744	25042
832.883	25050
833.022	25027
833.16	25050
833.299	25015
833.437	25027
833.576	25019
833.714	25057
833.852	25137
833.991	25080
834.129	25164
834.267	25046
834.406	25015
834.544	25129
834.682	25038
834.821	24966
834.959	25209
835.097	24882
835.235	24973
835.373	24833
835.511	24989
835.65	24886
835.788	24810
835.926	24730
836.064	24715
836.202	24681
836.34	24871
836.478	24886
836.615	24810
836.753	24947
836.891	24806
837.029	24867
837.167	24749
837.305	24684
837.443	24658
837.58	24696
837.718	24795
837.856	24620
837.993	24677
838.131	24551
838.269	24574
838.406	24601
838.544	24445
838.681	24254
838.819	24346
838.956	23996
839.094	24121
839.231	24087
839.369	24292
839.506	24429
839.643	24399
839.781	24053
839.918	23893
840.055	24087
840.193	24057
840.33	24064
840.467	23988
840.604	24144
840.742	24239
840.879	23805
841.016	23958
841.153	23889
841.29	23977
841.427	23935
841.564	23969
841.701	24003
841.838	23893
841.975	23863
842.112	23901
842.249	23805
842.385	23714
842.522	23999
842.659	23764
842.796	23615
842.933	23638
843.069	23680
843.206	23589
843.343	23672
843.479	23695
843.616	23699
843.752	23273
843.889	23455
844.025	23585
844.162	23368
844.298	23562
844.435	23520
844.571	23531
844.708	23463
844.844	23596
844.98	23554
845.117	23452
845.253	23337
845.389	23337
845.525	23239
845.661	23235
845.798	23094
845.934	23200
846.07	23117
846.206	23151
846.342	23280
846.478	23227
846.614	23006
846.75	22873
846.886	22805
847.022	22831
847.158	22927
847.294	22812
847.429	22942
847.565	22672
847.701	23086
847.837	22588
847.972	22519
848.108	22664
848.244	22660
848.379	22577
848.515	22474
848.65	22360
848.786	22432
848.921	22413
849.057	22382
849.192	22531
849.328	22470
849.463	22428
849.598	22436
849.734	22398
849.869	22242
850.004	22246
850.14	22242
850.275	22177
850.41	22036
850.545	22124
850.68	22063
850.815	22143
850.95	22139
851.085	22207
851.22	22246
851.355	22215
851.49	22097
851.625	22086
851.76	22112
851.895	21994
852.03	22002
852.165	22093
852.299	22177
852.434	22162
852.569	22188
852.703	22044
852.838	22230
852.973	22101
853.107	22246
853.242	21922
853.376	21991
853.511	21759
853.645	21892
853.78	22025
853.914	21979
854.048	21953
854.183	22010
854.317	21941
854.451	21903
854.585	21945
854.72	21937
854.854	22025
854.988	21846
855.122	21930
855.256	21766
855.39	21983
855.524	22055
855.658	22010
855.792	21880
855.926	21945
856.06	22010
856.194	21949
856.327	21903
856.461	21895
856.595	21899
856.729	22021
856.862	21994
856.996	21930
857.13	21922
857.263	22112
857.397	22032
857.53	21812
857.664	22021
857.797	21873
857.931	21972
858.064	21846
858.197	21960
858.331	21922
858.464	21876
858.597	21728
858.731	21865
858.864	21911
858.997	21842
859.13	21854
859.263	21835
859.396	22051
859.529	21934
859.662	21762
859.795	21774
859.928	21922
860.061	22070
860.194	21991
860.327	21884
860.46	21934
860.592	21899
860.725	22093
860.858	21838
860.99	21892
861.123	21774
861.256	21808
861.388	21835
861.521	22561
861.653	21648
861.786	21675
861.918	21717
862.05	21808
862.183	21869
862.315	21991
862.447	21915
862.58	21876
862.712	21595
862.844	21576
862.976	21713
863.108	21663
863.24	21945
863.372	21420
863.504	21424
863.636	21561
863.768	21583
863.9	21507
864.032	21378
864.164	21519
864.296	21469
864.428	21637
864.559	21644
864.691	21644
864.823	21526
864.954	21393
865.086	21511
865.217	21504
865.349	21378
865.48	21408
865.612	21268
865.743	21530
865.875	21496
866.006	21439
866.137	21435
866.269	21447
866.4	21447
866.531	21485
866.662	21344
866.793	21264
866.924	21355
867.055	21439
867.186	21408
867.317	21359
867.448	21272
867.579	21249
867.71	21287
867.841	21294
867.972	21454
868.103	21340
868.233	21408
868.364	21469
868.495	21530
868.625	21530
868.756	21637
868.886	21538
869.017	21576
869.147	21644
869.278	21690
869.408	21622
869.539	21663
869.669	21549
869.799	21644
869.929	21724
870.06	21660
870.19	21842
870.32	21876
870.45	21937
870.58	21888
870.71	22074
870.84	22112
870.97	21979
871.1	21911
871.23	22063
871.36	22295
871.489	22112
871.619	22234
871.749	22242
871.879	22242
872.008	22215
872.138	22257
872.267	22135
872.397	22051
872.526	21926
872.656	22162
872.785	22097
872.915	22177
873.044	22417
873.173	22238
873.303	22223
873.432	22261
873.561	22398
873.69	22325
873.819	22249
873.948	22318
874.077	22223
874.206	22158
874.335	22109
874.464	22211
874.593	22508
874.722	22436
874.851	22436
874.979	22508
875.108	22577
875.237	22337
875.365	22394
875.494	22409
875.623	22535
875.751	22344
875.88	22382
876.008	22596
876.136	22653
876.265	22744
876.393	23014
876.521	22999
876.65	22923
876.778	22831
876.906	22812
877.034	22630
877.162	22839
877.29	22679
877.418	22824
877.546	22915
877.674	22744
877.802	22725
877.93	22782
878.058	22710
878.185	22668
878.313	22767
878.441	22824
878.568	22603
878.696	22812
878.824	22786
878.951	22839
879.079	22976
879.206	23079
879.333	23018
879.461	22828
879.588	22649
879.715	22908
879.842	23052
879.97	22771
880.097	22687
880.224	22736
880.351	22679
880.478	22717
880.605	22592
880.732	22557
880.859	22847
880.986	22588
881.112	22580
881.239	22485
881.366	22318
881.493	22318
881.619	22246
881.746	22325
881.872	22200
881.999	22097
882.125	22204
882.252	22135
882.378	22074
882.505	22196
882.631	22010
882.757	22010
882.883	22006
883.01	21937
883.136	21895
883.262	21819
883.388	21663
883.514	21861
883.64	21850
883.766	21751
883.892	21736
884.018	21709
884.143	21869
884.269	21873
884.395	21542
884.52	21614
884.646	21504
884.772	21515
884.897	21405
885.023	21504
885.148	21625
885.274	21694
885.399	21519
885.524	21477
885.65	21500
885.775	21515
885.9	21462
886.025	21694
886.15	21625
886.275	21359
886.4	21298
886.525	21454
886.65	21359
886.775	21450
886.9	21504
887.025	21846
887.149	21530
887.274	21310
887.399	21272
887.523	21298
887.648	21230
887.773	21230
887.897	21306
888.021	21268
888.146	21214
888.27	21397
888.395	21416
888.519	21245
888.643	21325
888.767	21363
888.891	21241
889.015	21081
889.139	21176
889.263	21047
889.387	21157
889.511	21283
889.635	21272
889.759	21013
889.883	21085
890.006	20975
890.13	21017
890.254	20906
890.377	20895
890.501	20765
890.624	20754
890.748	20819
890.871	20594
890.995	20518
891.118	20602
891.241	20651
891.364	20674
891.488	20735
891.611	20579
891.734	20560
891.857	20617
891.98	20560
892.103	20651
892.226	20659
892.349	20640
892.471	20469
892.594	20564
892.717	20560
892.839	20522
892.962	20648
893.085	20670
893.207	20473
893.33	20442
893.452	20461
893.575	20552
893.697	20423
893.819	20621
893.941	20651
894.064	20575
894.186	20374
894.308	20461
894.43	20598
894.552	20617
894.674	20514
894.796	20351
894.918	20446
895.04	20412
895.161	20674
895.283	20545
895.405	20377
895.526	20541
895.648	20488
895.769	20408
895.891	20575
896.012	20640
896.134	20518
896.255	20507
896.376	20594
896.498	20507
896.619	20377
896.74	20549
896.861	20590
896.982	20815
897.103	21058
897.224	20819
897.345	20708
897.466	20682
897.587	20682
897.708	20777
897.828	20830
897.949	20644
898.07	20587
898.19	20701
898.311	20876
898.431	20674
898.552	20667
898.672	20701
898.792	20724
898.913	20682
899.033	20670
899.153	20518
899.273	20301
899.393	20507
899.513	20415
899.633	20400
899.753	20469
899.873	20347
899.993	20484
900.113	20263
900.232	20339
900.352	20332
900.472	20309
900.591	20229
900.711	20157
900.83	20168
900.95	20320
901.069	20248
901.189	20062
901.308	19769
901.427	19738
901.546	19776
901.665	19605
901.784	19814
901.904	19647
902.023	19476
902.141	19407
902.26	19312
902.379	19324
902.498	19206
902.617	19327
902.735	19343
902.854	19187
902.973	19050
903.091	18939
903.21	18859
903.328	18916
903.446	18768
903.565	18692
903.683	18711
903.801	18555
903.919	18734
904.038	18658
904.156	18631
904.274	18483
904.392	18506
904.51	18502
904.627	18441
904.745	18471
904.863	18498
904.981	18190
905.098	18117
905.216	18197
905.334	18178
905.451	18140
905.569	18129
905.686	18289
905.803	18129
905.921	17999
906.038	18030
906.155	17992
906.272	17718
906.389	17775
906.506	17703
906.623	17737
906.74	17653
906.857	17455
906.974	17516
907.091	17722
907.208	17718
907.324	17695
907.441	17520
907.557	17376
907.674	17425
907.79	17254
907.907	17337
908.023	17307
908.139	17459
908.256	17292
908.372	17261
908.488	17235
908.604	17029
908.72	17022
908.836	17045
908.952	17056
909.068	17010
909.184	17216
909.3	17010
909.415	17098
909.531	17003
909.647	16793
909.762	16729
909.878	16782
909.993	16683
910.108	16622
910.224	16713
910.339	16691
910.454	16599
910.57	16565
910.685	16443
910.8	16733
910.915	16721
911.03	16504
911.145	16280
911.259	16329
911.374	16356
911.489	16253
911.604	16166
911.718	16021
911.833	16044
911.947	16051
912.062	15903
912.176	16063
912.291	16090
912.405	16063
912.519	16192
912.633	16223
912.748	16116
912.862	15934
912.976	15876
913.09	15751
913.204	15739
913.318	15770
913.431	15915
913.545	15979
913.659	15930
913.772	15720
913.886	15755
914	15671
914.113	15819
914.226	15850
914.34	15713
914.453	15564
914.566	15713
914.68	15534
914.793	15462
914.906	15291
915.019	15218
915.132	15214
915.245	15241
915.358	15348
915.47	15184
915.583	15249
915.696	15294
915.809	15359
915.921	15363
916.034	15233
916.146	15104
916.259	15074
916.371	15188
916.483	15302
916.595	15043
916.708	15032
916.82	15089
916.932	15165
917.044	15055
917.156	15013
917.268	14826
917.38	14857
917.491	14902
917.603	14979
917.715	14876
917.826	15005
917.938	14811
918.049	14720
918.161	14807
918.272	14948
918.384	14998
918.495	14804
918.606	14670
918.717	14526
918.828	14583
918.939	14579
919.05	14431
919.161	14674
919.272	14389
919.383	14514
919.494	14693
919.604	14792
919.715	14644
919.826	14484
919.936	14583
920.047	14667
920.157	14545
920.267	14823
920.378	14476
920.488	14480
920.598	14815
920.708	15009
920.818	14689
920.928	14750
921.038	14857
921.148	14712
921.258	14526
921.368	14484
921.477	14221
921.587	14290
921.697	14210
921.806	14282
921.916	14103
922.025	14031
922.134	14024
922.244	13974
922.353	13989
922.462	13799
922.571	13769
922.68	13670
922.789	13620
922.898	13613
923.007	13540
923.116	13571
923.224	13590
923.333	13563
923.442	13476
923.55	13392
923.659	13441
923.767	13419
923.876	13350
923.984	13411
924.092	13278
924.201	13251
924.309	13327
924.417	13255
924.525	13202
924.633	13221
924.741	13955
924.849	12973
924.956	13168
925.064	13042
925.172	12913
925.279	13042
925.387	12993
925.494	12985
925.602	13076
925.709	13012
925.816	12951
925.924	12943
926.031	13000
926.138	13004
926.245	12905
926.352	12859
926.459	12886
926.566	13034
926.673	12817
926.779	12810
926.886	12734
926.993	12612
927.099	12654
927.206	12513
927.312	12521
927.419	12601
927.525	12540
927.631	12494
927.737	12391
927.843	12338
927.95	12338
928.056	12338
928.162	12311
928.267	12410
928.373	12939
928.479	12426
928.585	12190
928.69	12327
928.796	12350
928.901	12144
929.007	12133
929.112	12163
929.218	12220
929.323	12038
929.428	12064
929.533	12194
929.638	12003
929.743	12034
929.848	12095
929.953	11996
930.058	11863
930.163	11745
930.267	11809
930.372	11882
930.477	11718
930.581	11950
930.685	11870
930.79	11634
930.894	11722
930.998	11608
931.103	11733
931.207	11307
931.311	11265
931.415	11261
931.519	11041
931.623	11041
