Data from test_V78500241_1772.txt Node
Date: Fri Mar 25 15:54:04 CST 2022
User: usil
Spectrometer: V785-0024
Trigger mode: 0
Integration Time (sec): 4.000000E-1
Scans to average: 1
Nonlinearity correction enabled: false
Boxcar width: 0
Storing dark spectrum: false
XAxis mode: Wavelengths
Number of Pixels in Spectrum: 1024
>>>>>Begin Spectral Data<<<<<
801.071	28493
801.214	28451
801.356	28238
801.499	28196
801.641	28013
801.783	28112
801.926	28169
802.068	28002
802.211	28109
802.353	27983
802.496	27873
802.638	27781
802.78	27774
802.923	27675
803.065	27599
803.208	27641
803.35	27838
803.492	27998
803.635	27968
803.777	27816
803.919	27968
804.061	28185
804.204	28067
804.346	27918
804.488	27888
804.63	28002
804.773	27926
804.915	28093
805.057	27899
805.199	28059
805.341	28166
805.483	28135
805.626	28067
805.768	28097
805.91	28135
806.052	28196
806.194	28082
806.336	28367
806.478	28109
806.62	28131
806.762	28188
806.904	28405
807.046	28683
807.188	28481
807.33	28622
807.472	28596
807.614	28436
807.756	28611
807.898	28413
808.04	28348
808.182	28462
808.324	28508
808.465	28504
808.607	28721
808.749	28805
808.891	28930
809.033	28866
809.174	28835
809.316	28946
809.458	28820
809.6	28824
809.741	29041
809.883	29056
810.025	29121
810.166	29109
810.308	29010
810.45	28991
810.591	29102
810.733	28881
810.875	28896
811.016	28767
811.158	28649
811.299	28835
811.441	28991
811.582	28927
811.724	28873
811.865	28835
812.007	28740
812.148	28869
812.29	28942
812.431	29086
812.573	29200
812.714	29292
812.855	29368
812.997	29421
813.138	29516
813.279	29611
813.421	29459
813.562	29250
813.703	29174
813.845	28972
813.986	28759
814.127	28729
814.268	28592
814.41	28603
814.551	28485
814.692	28637
814.833	28451
814.974	28436
815.115	28592
815.256	28348
815.397	28436
815.539	28417
815.68	28276
815.821	28226
815.962	28234
816.103	28405
816.244	28112
816.385	28249
816.526	27960
816.666	27968
816.807	27846
816.948	27911
817.089	27865
817.23	27804
817.371	27876
817.512	27713
817.653	27846
817.793	27728
817.934	27823
818.075	27880
818.216	27907
818.356	27660
818.497	27720
818.638	27599
818.778	27564
818.919	27610
819.06	27717
819.2	27720
819.341	27857
819.481	27876
819.622	28078
819.762	28112
819.903	28112
820.043	27941
820.184	27861
820.324	27899
820.465	28002
820.605	27983
820.746	27937
820.886	27614
821.026	28010
821.167	27804
821.307	27949
821.447	27911
821.588	27789
821.728	27667
821.868	27511
822.008	27340
822.149	27264
822.289	27165
822.429	27058
822.569	27055
822.709	27157
822.849	26788
822.99	26667
823.13	26883
823.27	26800
823.41	26651
823.55	26484
823.69	26667
823.83	26457
823.97	26663
824.11	26499
824.25	26518
824.389	26412
824.529	26564
824.669	26598
824.809	26514
824.949	26552
825.089	26560
825.228	26492
825.368	26339
825.508	26351
825.648	26415
825.787	26434
825.927	26389
826.067	26347
826.206	26393
826.346	26317
826.485	26358
826.625	26328
826.765	26393
826.904	26434
827.044	26050
827.183	26077
827.323	26092
827.462	26024
827.601	26084
827.741	26031
827.88	26084
828.02	25970
828.159	26081
828.298	26035
828.437	26050
828.577	25944
828.716	26084
828.855	26027
828.994	25624
829.134	25795
829.273	25818
829.412	25803
829.551	25715
829.69	25769
829.829	25689
829.968	25814
830.107	25856
830.246	25677
830.385	25700
830.524	25689
830.663	25514
830.802	25392
830.941	25354
831.08	25278
831.219	25438
831.357	25449
831.496	25578
831.635	25320
831.774	25293
831.913	25240
832.051	25057
832.19	25206
832.329	25107
832.467	25031
832.606	24939
832.744	24932
832.883	25031
833.022	24856
833.16	25076
833.299	25133
833.437	25031
833.576	24977
833.714	25103
833.852	25175
833.991	25046
834.129	25118
834.267	25141
834.406	25069
834.544	25126
834.682	25160
834.821	25118
834.959	25228
835.097	25053
835.235	25042
835.373	24973
835.511	25046
835.65	24753
835.788	25015
835.926	24741
836.064	24726
836.202	24730
836.34	24932
836.478	25008
836.615	24821
836.753	24863
836.891	25042
837.029	24894
837.167	24844
837.305	24810
837.443	24783
837.58	24665
837.718	24772
837.856	24665
837.993	24700
838.131	24806
838.269	24597
838.406	24760
838.544	24498
838.681	24369
838.819	24422
838.956	24228
839.094	24140
839.231	24254
839.369	24334
839.506	24563
839.643	24475
839.781	24235
839.918	24152
840.055	24178
840.193	24114
840.33	24095
840.467	24114
840.604	24186
840.742	24369
840.879	23889
841.016	24060
841.153	23946
841.29	24201
841.427	23980
841.564	24114
841.701	24102
841.838	23942
841.975	23885
842.112	23996
842.249	23840
842.385	23980
842.522	24182
842.659	24015
842.796	23843
842.933	23885
843.069	23828
843.206	23805
843.343	23866
843.479	23760
843.616	23878
843.752	23558
843.889	23672
844.025	23798
844.162	23535
844.298	23703
844.435	23676
844.571	23558
844.708	23611
844.844	23893
844.98	23668
845.117	23684
845.253	23619
845.389	23562
845.525	23490
845.661	23417
845.798	23391
845.934	23322
846.07	23292
846.206	23402
846.342	23509
846.478	23364
846.614	23090
846.75	23147
846.886	23109
847.022	23151
847.158	23143
847.294	23079
847.429	22976
847.565	23037
847.701	23269
847.837	22915
847.972	22831
848.108	22942
848.244	22797
848.379	22786
848.515	22592
848.65	22675
848.786	22679
848.921	22713
849.057	22763
849.192	22771
849.328	22603
849.463	22588
849.598	22634
849.734	22542
849.869	22516
850.004	22329
850.14	22440
850.275	22451
850.41	22424
850.545	22352
850.68	22341
850.815	22375
850.95	22424
851.085	22565
851.22	22523
851.355	22413
851.49	22394
851.625	22474
851.76	22299
851.895	22417
852.03	22379
852.165	22451
852.299	22611
852.434	22546
852.569	22470
852.703	22443
852.838	22508
852.973	22607
853.107	22527
853.242	22421
853.376	22352
853.511	22139
853.645	22246
853.78	22291
853.914	22344
854.048	22234
854.183	22230
854.317	22379
854.451	22421
854.585	22177
854.72	22219
854.854	22356
854.988	22177
855.122	22272
855.256	22147
855.39	22173
855.524	22314
855.658	22360
855.792	22246
855.926	22272
856.06	22265
856.194	22310
856.327	22333
856.461	22162
856.595	22226
856.729	22226
856.862	22280
856.996	22314
857.13	22386
857.263	22287
857.397	22379
857.53	22188
857.664	22204
857.797	22242
857.931	22356
858.064	22268
858.197	22268
858.331	22284
858.464	22253
858.597	22192
858.731	22299
858.864	22169
858.997	22158
859.13	22185
859.263	22249
859.396	22379
859.529	22223
859.662	22181
859.795	22234
859.928	22379
860.061	22512
860.194	22375
860.327	22523
860.46	22276
860.592	22322
860.725	22428
860.858	22261
860.99	22306
861.123	22093
861.256	22280
861.388	22261
861.521	23098
861.653	22124
861.786	22036
861.918	22044
862.05	22101
862.183	22116
862.315	22051
862.447	22261
862.58	22139
862.712	21956
862.844	21888
862.976	21983
863.108	22010
863.24	22356
863.372	22086
863.504	21934
863.636	21972
863.768	22029
863.9	21994
864.032	21880
864.164	21953
864.296	22124
864.428	22086
864.559	22002
864.691	22139
864.823	21987
864.954	21937
865.086	21968
865.217	21930
865.349	21732
865.48	21705
865.612	21812
865.743	21926
865.875	21915
866.006	21717
866.137	21846
866.269	21838
866.4	21808
866.531	21850
866.662	21819
866.793	21724
866.924	21698
867.055	21945
867.186	21838
867.317	21732
867.448	21694
867.579	21682
867.71	21660
867.841	21648
867.972	21850
868.103	21694
868.233	21770
868.364	21728
868.495	21930
868.625	21987
868.756	22135
868.886	21880
869.017	22067
869.147	22067
869.278	22010
869.408	22002
869.539	22032
869.669	22120
869.799	22055
869.929	22215
870.06	22135
870.19	22234
870.32	22230
870.45	22375
870.58	22356
870.71	22573
870.84	22485
870.97	22409
871.1	22398
871.23	22512
871.36	22683
871.489	22580
871.619	22451
871.749	22634
871.879	22580
872.008	22729
872.138	22691
872.267	22565
872.397	22504
872.526	22497
872.656	22554
872.785	22421
872.915	22573
873.044	22717
873.173	22561
873.303	22653
873.432	22790
873.561	22759
873.69	22630
873.819	22592
873.948	22828
874.077	22748
874.206	22622
874.335	22599
874.464	22805
874.593	22892
874.722	22759
874.851	22850
874.979	22938
875.108	22885
875.237	22713
875.365	22812
875.494	22725
875.623	22896
875.751	22847
875.88	22900
876.008	22987
876.136	23048
876.265	23242
876.393	23356
876.521	23261
876.65	23280
876.778	23162
876.906	23341
877.034	23132
877.162	23250
877.29	23113
877.418	23277
877.546	23181
877.674	23204
877.802	23162
877.93	23292
878.058	23052
878.185	23014
878.313	23181
878.441	23242
878.568	23094
878.696	23037
878.824	23143
878.951	23330
879.079	23406
879.206	23417
879.333	23436
879.461	23242
879.588	23406
879.715	23356
879.842	23433
879.97	23296
880.097	23014
880.224	22923
880.351	23193
880.478	23048
880.605	23006
880.732	22976
880.859	23185
880.986	23052
881.112	23022
881.239	22843
881.366	22736
881.493	22752
881.619	22592
881.746	22565
881.872	22634
881.999	22546
882.125	22516
882.252	22626
882.378	22634
882.505	22660
882.631	22348
882.757	22363
882.883	22268
883.01	22234
883.136	22154
883.262	22166
883.388	21987
883.514	22333
883.64	22287
883.766	22204
883.892	21994
884.018	22074
884.143	22116
884.269	22287
884.395	21941
884.52	21956
884.646	21972
884.772	21892
884.897	21739
885.023	21899
885.148	21964
885.274	22059
885.399	22017
885.524	21846
885.65	21945
885.775	21827
885.9	21842
886.025	22029
886.15	21918
886.275	21869
886.4	21888
886.525	21717
886.65	21816
886.775	21759
886.9	22051
887.025	22147
887.149	21930
887.274	21736
887.399	21720
887.523	21618
887.648	21637
887.773	21629
887.897	21701
888.021	21736
888.146	21564
888.27	21895
888.395	21770
888.519	21656
888.643	21561
888.767	21762
888.891	21553
889.015	21469
889.139	21469
889.263	21431
889.387	21534
889.511	21583
889.635	21633
889.759	21351
889.883	21435
890.006	21443
890.13	21481
890.254	21340
890.377	21321
890.501	21146
890.624	21089
890.748	21214
890.871	21001
890.995	21017
891.118	21009
891.241	21009
891.364	20994
891.488	21127
891.611	20941
891.734	21066
891.857	21074
891.98	21028
892.103	21024
892.226	20941
892.349	20880
892.471	20750
892.594	20918
892.717	20918
892.839	20876
892.962	20925
893.085	20883
893.207	20906
893.33	20746
893.452	20842
893.575	20990
893.697	20960
893.819	20979
893.941	21013
894.064	21066
894.186	20933
894.308	21001
894.43	20807
894.552	20937
894.674	20891
894.796	20800
894.918	20952
895.04	20876
895.161	21028
895.283	21009
895.405	20815
895.526	20868
895.648	20998
895.769	20906
895.891	20960
896.012	20811
896.134	20815
896.255	20769
896.376	20800
896.498	20842
896.619	20864
896.74	20941
896.861	20918
896.982	21233
897.103	21351
897.224	21180
897.345	21142
897.466	21028
897.587	21169
897.708	21173
897.828	21180
897.949	20933
898.07	20921
898.19	20967
898.311	21135
898.431	21036
898.552	21157
898.672	21116
898.792	21131
898.913	21005
899.033	20986
899.153	20986
899.273	20682
899.393	20906
899.513	20929
899.633	20895
899.753	20944
899.873	20750
899.993	20811
900.113	20739
900.232	20811
900.352	20716
900.472	20537
900.591	20484
900.711	20575
900.83	20469
900.95	20594
901.069	20606
901.189	20545
901.308	20218
901.427	20161
901.546	20202
901.665	20206
901.784	20031
901.904	20111
902.023	19989
902.141	19769
902.26	19689
902.379	19719
902.498	19670
902.617	19704
902.735	19761
902.854	19624
902.973	19529
903.091	19354
903.21	19308
903.328	19282
903.446	19259
903.565	19141
903.683	19129
903.801	19012
903.919	19137
904.038	19027
904.156	18928
904.274	19008
904.392	18928
904.51	18783
904.627	18840
904.745	18894
904.863	19000
904.981	18700
905.098	18593
905.216	18608
905.334	18623
905.451	18593
905.569	18528
905.686	18623
905.803	18627
905.921	18369
906.038	18384
906.155	18289
906.272	18197
906.389	18216
906.506	18186
906.623	18079
906.74	18098
906.857	17878
906.974	18003
907.091	18190
907.208	18235
907.324	18057
907.441	17904
907.557	17798
907.674	17676
907.79	17726
907.907	17707
908.023	17897
908.139	17710
908.256	17733
908.372	17630
908.488	17684
908.604	17505
908.72	17444
908.836	17570
908.952	17398
909.068	17558
909.184	17558
909.3	17436
909.415	17467
909.531	17429
909.647	17273
909.762	17113
909.878	17102
909.993	17197
910.108	17136
910.224	17124
910.339	17162
910.454	17022
910.57	16987
910.685	16896
910.8	17220
910.915	17147
911.03	16930
911.145	16793
911.259	16771
911.374	16831
911.489	16710
911.604	16634
911.718	16489
911.833	16561
911.947	16519
912.062	16314
912.176	16497
912.291	16546
912.405	16470
912.519	16752
912.633	16706
912.748	16561
912.862	16519
912.976	16348
913.09	16352
913.204	16253
913.318	16382
913.431	16440
913.545	16379
913.659	16447
913.772	16303
913.886	16139
914	16101
914.113	16280
914.226	16287
914.34	16158
914.453	16013
914.566	16093
914.68	16074
914.793	16021
914.906	15857
915.019	15778
915.132	15606
915.245	15732
915.358	15724
915.47	15675
915.583	15698
915.696	15690
915.809	15778
915.921	15755
916.034	15637
916.146	15557
916.259	15656
916.371	15663
916.483	15644
916.595	15466
916.708	15622
916.82	15568
916.932	15492
917.044	15519
917.156	15504
917.268	15268
917.38	15310
917.491	15291
917.603	15283
917.715	15393
917.826	15348
917.938	15275
918.049	15218
918.161	15249
918.272	15408
918.384	15386
918.495	15294
918.606	15112
918.717	15043
918.828	15062
918.939	15051
919.05	14975
919.161	15077
919.272	14845
919.383	14872
919.494	15077
919.604	15245
919.715	14986
919.826	14963
919.936	15070
920.047	15058
920.157	15104
920.267	15245
920.378	14967
920.488	14937
920.598	15154
920.708	15283
920.818	15188
920.928	15222
921.038	15378
921.148	15260
921.258	14891
921.368	14796
921.477	14773
921.587	14663
921.697	14708
921.806	14701
921.916	14610
922.025	14484
922.134	14343
922.244	14317
922.353	14469
922.462	14374
922.571	14248
922.68	14142
922.789	13955
922.898	14088
923.007	13970
923.116	13936
923.224	13993
923.333	14058
923.442	13921
923.55	13849
923.659	13864
923.767	13902
923.876	13803
923.984	13841
924.092	13807
924.201	13708
924.309	13761
924.417	13845
924.525	13742
924.633	13662
924.741	14408
924.849	13388
924.956	13594
925.064	13464
925.172	13388
925.279	13422
925.387	13468
925.494	13331
925.602	13499
925.709	13445
925.816	13278
925.924	13422
926.031	13422
926.138	13362
926.245	13331
926.352	13190
926.459	13308
926.566	13365
926.673	13312
926.779	13179
926.886	13221
926.993	13034
927.099	12973
927.206	12958
927.312	12932
927.419	12951
927.525	12886
927.631	13027
927.737	12875
927.843	12806
927.95	12654
928.056	12776
928.162	12772
928.267	12814
928.373	13438
928.479	12875
928.585	12658
928.69	12662
928.796	12776
928.901	12597
929.007	12517
929.112	12692
929.218	12612
929.323	12486
929.428	12490
929.533	12688
929.638	12399
929.743	12391
929.848	12502
929.953	12445
930.058	12289
930.163	12129
930.267	12152
930.372	12372
930.477	12171
930.581	12399
930.685	12232
930.79	11984
930.894	12068
930.998	12034
931.103	12148
931.207	11710
931.311	11722
931.415	11547
931.519	11398
931.623	11406
