Data from test_V78500241_773.txt Node
Date: Fri Mar 25 15:47:09 CST 2022
User: usil
Spectrometer: V785-0024
Trigger mode: 0
Integration Time (sec): 4.000000E-1
Scans to average: 1
Nonlinearity correction enabled: false
Boxcar width: 0
Storing dark spectrum: false
XAxis mode: Wavelengths
Number of Pixels in Spectrum: 1024
>>>>>Begin Spectral Data<<<<<
801.071	28196
801.214	28002
801.356	27762
801.499	27667
801.641	27561
801.783	27614
801.926	27618
802.068	27625
802.211	27534
802.353	27370
802.496	27237
802.638	27298
802.78	27226
802.923	27184
803.065	27074
803.208	27180
803.35	27279
803.492	27363
803.635	27405
803.777	27321
803.919	27454
804.061	27812
804.204	27530
804.346	27386
804.488	27310
804.63	27435
804.773	27363
804.915	27564
805.057	27545
805.199	27378
805.341	27572
805.483	27694
805.626	27526
805.768	27564
805.91	27485
806.052	27701
806.194	27382
806.336	27751
806.478	27755
806.62	27682
806.762	27785
806.904	27899
807.046	28200
807.188	28067
807.33	28120
807.472	28162
807.614	27960
807.756	27991
807.898	27884
808.04	27762
808.182	27918
808.324	28032
808.465	27682
808.607	28078
808.749	28234
808.891	28268
809.033	28341
809.174	28257
809.316	28215
809.458	28265
809.6	28154
809.741	28356
809.883	28390
810.025	28717
810.166	28561
810.308	28656
810.45	28599
810.591	28401
810.733	28447
810.875	28261
811.016	28177
811.158	28185
811.299	28538
811.441	28421
811.582	28554
811.724	28329
811.865	28226
812.007	28356
812.148	28356
812.29	28409
812.431	28535
812.573	28573
812.714	28660
812.855	28740
812.997	28949
813.138	28987
813.279	28881
813.421	28896
813.562	28831
813.703	28649
813.845	28508
813.986	28268
814.127	28070
814.268	27827
814.41	27880
814.551	27987
814.692	28063
814.833	27873
814.974	27972
815.115	28032
815.256	27926
815.397	27778
815.539	27774
815.68	27892
815.821	27705
815.962	27713
816.103	27755
816.244	27663
816.385	27599
816.526	27553
816.666	27313
816.807	27287
816.948	27359
817.089	27507
817.23	27283
817.371	27264
817.512	27302
817.653	27370
817.793	27138
817.934	27287
818.075	27340
818.216	27359
818.356	27310
818.497	27150
818.638	26967
818.778	27013
818.919	27112
819.06	27154
819.2	27279
819.341	27192
819.481	27192
819.622	27496
819.762	27644
819.903	27538
820.043	27507
820.184	27504
820.324	27450
820.465	27469
820.605	27382
820.746	27355
820.886	27188
821.026	27412
821.167	27344
821.307	27298
821.447	27355
821.588	27108
821.728	27173
821.868	26994
822.008	26800
822.149	26693
822.289	26918
822.429	26480
822.569	26568
822.709	26564
822.849	26267
822.99	26202
823.13	26259
823.27	26161
823.41	26126
823.55	25921
823.69	26081
823.83	26039
823.97	26046
824.11	25772
824.25	26008
824.389	25753
824.529	25936
824.669	26096
824.809	25940
824.949	25917
825.089	25951
825.228	25986
825.368	25750
825.508	25791
825.648	25795
825.787	25788
825.927	25788
826.067	25712
826.206	25856
826.346	25674
826.485	25860
826.625	25780
826.765	25837
826.904	25845
827.044	25556
827.183	25594
827.323	25415
827.462	25578
827.601	25479
827.741	25476
827.88	25506
828.02	25403
828.159	25518
828.298	25499
828.437	25548
828.577	25407
828.716	25578
828.855	25373
828.994	25168
829.134	25179
829.273	25198
829.412	25156
829.551	25110
829.69	25346
829.829	25263
829.968	25148
830.107	25187
830.246	25133
830.385	25023
830.524	25126
830.663	25091
830.802	24810
830.941	24882
831.08	24844
831.219	24833
831.357	24783
831.496	24989
831.635	24734
831.774	24715
831.913	24871
832.051	24585
832.19	24471
832.329	24544
832.467	24448
832.606	24353
832.744	24608
832.883	24513
833.022	24475
833.16	24509
833.299	24422
833.437	24566
833.576	24540
833.714	24528
833.852	24582
833.991	24494
834.129	24601
834.267	24673
834.406	24452
834.544	24479
834.682	24570
834.821	24369
834.959	24757
835.097	24498
835.235	24502
835.373	24509
835.511	24513
835.65	24391
835.788	24433
835.926	24239
836.064	24292
836.202	24224
836.34	24357
836.478	24433
836.615	24338
836.753	24369
836.891	24505
837.029	24254
837.167	24315
837.305	24205
837.443	24224
837.58	24133
837.718	24270
837.856	24327
837.993	24205
838.131	24102
838.269	24068
838.406	24182
838.544	23999
838.681	23813
838.819	23672
838.956	23547
839.094	23707
839.231	23649
839.369	23824
839.506	23992
839.643	23855
839.781	23676
839.918	23649
840.055	23691
840.193	23668
840.33	23611
840.467	23630
840.604	23490
840.742	23859
840.879	23535
841.016	23573
841.153	23535
841.29	23589
841.427	23604
841.564	23657
841.701	23535
841.838	23581
841.975	23406
842.112	23505
842.249	23353
842.385	23296
842.522	23596
842.659	23395
842.796	23326
842.933	23326
843.069	23151
843.206	23337
843.343	23421
843.479	23315
843.616	23288
843.752	23086
843.889	23010
844.025	23246
844.162	22991
844.298	23109
844.435	23067
844.571	23025
844.708	23136
844.844	23322
844.98	23288
845.117	23220
845.253	23117
845.389	22965
845.525	22980
845.661	22938
845.798	22812
845.934	22911
846.07	22698
846.206	22877
846.342	22999
846.478	22812
846.614	22637
846.75	22527
846.886	22573
847.022	22557
847.158	22546
847.294	22508
847.429	22577
847.565	22478
847.701	22873
847.837	22379
847.972	22329
848.108	22394
848.244	22489
848.379	22276
848.515	22147
848.65	22105
848.786	22105
848.921	22246
849.057	22352
849.192	22249
849.328	22166
849.463	22242
849.598	22128
849.734	22097
849.869	21903
850.004	21869
850.14	21926
850.275	21934
850.41	21778
850.545	21926
850.68	21907
850.815	21953
850.95	21983
851.085	22105
851.22	22116
851.355	21975
851.49	21861
851.625	21953
851.76	21880
851.895	21720
852.03	21873
852.165	21930
852.299	22067
852.434	22109
852.569	21964
852.703	21979
852.838	21979
852.973	22158
853.107	22040
853.242	21937
853.376	21789
853.511	21656
853.645	21793
853.78	21873
853.914	21701
854.048	21720
854.183	21614
854.317	21705
854.451	22006
854.585	21671
854.72	21747
854.854	21728
854.988	21686
855.122	21717
855.256	21701
855.39	21774
855.524	21800
855.658	21831
855.792	21854
855.926	21907
856.06	21850
856.194	21842
856.327	21682
856.461	21698
856.595	21785
856.729	21739
856.862	21854
856.996	21873
857.13	21873
857.263	21819
857.397	21720
857.53	21713
857.664	21641
857.797	21793
857.931	21907
858.064	21907
858.197	21755
858.331	21812
858.464	21625
858.597	21759
858.731	21717
858.864	21709
858.997	21675
859.13	21667
859.263	21816
859.396	21831
859.529	21724
859.662	21679
859.795	21698
859.928	21637
860.061	21854
860.194	21838
860.327	21819
860.46	21743
860.592	21937
860.725	21941
860.858	21960
860.99	21736
861.123	21720
861.256	21762
861.388	21732
861.521	22462
861.653	21663
861.786	21553
861.918	21587
862.05	21679
862.183	21698
862.315	21717
862.447	21766
862.58	21667
862.712	21542
862.844	21428
862.976	21603
863.108	21515
863.24	21915
863.372	21393
863.504	21420
863.636	21412
863.768	21538
863.9	21416
864.032	21283
864.164	21519
864.296	21416
864.428	21549
864.559	21633
864.691	21462
864.823	21428
864.954	21420
865.086	21378
865.217	21405
865.349	21268
865.48	21313
865.612	21340
865.743	21473
865.875	21401
866.006	21283
866.137	21374
866.269	21264
866.4	21249
866.531	21291
866.662	21317
866.793	21195
866.924	21195
867.055	21279
867.186	21275
867.317	21291
867.448	21199
867.579	21249
867.71	21173
867.841	21195
867.972	21401
868.103	21207
868.233	21268
868.364	21226
868.495	21382
868.625	21519
868.756	21637
868.886	21363
869.017	21439
869.147	21614
869.278	21591
869.408	21587
869.539	21416
869.669	21595
869.799	21644
869.929	21583
870.06	21603
870.19	21701
870.32	21698
870.45	21884
870.58	21884
870.71	22067
870.84	21930
870.97	21953
871.1	21975
871.23	22029
871.36	22147
871.489	22051
871.619	22036
871.749	22173
871.879	21994
872.008	22215
872.138	22166
872.267	22139
872.397	21979
872.526	22010
872.656	22010
872.785	21857
872.915	22109
873.044	22162
873.173	22074
873.303	22162
873.432	22253
873.561	22177
873.69	22116
873.819	22082
873.948	22166
874.077	22169
874.206	22074
874.335	22128
874.464	22226
874.593	22394
874.722	22325
874.851	22402
874.979	22394
875.108	22424
875.237	22386
875.365	22344
875.494	22348
875.623	22424
875.751	22386
875.88	22382
876.008	22386
876.136	22554
876.265	22717
876.393	22972
876.521	22854
876.65	22908
876.778	22702
876.906	22736
877.034	22546
877.162	22516
877.29	22641
877.418	22577
877.546	22691
877.674	22717
877.802	22710
877.93	22645
878.058	22596
878.185	22645
878.313	22694
878.441	22713
878.568	22557
878.696	22554
878.824	22721
878.951	22675
879.079	22862
879.206	23018
879.333	22938
879.461	22710
879.588	22923
879.715	22828
879.842	22911
879.97	22725
880.097	22466
880.224	22546
880.351	22497
880.478	22691
880.605	22413
880.732	22512
880.859	22694
880.986	22538
881.112	22615
881.239	22375
881.366	22166
881.493	22192
881.619	22105
881.746	22105
881.872	22093
881.999	22040
882.125	21941
882.252	22135
882.378	21968
882.505	22078
882.631	21953
882.757	21755
882.883	21835
883.01	21800
883.136	21724
883.262	21713
883.388	21671
883.514	21797
883.64	21804
883.766	21587
883.892	21519
884.018	21606
884.143	21770
884.269	21747
884.395	21481
884.52	21485
884.646	21507
884.772	21294
884.897	21351
885.023	21401
885.148	21454
885.274	21580
885.399	21538
885.524	21431
885.65	21428
885.775	21378
885.9	21439
886.025	21397
886.15	21420
886.275	21389
886.4	21195
886.525	21389
886.65	21310
886.775	21382
886.9	21466
887.025	21625
887.149	21439
887.274	21245
887.399	21287
887.523	21116
887.648	21226
887.773	21207
887.897	21275
888.021	21241
888.146	21180
888.27	21207
888.395	21332
888.519	21230
888.643	21043
888.767	21268
888.891	21150
889.015	21024
889.139	21051
889.263	20921
889.387	21024
889.511	21157
889.635	21116
889.759	20963
889.883	20895
890.006	21020
890.13	20986
890.254	21036
890.377	20956
890.501	20678
890.624	20629
890.748	20773
890.871	20648
890.995	20484
891.118	20495
891.241	20629
891.364	20492
891.488	20655
891.611	20606
891.734	20617
891.857	20640
891.98	20495
892.103	20602
892.226	20568
892.349	20518
892.471	20263
892.594	20473
892.717	20564
892.839	20404
892.962	20480
893.085	20533
893.207	20552
893.33	20305
893.452	20492
893.575	20427
893.697	20343
893.819	20659
893.941	20659
894.064	20629
894.186	20347
894.308	20282
894.43	20473
894.552	20552
894.674	20499
894.796	20366
894.918	20400
895.04	20252
895.161	20617
895.283	20488
895.405	20301
895.526	20450
895.648	20419
895.769	20492
895.891	20469
896.012	20457
896.134	20480
896.255	20389
896.376	20442
896.498	20396
896.619	20454
896.74	20434
896.861	20427
896.982	20800
897.103	20929
897.224	20594
897.345	20648
897.466	20583
897.587	20739
897.708	20785
897.828	20682
897.949	20632
898.07	20556
898.19	20473
898.311	20693
898.431	20530
898.552	20724
898.672	20693
898.792	20705
898.913	20708
899.033	20514
899.153	20465
899.273	20290
899.393	20347
899.513	20492
899.633	20404
899.753	20381
899.873	20317
899.993	20248
900.113	20225
900.232	20438
900.352	20237
900.472	20320
900.591	19951
900.711	20027
900.83	20172
900.95	20237
901.069	20237
901.189	20043
901.308	19712
901.427	19712
901.546	19655
901.665	19719
901.784	19700
901.904	19685
902.023	19529
902.141	19160
902.26	19354
902.379	19316
902.498	19198
902.617	19244
902.735	19278
902.854	19266
902.973	19160
903.091	18859
903.21	18939
903.328	18935
903.446	18772
903.565	18677
903.683	18700
903.801	18604
903.919	18658
904.038	18582
904.156	18555
904.274	18608
904.392	18437
904.51	18445
904.627	18540
904.745	18494
904.863	18528
904.981	18194
905.098	18304
905.216	18232
905.334	18148
905.451	18152
905.569	18136
905.686	18197
905.803	18228
905.921	18030
906.038	18087
906.155	17939
906.272	17851
906.389	17843
906.506	17756
906.623	17653
906.74	17691
906.857	17634
906.974	17687
907.091	17737
907.208	17794
907.324	17691
907.441	17634
907.557	17414
907.674	17421
907.79	17242
907.907	17353
908.023	17497
908.139	17254
908.256	17337
908.372	17318
908.488	17231
908.604	17113
908.72	17098
908.836	17052
908.952	17029
909.068	17102
909.184	17170
909.3	17102
909.415	17090
909.531	17079
909.647	16809
909.762	16828
909.878	16885
909.993	16771
910.108	16774
910.224	16782
910.339	16862
910.454	16733
910.57	16592
910.685	16493
910.8	16816
910.915	16797
911.03	16588
911.145	16500
911.259	16360
911.374	16398
911.489	16344
911.604	16188
911.718	16116
911.833	16211
911.947	16131
912.062	16044
912.176	16215
912.291	16329
912.405	16128
912.519	16352
912.633	16413
912.748	16082
912.862	16101
912.976	15953
913.09	15884
913.204	15861
913.318	15975
913.431	15983
913.545	16051
913.659	16154
913.772	15850
913.886	15892
914	15823
914.113	15789
914.226	15907
914.34	15846
914.453	15641
914.566	15751
914.68	15671
914.793	15660
914.906	15420
915.019	15336
915.132	15340
915.245	15416
915.358	15466
915.47	15435
915.583	15386
915.696	15313
915.809	15545
915.921	15545
916.034	15264
916.146	15287
916.259	15241
916.371	15351
916.483	15291
916.595	15211
916.708	15184
916.82	15192
916.932	15283
917.044	15131
917.156	15112
917.268	14975
917.38	15077
917.491	14937
917.603	15070
917.715	15131
917.826	15020
917.938	14986
918.049	14857
918.161	14990
918.272	15066
918.384	15154
918.495	14982
918.606	14849
918.717	14800
918.828	14819
918.939	14868
919.05	14712
919.161	14731
919.272	14537
919.383	14754
919.494	14868
919.604	15036
919.715	14868
919.826	14731
919.936	14765
920.047	14849
920.157	14781
920.267	14979
920.378	14804
920.488	14651
920.598	14956
920.708	15093
920.818	14941
920.928	14872
921.038	15062
921.148	14906
921.258	14727
921.368	14716
921.477	14560
921.587	14564
921.697	14343
921.806	14514
921.916	14259
922.025	14214
922.134	14176
922.244	14157
922.353	14199
922.462	13951
922.571	13974
922.68	13837
922.789	13818
922.898	13784
923.007	13746
923.116	13780
923.224	13719
923.333	13662
923.442	13586
923.55	13586
923.659	13540
923.767	13681
923.876	13514
923.984	13639
924.092	13457
924.201	13525
924.309	13533
924.417	13502
924.525	13419
924.633	13384
924.741	14347
924.849	13217
924.956	13388
925.064	13312
925.172	13095
925.279	13160
925.387	13221
925.494	13236
925.602	13266
925.709	13160
925.816	13095
925.924	13065
926.031	13179
926.138	13190
926.245	13129
926.352	13065
926.459	13133
926.566	13190
926.673	13000
926.779	12905
926.886	12970
926.993	12776
927.099	12722
927.206	12684
927.312	12681
927.419	12741
927.525	12700
927.631	12662
927.737	12620
927.843	12555
927.95	12490
928.056	12559
928.162	12509
928.267	12506
928.373	13274
928.479	12616
928.585	12414
928.69	12502
928.796	12547
928.901	12384
929.007	12190
929.112	12532
929.218	12426
929.323	12361
929.428	12285
929.533	12460
929.638	12194
929.743	12213
929.848	12201
929.953	12190
930.058	12053
930.163	11965
930.267	11942
930.372	12068
930.477	11847
930.581	12060
930.685	12007
930.79	11893
930.894	11851
930.998	11802
931.103	11942
931.207	11509
931.311	11478
931.415	11417
931.519	11250
931.623	11227
