Data from test_V78500241_2559.txt Node
Date: Fri Mar 25 15:59:31 CST 2022
User: usil
Spectrometer: V785-0024
Trigger mode: 0
Integration Time (sec): 4.000000E-1
Scans to average: 1
Nonlinearity correction enabled: false
Boxcar width: 0
Storing dark spectrum: false
XAxis mode: Wavelengths
Number of Pixels in Spectrum: 1024
>>>>>Begin Spectral Data<<<<<
801.071	28900
801.214	28641
801.356	28584
801.499	28489
801.641	28428
801.783	28341
801.926	28405
802.068	28424
802.211	28386
802.353	28337
802.496	28143
802.638	28010
802.78	28101
802.923	27880
803.065	27968
803.208	28017
803.35	28040
803.492	28249
803.635	28344
803.777	28086
803.919	28268
804.061	28641
804.204	28348
804.346	28139
804.488	28211
804.63	28314
804.773	28086
804.915	28451
805.057	28363
805.199	28211
805.341	28519
805.483	28459
805.626	28462
805.768	28436
805.91	28535
806.052	28489
806.194	28428
806.336	28603
806.478	28470
806.62	28417
806.762	28641
806.904	28733
807.046	29071
807.188	28915
807.33	28866
807.472	28911
807.614	28961
807.756	29010
807.898	28923
808.04	28713
808.182	28809
808.324	28831
808.465	28866
808.607	29022
808.749	29121
808.891	29265
809.033	29349
809.174	29250
809.316	29375
809.458	29239
809.6	29178
809.741	29147
809.883	29440
810.025	29615
810.166	29459
810.308	29471
810.45	29474
810.591	29383
810.733	29277
810.875	29235
811.016	29105
811.158	29117
811.299	29273
811.441	29452
811.582	29341
811.724	29132
811.865	29212
812.007	29216
812.148	29105
812.29	29235
812.431	29410
812.573	29467
812.714	29764
812.855	29687
812.997	29771
813.138	29912
813.279	29805
813.421	29665
813.562	29718
813.703	29535
813.845	29455
813.986	29086
814.127	29052
814.268	28824
814.41	28843
814.551	28843
814.692	29037
814.833	28850
814.974	28949
815.115	28915
815.256	28675
815.397	28755
815.539	28850
815.68	28664
815.821	28622
815.962	28755
816.103	28634
816.244	28478
816.385	28504
816.526	28462
816.666	28265
816.807	28261
816.948	28120
817.089	28352
817.23	28375
817.371	28303
817.512	28253
817.653	28200
817.793	28219
817.934	28086
818.075	28055
818.216	28226
818.356	28287
818.497	28116
818.638	27991
818.778	28006
818.919	27964
819.06	27975
819.2	28070
819.341	28272
819.481	28280
819.622	28295
819.762	28519
819.903	28398
820.043	28618
820.184	28428
820.324	28375
820.465	28436
820.605	28333
820.746	28284
820.886	28265
821.026	28318
821.167	28143
821.307	28428
821.447	28265
821.588	28265
821.728	28082
821.868	27816
822.008	27755
822.149	27667
822.289	27709
822.429	27397
822.569	27397
822.709	27363
822.849	27211
822.99	27283
823.13	27169
823.27	27146
823.41	26975
823.55	26914
823.69	26960
823.83	26994
823.97	26975
824.11	26785
824.25	26727
824.389	26819
824.529	26918
824.669	26929
824.809	26956
824.949	27024
825.089	27009
825.228	26880
825.368	26655
825.508	26739
825.648	26651
825.787	26796
825.927	26845
826.067	26826
826.206	26667
826.346	26815
826.485	26880
826.625	26727
826.765	26853
826.904	26899
827.044	26465
827.183	26617
827.323	26347
827.462	26545
827.601	26480
827.741	26469
827.88	26549
828.02	26320
828.159	26450
828.298	26651
828.437	26579
828.577	26442
828.716	26480
828.855	26370
828.994	26294
829.134	26176
829.273	26126
829.412	26065
829.551	26221
829.69	26077
829.829	26103
829.968	26183
830.107	26157
830.246	26130
830.385	26115
830.524	26084
830.663	25944
830.802	25959
830.941	25632
831.08	25563
831.219	25864
831.357	25871
831.496	25932
831.635	25696
831.774	25647
831.913	25681
832.051	25556
832.19	25670
832.329	25559
832.467	25221
832.606	25419
832.744	25377
832.883	25430
833.022	25381
833.16	25381
833.299	25479
833.437	25373
833.576	25540
833.714	25468
833.852	25559
833.991	25453
834.129	25453
834.267	25552
834.406	25479
834.544	25445
834.682	25495
834.821	25483
834.959	25643
835.097	25445
835.235	25563
835.373	25384
835.511	25514
835.65	25301
835.788	25320
835.926	25293
836.064	25091
836.202	25148
836.34	25202
836.478	25381
836.615	25209
836.753	25282
836.891	25365
837.029	25331
837.167	25236
837.305	25259
837.443	25110
837.58	25129
837.718	25209
837.856	25152
837.993	25076
838.131	25012
838.269	24996
838.406	24962
838.544	24833
838.681	24730
838.819	24798
838.956	24498
839.094	24536
839.231	24757
839.369	24760
839.506	25069
839.643	24985
839.781	24547
839.918	24555
840.055	24563
840.193	24555
840.33	24525
840.467	24502
840.604	24559
840.742	24783
840.879	24456
841.016	24505
841.153	24319
841.29	24547
841.427	24467
841.564	24559
841.701	24494
841.838	24418
841.975	24441
842.112	24498
842.249	24464
842.385	24247
842.522	24338
842.659	24285
842.796	24190
842.933	24254
843.069	24281
843.206	24178
843.343	24254
843.479	24262
843.616	24174
843.752	24057
843.889	23984
844.025	24038
844.162	24034
844.298	23961
844.435	23885
844.571	23992
844.708	24144
844.844	24136
844.98	24045
845.117	24194
845.253	23935
845.389	23741
845.525	23920
845.661	23775
845.798	23748
845.934	23786
846.07	23794
846.206	23741
846.342	23885
846.478	23672
846.614	23520
846.75	23410
846.886	23448
847.022	23566
847.158	23448
847.294	23493
847.429	23577
847.565	23364
847.701	23737
847.837	23280
847.972	23258
848.108	23277
848.244	23136
848.379	23109
848.515	23136
848.65	23105
848.786	22999
848.921	23113
849.057	23181
849.192	23193
849.328	23109
849.463	23090
849.598	23022
849.734	22965
849.869	22927
850.004	22782
850.14	22858
850.275	22854
850.41	22733
850.545	22801
850.68	22771
850.815	22763
850.95	22820
851.085	23071
851.22	23064
851.355	22824
851.49	22786
851.625	22782
851.76	22729
851.895	22759
852.03	22748
852.165	22752
852.299	22675
852.434	22885
852.569	22847
852.703	22820
852.838	22752
852.973	22927
853.107	22908
853.242	22847
853.376	22607
853.511	22637
853.645	22656
853.78	22763
853.914	22664
854.048	22599
854.183	22550
854.317	22694
854.451	22862
854.585	22565
854.72	22550
854.854	22675
854.988	22565
855.122	22717
855.256	22440
855.39	22637
855.524	22702
855.658	22713
855.792	22691
855.926	22710
856.06	22660
856.194	22759
856.327	22618
856.461	22512
856.595	22603
856.729	22622
856.862	22790
856.996	22626
857.13	22588
857.263	22759
857.397	22782
857.53	22618
857.664	22733
857.797	22748
857.931	22641
858.064	22656
858.197	22797
858.331	22584
858.464	22565
858.597	22626
858.731	22596
858.864	22637
858.997	22557
859.13	22691
859.263	22683
859.396	22717
859.529	22660
859.662	22459
859.795	22641
859.928	22668
860.061	22782
860.194	22744
860.327	22683
860.46	22702
860.592	22786
860.725	22778
860.858	22733
860.99	22599
861.123	22630
861.256	22542
861.388	22672
861.521	23345
861.653	22531
861.786	22599
861.918	22542
862.05	22523
862.183	22462
862.315	22698
862.447	22474
862.58	22504
862.712	22390
862.844	22162
862.976	22508
863.108	22291
863.24	22866
863.372	22371
863.504	22352
863.636	22367
863.768	22341
863.9	22390
864.032	22287
864.164	22421
864.296	22409
864.428	22409
864.559	22436
864.691	22432
864.823	22360
864.954	22272
865.086	22348
865.217	22337
865.349	21964
865.48	22299
865.612	22211
865.743	22303
865.875	22348
866.006	22192
866.137	22238
866.269	22192
866.4	22230
866.531	22185
866.662	22112
866.793	22150
866.924	22120
867.055	22154
867.186	22162
867.317	22131
867.448	22059
867.579	22185
867.71	22013
867.841	22036
867.972	22124
868.103	22158
868.233	22143
868.364	22116
868.495	22253
868.625	22462
868.756	22523
868.886	22352
869.017	22284
869.147	22607
869.278	22512
869.408	22493
869.539	22428
869.669	22504
869.799	22428
869.929	22462
870.06	22432
870.19	22672
870.32	22599
870.45	22801
870.58	22873
870.71	22896
870.84	22908
870.97	22816
871.1	22801
871.23	22911
871.36	22919
871.489	22881
871.619	23033
871.749	22930
871.879	22999
872.008	23178
872.138	23079
872.267	22957
872.397	22831
872.526	22767
872.656	22904
872.785	22774
872.915	23044
873.044	23109
873.173	23067
873.303	23048
873.432	23140
873.561	23075
873.69	23174
873.819	22942
873.948	23041
874.077	22980
874.206	23022
874.335	23003
874.464	23098
874.593	23364
874.722	23296
874.851	23269
874.979	23086
875.108	23193
875.237	23136
875.365	23132
875.494	23261
875.623	23303
875.751	23193
875.88	23216
876.008	23307
876.136	23360
876.265	23611
876.393	23539
876.521	23714
876.65	23707
876.778	23524
876.906	23657
877.034	23551
877.162	23585
877.29	23627
877.418	23604
877.546	23653
877.674	23604
877.802	23543
877.93	23539
878.058	23299
878.185	23273
878.313	23604
878.441	23471
878.568	23383
878.696	23524
878.824	23585
878.951	23604
879.079	23843
879.206	23912
879.333	23817
879.461	23501
879.588	23733
879.715	23661
879.842	23767
879.97	23684
880.097	23417
880.224	23337
880.351	23330
880.478	23459
880.605	23277
880.732	23322
880.859	23596
880.986	23398
881.112	23341
881.239	23296
881.366	23102
881.493	23029
881.619	22858
881.746	23010
881.872	22938
881.999	22839
882.125	22892
882.252	22965
882.378	22984
882.505	23022
882.631	22763
882.757	22641
882.883	22691
883.01	22504
883.136	22607
883.262	22481
883.388	22299
883.514	22573
883.64	22645
883.766	22580
883.892	22291
884.018	22440
884.143	22489
884.269	22535
884.395	22242
884.52	22188
884.646	22325
884.772	22215
884.897	22173
885.023	22325
885.148	22371
885.274	22363
885.399	22360
885.524	22234
885.65	22287
885.775	22158
885.9	22219
886.025	22481
886.15	22363
886.275	22162
886.4	22128
886.525	22226
886.65	22147
886.775	22211
886.9	22280
887.025	22432
887.149	22147
887.274	22169
887.399	22143
887.523	22097
887.648	21968
887.773	22010
887.897	22029
888.021	22032
888.146	22048
888.27	22196
888.395	22044
888.519	21964
888.643	22116
888.767	22097
888.891	22006
889.015	21907
889.139	21812
889.263	21800
889.387	21922
889.511	21979
889.635	21937
889.759	21876
889.883	21884
890.006	21804
890.13	21861
890.254	21732
890.377	21785
890.501	21606
890.624	21675
890.748	21682
890.871	21488
890.995	21367
891.118	21321
891.241	21412
891.364	21291
891.488	21386
891.611	21348
891.734	21306
891.857	21431
891.98	21401
892.103	21466
892.226	21340
892.349	21302
892.471	21119
892.594	21264
892.717	21268
892.839	21199
892.962	21306
893.085	21340
893.207	21214
893.33	21173
893.452	21180
893.575	21272
893.697	21211
893.819	21348
893.941	21378
894.064	21367
894.186	21180
894.308	21142
894.43	21389
894.552	21310
894.674	21332
894.796	21173
894.918	21226
895.04	21306
895.161	21332
895.283	21256
895.405	21256
895.526	21272
895.648	21195
895.769	21287
895.891	21268
896.012	21279
896.134	21287
896.255	21195
896.376	21272
896.498	21226
896.619	21367
896.74	21241
896.861	21291
896.982	21618
897.103	21728
897.224	21340
897.345	21469
897.466	21389
897.587	21367
897.708	21606
897.828	21450
897.949	21405
898.07	21298
898.19	21359
898.311	21477
898.431	21397
898.552	21378
898.672	21443
898.792	21534
898.913	21340
899.033	21272
899.153	21214
899.273	21001
899.393	21188
899.513	21291
899.633	21146
899.753	21154
899.873	21135
899.993	21313
900.113	21127
900.232	21165
900.352	21081
900.472	20979
900.591	20762
900.711	20921
900.83	20929
900.95	21058
901.069	21009
901.189	20708
901.308	20621
901.427	20423
901.546	20499
901.665	20488
901.784	20374
901.904	20393
902.023	20305
902.141	20172
902.26	20035
902.379	20062
902.498	20024
902.617	19909
902.735	20031
902.854	19894
902.973	19849
903.091	19700
903.21	19674
903.328	19529
903.446	19578
903.565	19552
903.683	19426
903.801	19400
903.919	19468
904.038	19320
904.156	19156
904.274	19297
904.392	19129
904.51	19187
904.627	19156
904.745	19274
904.863	19168
904.981	18996
905.098	18954
905.216	18882
905.334	18981
905.451	18928
905.569	18966
905.686	18894
905.803	18821
905.921	18597
906.038	18741
906.155	18692
906.272	18574
906.389	18661
906.506	18350
906.623	18380
906.74	18433
906.857	18285
906.974	18251
907.091	18513
907.208	18502
907.324	18437
907.441	18239
907.557	18174
907.674	17992
907.79	18102
907.907	18079
908.023	18224
908.139	18022
908.256	18098
908.372	18019
908.488	17965
908.604	17878
908.72	17752
908.836	17798
908.952	17817
909.068	17878
909.184	17912
909.3	17836
909.415	17836
909.531	17859
909.647	17512
909.762	17600
909.878	17406
909.993	17436
910.108	17463
910.224	17474
910.339	17589
910.454	17349
910.57	17265
910.685	17277
910.8	17577
910.915	17436
911.03	17315
911.145	17197
911.259	16984
911.374	17037
911.489	17060
911.604	16927
911.718	16790
911.833	16835
911.947	16740
912.062	16771
912.176	16828
912.291	16828
912.405	16717
912.519	17022
912.633	16968
912.748	16847
912.862	16748
912.976	16599
913.09	16462
913.204	16485
913.318	16672
913.431	16740
913.545	16698
913.659	16717
913.772	16565
913.886	16519
914	16413
914.113	16573
914.226	16607
914.34	16451
914.453	16348
914.566	16470
914.68	16402
914.793	16219
914.906	16044
915.019	15930
915.132	16032
915.245	15964
915.358	16048
915.47	15880
915.583	15922
915.696	15934
915.809	16017
915.921	16093
916.034	15915
916.146	15831
916.259	15911
916.371	15991
916.483	15945
916.595	15880
916.708	15876
916.82	15736
916.932	15751
917.044	15705
917.156	15606
917.268	15671
917.38	15705
917.491	15660
917.603	15584
917.715	15736
917.826	15648
917.938	15584
918.049	15420
918.161	15622
918.272	15656
918.384	15667
918.495	15572
918.606	15473
918.717	15386
918.828	15374
918.939	15321
919.05	15348
919.161	15310
919.272	15097
919.383	15207
919.494	15401
919.604	15458
919.715	15302
919.826	15233
919.936	15214
920.047	15374
920.157	15226
920.267	15549
920.378	15264
920.488	15226
920.598	15504
920.708	15614
920.818	15412
920.928	15443
921.038	15545
921.148	15511
921.258	15325
921.368	15123
921.477	15020
921.587	14914
921.697	14883
921.806	15028
921.916	14948
922.025	14777
922.134	14701
922.244	14602
922.353	14697
922.462	14503
922.571	14571
922.68	14282
922.789	14328
922.898	14275
923.007	14157
923.116	14256
923.224	14301
923.333	14275
923.442	14240
923.55	14168
923.659	14206
923.767	14100
923.876	14046
923.984	14153
924.092	13974
924.201	14062
924.309	13951
924.417	14050
924.525	13898
924.633	13925
924.741	14899
924.849	13803
924.956	13902
925.064	13704
925.172	13643
925.279	13666
925.387	13715
925.494	13658
925.602	13811
925.709	13655
925.816	13590
925.924	13620
926.031	13594
926.138	13624
926.245	13594
926.352	13430
926.459	13704
926.566	13620
926.673	13449
926.779	13415
926.886	13491
926.993	13247
927.099	13209
927.206	13164
927.312	13095
927.419	13236
927.525	13137
927.631	13183
927.737	13118
927.843	13107
927.95	12947
928.056	13053
928.162	12951
928.267	13004
928.373	13548
928.479	13183
928.585	12745
928.69	12928
928.796	12871
928.901	12829
929.007	12768
929.112	12810
929.218	12833
929.323	12707
929.428	12772
929.533	12886
929.638	12642
929.743	12707
929.848	12681
929.953	12757
930.058	12475
930.163	12327
930.267	12350
930.372	12627
930.477	12357
930.581	12506
930.685	12384
930.79	12243
930.894	12289
930.998	12292
931.103	12338
931.207	11965
931.311	12038
931.415	11821
931.519	11684
931.623	11573
