Data from test_V78500241_146.txt Node
Date: Fri Mar 25 15:42:48 CST 2022
User: usil
Spectrometer: V785-0024
Trigger mode: 0
Integration Time (sec): 4.000000E-1
Scans to average: 1
Nonlinearity correction enabled: false
Boxcar width: 0
Storing dark spectrum: false
XAxis mode: Wavelengths
Number of Pixels in Spectrum: 1024
>>>>>Begin Spectral Data<<<<<
801.071	29570
801.214	29452
801.356	29299
801.499	29071
801.641	28961
801.783	28923
801.926	29166
802.068	29003
802.211	28953
802.353	28839
802.496	28630
802.638	28717
802.78	28653
802.923	28497
803.065	28573
803.208	28569
803.35	28717
803.492	28790
803.635	28797
803.777	28626
803.919	28672
804.061	29086
804.204	28683
804.346	28611
804.488	28596
804.63	28599
804.773	28485
804.915	28679
805.057	28843
805.199	28641
805.341	28725
805.483	28828
805.626	28888
805.768	28786
805.91	28820
806.052	28866
806.194	28771
806.336	28980
806.478	28866
806.62	28733
806.762	28938
806.904	28965
807.046	29265
807.188	29185
807.33	29193
807.472	29242
807.614	28908
807.756	29071
807.898	28953
808.04	28812
808.182	28965
808.324	29155
808.465	28858
808.607	29185
808.749	29212
808.891	29425
809.033	29436
809.174	29368
809.316	29383
809.458	29334
809.6	29349
809.741	29406
809.883	29509
810.025	29585
810.166	29501
810.308	29585
810.45	29528
810.591	29471
810.733	29459
810.875	29227
811.016	29170
811.158	29166
811.299	29242
811.441	29516
811.582	29558
811.724	29406
811.865	29269
812.007	29143
812.148	29284
812.29	29368
812.431	29467
812.573	29630
812.714	29676
812.855	29676
812.997	29946
813.138	30053
813.279	29878
813.421	29745
813.562	29779
813.703	29531
813.845	29444
813.986	29117
814.127	28984
814.268	28961
814.41	28946
814.551	28854
814.692	28946
814.833	28790
814.974	28858
815.115	28858
815.256	28771
815.397	28752
815.539	28683
815.68	28698
815.821	28561
815.962	28660
816.103	28485
816.244	28512
816.385	28436
816.526	28322
816.666	28105
816.807	27964
816.948	28158
817.089	28196
817.23	28154
817.371	28078
817.512	27998
817.653	27945
817.793	27869
817.934	27899
818.075	27941
818.216	28048
818.356	27907
818.497	27804
818.638	27679
818.778	27698
818.919	27606
819.06	27751
819.2	27838
819.341	27850
819.481	27994
819.622	27975
819.762	28382
819.903	28090
820.043	28185
820.184	27922
820.324	28021
820.465	28086
820.605	28147
820.746	27934
820.886	27899
821.026	28029
821.167	27861
821.307	28090
821.447	27930
821.588	27842
821.728	27610
821.868	27492
822.008	27317
822.149	27389
822.289	27321
822.429	27119
822.569	27028
822.709	27001
822.849	26735
822.99	26788
823.13	26609
823.27	26670
823.41	26625
823.55	26533
823.69	26602
823.83	26541
823.97	26507
824.11	26286
824.25	26286
824.389	26446
824.529	26381
824.669	26366
824.809	26389
824.949	26423
825.089	26427
825.228	26320
825.368	26187
825.508	26058
825.648	26202
825.787	26225
825.927	26206
826.067	26138
826.206	26054
826.346	26332
826.485	26263
826.625	26195
826.765	26244
826.904	26062
827.044	25917
827.183	25993
827.323	25811
827.462	25894
827.601	25894
827.741	25772
827.88	25765
828.02	25647
828.159	25871
828.298	25852
828.437	25955
828.577	25674
828.716	25902
828.855	25704
828.994	25499
829.134	25567
829.273	25681
829.412	25449
829.551	25362
829.69	25479
829.829	25476
829.968	25590
830.107	25464
830.246	25502
830.385	25381
830.524	25327
830.663	25278
830.802	25152
830.941	25080
831.08	25088
831.219	25145
831.357	25027
831.496	25297
831.635	24973
831.774	24947
831.913	24947
832.051	24760
832.19	24768
832.329	24833
832.467	24688
832.606	24734
832.744	24612
832.883	24593
833.022	24528
833.16	24646
833.299	24669
833.437	24639
833.576	24741
833.714	24604
833.852	24604
833.991	24677
834.129	24772
834.267	24688
834.406	24661
834.544	24684
834.682	24772
834.821	24661
834.959	24642
835.097	24467
835.235	24681
835.373	24540
835.511	24486
835.65	24418
835.788	24532
835.926	24471
836.064	24277
836.202	24254
836.34	24391
836.478	24509
836.615	24464
836.753	24403
836.891	24627
837.029	24525
837.167	24292
837.305	24300
837.443	24353
837.58	24273
837.718	24422
837.856	24235
837.993	24136
838.131	24194
838.269	24049
838.406	24136
838.544	24064
838.681	23908
838.819	23889
838.956	23699
839.094	23684
839.231	23604
839.369	23885
839.506	23927
839.643	23950
839.781	23596
839.918	23566
840.055	23577
840.193	23668
840.33	23562
840.467	23676
840.604	23592
840.742	23851
840.879	23493
841.016	23429
841.153	23577
841.29	23615
841.427	23490
841.564	23600
841.701	23509
841.838	23395
841.975	23417
842.112	23330
842.249	23334
842.385	23360
842.522	23501
842.659	23364
842.796	23178
842.933	23105
843.069	23140
843.206	23193
843.343	23269
843.479	23204
843.616	23147
843.752	22995
843.889	22987
844.025	23193
844.162	22881
844.298	22999
844.435	22923
844.571	22904
844.708	22942
844.844	22995
844.98	23048
845.117	22968
845.253	22896
845.389	22793
845.525	22911
845.661	22691
845.798	22656
845.934	22744
846.07	22611
846.206	22672
846.342	22748
846.478	22736
846.614	22466
846.75	22265
846.886	22447
847.022	22470
847.158	22367
847.294	22356
847.429	22474
847.565	22360
847.701	22538
847.837	22097
847.972	22086
848.108	22268
848.244	22082
848.379	21994
848.515	21960
848.65	21854
848.786	21873
848.921	21941
849.057	22036
849.192	22124
849.328	21861
849.463	21846
849.598	21998
849.734	21846
849.869	21720
850.004	21667
850.14	21755
850.275	21766
850.41	21519
850.545	21599
850.68	21572
850.815	21549
850.95	21656
851.085	21778
851.22	21656
851.355	21667
851.49	21542
851.625	21568
851.76	21542
851.895	21488
852.03	21534
852.165	21644
852.299	21747
852.434	21701
852.569	21610
852.703	21587
852.838	21603
852.973	21759
853.107	21762
853.242	21625
853.376	21439
853.511	21348
853.645	21523
853.78	21549
853.914	21447
854.048	21370
854.183	21507
854.317	21534
854.451	21633
854.585	21382
854.72	21447
854.854	21367
854.988	21382
855.122	21542
855.256	21348
855.39	21443
855.524	21443
855.658	21428
855.792	21450
855.926	21564
856.06	21367
856.194	21542
856.327	21363
856.461	21454
856.595	21401
856.729	21351
856.862	21511
856.996	21526
857.13	21462
857.263	21576
857.397	21420
857.53	21412
857.664	21420
857.797	21458
857.931	21431
858.064	21416
858.197	21515
858.331	21298
858.464	21321
858.597	21298
858.731	21268
858.864	21351
858.997	21321
859.13	21416
859.263	21500
859.396	21515
859.529	21359
859.662	21275
859.795	21344
859.928	21332
860.061	21568
860.194	21583
860.327	21454
860.46	21397
860.592	21382
860.725	21462
860.858	21412
860.99	21450
861.123	21325
861.256	21279
861.388	21348
861.521	21865
861.653	21157
861.786	21047
861.918	21321
862.05	21348
862.183	21325
862.315	21386
862.447	21439
862.58	21389
862.712	21135
862.844	21100
862.976	21112
863.108	21108
863.24	21344
863.372	21024
863.504	21146
863.636	20986
863.768	21100
863.9	21161
864.032	20975
864.164	20948
864.296	20994
864.428	21138
864.559	21100
864.691	20998
864.823	21020
864.954	21070
865.086	20975
865.217	20933
865.349	20819
865.48	20956
865.612	20998
865.743	21032
865.875	20891
866.006	20914
866.137	20956
866.269	20864
866.4	20994
866.531	20857
866.662	20883
866.793	20906
866.924	20944
867.055	20910
867.186	20937
867.317	20853
867.448	20800
867.579	20887
867.71	20739
867.841	20674
867.972	20887
868.103	20891
868.233	20899
868.364	20895
868.495	21047
868.625	21116
868.756	21070
868.886	20891
869.017	21135
869.147	21176
869.278	21127
869.408	21135
869.539	21188
869.669	21195
869.799	21176
869.929	21279
870.06	21195
870.19	21367
870.32	21424
870.45	21408
870.58	21424
870.71	21523
870.84	21652
870.97	21431
871.1	21473
871.23	21549
871.36	21720
871.489	21561
871.619	21606
871.749	21576
871.879	21523
872.008	21732
872.138	21633
872.267	21641
872.397	21641
872.526	21447
872.656	21488
872.785	21538
872.915	21739
873.044	21724
873.173	21644
873.303	21975
873.432	21739
873.561	21812
873.69	21671
873.819	21755
873.948	21724
874.077	21694
874.206	21648
874.335	21743
874.464	21778
874.593	21892
874.722	21800
874.851	22055
874.979	22025
875.108	22021
875.237	21953
875.365	21762
875.494	21861
875.623	22010
875.751	21857
875.88	21911
876.008	21994
876.136	22173
876.265	22287
876.393	22478
876.521	22455
876.65	22493
876.778	22356
876.906	22405
877.034	22287
877.162	22451
877.29	22242
877.418	22352
877.546	22310
877.674	22287
877.802	22299
877.93	22246
878.058	22261
878.185	22181
878.313	22185
878.441	22276
878.568	22204
878.696	22097
878.824	22272
878.951	22352
879.079	22443
879.206	22615
879.333	22531
879.461	22287
879.588	22375
879.715	22523
879.842	22565
879.97	22375
880.097	22067
880.224	22055
880.351	22139
880.478	22059
880.605	22044
880.732	22181
880.859	22379
880.986	22048
881.112	22070
881.239	21903
881.366	21789
881.493	21827
881.619	21770
881.746	21747
881.872	21812
881.999	21652
882.125	21648
882.252	21675
882.378	21728
882.505	21797
882.631	21629
882.757	21458
882.883	21515
883.01	21382
883.136	21382
883.262	21233
883.388	21317
883.514	21420
883.64	21450
883.766	21325
883.892	21226
884.018	21325
884.143	21500
884.269	21424
884.395	21249
884.52	21096
884.646	21055
884.772	20899
884.897	21020
885.023	21093
885.148	21173
885.274	21195
885.399	21116
885.524	21005
885.65	21169
885.775	21123
885.9	20944
886.025	21203
886.15	20971
886.275	20979
886.4	20941
886.525	21062
886.65	20830
886.775	20998
886.9	21131
887.025	21207
887.149	21047
887.274	20883
887.399	20811
887.523	20731
887.648	20712
887.773	20579
887.897	20834
888.021	20842
888.146	20819
888.27	20826
888.395	20967
888.519	20891
888.643	20800
888.767	20750
888.891	20746
889.015	20590
889.139	20693
889.263	20602
889.387	20674
889.511	20720
889.635	20716
889.759	20484
889.883	20522
890.006	20590
890.13	20609
890.254	20511
890.377	20518
890.501	20320
890.624	20393
890.748	20396
890.871	20191
890.995	20168
891.118	20122
891.241	20058
891.364	20142
891.488	20351
891.611	20119
891.734	20119
891.857	20263
891.98	20119
892.103	20206
892.226	20237
892.349	20126
892.471	19944
892.594	20126
892.717	20062
892.839	20088
892.962	20138
893.085	20081
893.207	20035
893.33	19909
893.452	19902
893.575	20054
893.697	20043
893.819	20153
893.941	20183
894.064	20103
894.186	19913
894.308	19947
894.43	20069
894.552	20252
894.674	20191
894.796	19909
894.918	20031
895.04	20005
895.161	20043
895.283	19982
895.405	19982
895.526	20050
895.648	20008
895.769	20035
895.891	20122
896.012	20084
896.134	20100
896.255	20081
896.376	19974
896.498	20069
896.619	20024
896.74	20119
896.861	20225
896.982	20434
897.103	20598
897.224	20400
897.345	20317
897.466	20332
897.587	20313
897.708	20454
897.828	20347
897.949	20195
898.07	20259
898.19	20199
898.311	20393
898.431	20206
898.552	20294
898.672	20278
898.792	20374
898.913	20210
899.033	20126
899.153	20039
899.273	19986
899.393	19951
899.513	20039
899.633	20020
899.753	20062
899.873	19860
899.993	20050
900.113	19898
900.232	19982
900.352	19932
900.472	19795
900.591	19693
900.711	19921
900.83	19833
900.95	19959
901.069	19959
901.189	19738
901.308	19343
901.427	19407
901.546	19388
901.665	19335
901.784	19384
901.904	19232
902.023	19126
902.141	18977
902.26	18935
902.379	18981
902.498	18894
902.617	18856
902.735	18806
902.854	18833
902.973	18726
903.091	18589
903.21	18536
903.328	18479
903.446	18460
903.565	18346
903.683	18289
903.801	18273
903.919	18369
904.038	18247
904.156	18015
904.274	18106
904.392	18019
904.51	17977
904.627	18041
904.745	18072
904.863	18072
904.981	17878
905.098	17741
905.216	17756
905.334	17642
905.451	17691
905.569	17745
905.686	17729
905.803	17726
905.921	17509
906.038	17501
906.155	17604
906.272	17433
906.389	17410
906.506	17273
906.623	17239
906.74	17265
906.857	17098
906.974	17060
907.091	17372
907.208	17376
907.324	17185
907.441	17220
907.557	17067
907.674	17113
907.79	16797
907.907	16843
908.023	16995
908.139	16938
908.256	16873
908.372	16733
908.488	16698
908.604	16725
908.72	16561
908.836	16645
908.952	16618
909.068	16645
909.184	16683
909.3	16660
909.415	16634
909.531	16580
909.647	16386
909.762	16356
909.878	16280
909.993	16272
910.108	16314
910.224	16116
910.339	16322
910.454	16154
910.57	16154
910.685	16040
910.8	16257
910.915	16219
911.03	16078
911.145	15888
911.259	15808
911.374	15869
911.489	15797
911.604	15793
911.718	15660
911.833	15606
911.947	15625
912.062	15511
912.176	15720
912.291	15701
912.405	15580
912.519	15781
912.633	15766
912.748	15652
912.862	15595
912.976	15424
913.09	15424
913.204	15355
913.318	15359
913.431	15534
913.545	15408
913.659	15504
913.772	15287
913.886	15279
914	15218
914.113	15367
914.226	15325
914.34	15279
914.453	15100
914.566	15256
914.68	15214
914.793	15058
914.906	14944
915.019	14815
915.132	14826
915.245	14826
915.358	14941
915.47	14838
915.583	14864
915.696	14967
915.809	14948
915.921	15039
916.034	14796
916.146	14819
916.259	14777
916.371	14777
916.483	14727
916.595	14735
916.708	14705
916.82	14667
916.932	14678
917.044	14659
917.156	14594
917.268	14530
917.38	14530
917.491	14484
917.603	14560
917.715	14625
917.826	14526
917.938	14419
918.049	14332
918.161	14446
918.272	14549
918.384	14526
918.495	14541
918.606	14385
918.717	14282
918.828	14358
918.939	14214
919.05	14176
919.161	14240
919.272	14050
919.383	14183
919.494	14298
919.604	14438
919.715	14259
919.826	14100
919.936	14221
920.047	14237
920.157	14377
920.267	14381
920.378	14305
920.488	14191
920.598	14351
920.708	14507
920.818	14282
920.928	14290
921.038	14530
921.148	14377
921.258	14065
921.368	14161
921.477	14035
921.587	13928
921.697	13860
921.806	13936
921.916	13841
922.025	13738
922.134	13559
922.244	13514
922.353	13681
922.462	13582
922.571	13453
922.68	13251
922.789	13244
922.898	13217
923.007	13187
923.116	13358
923.224	13133
923.333	13217
923.442	13053
923.55	13042
923.659	13141
923.767	13072
923.876	13008
923.984	12970
924.092	13084
924.201	12977
924.309	12947
924.417	13038
924.525	12962
924.633	12897
924.741	13609
924.849	12642
924.956	12825
925.064	12783
925.172	12665
925.279	12559
925.387	12760
925.494	12620
925.602	12757
925.709	12772
925.816	12608
925.924	12757
926.031	12764
926.138	12730
926.245	12707
926.352	12612
926.459	12669
926.566	12700
926.673	12551
926.779	12395
926.886	12422
926.993	12289
927.099	12311
927.206	12148
927.312	12182
927.419	12376
927.525	12262
927.631	12266
927.737	12216
927.843	12045
927.95	11954
928.056	12022
928.162	12038
928.267	12038
928.373	12696
928.479	12178
928.585	11851
928.69	12057
928.796	12091
928.901	11992
929.007	11836
929.112	11946
929.218	11889
929.323	11908
929.428	11729
929.533	11889
929.638	11676
929.743	11805
929.848	11817
929.953	11821
930.058	11638
930.163	11490
930.267	11535
930.372	11589
930.477	11459
930.581	11707
930.685	11509
930.79	11372
930.894	11391
930.998	11318
931.103	11493
931.207	11124
931.311	10995
931.415	10858
931.519	10717
931.623	10664
