Data from test_V78500241_2431.txt Node
Date: Fri Mar 25 15:58:38 CST 2022
User: usil
Spectrometer: V785-0024
Trigger mode: 0
Integration Time (sec): 4.000000E-1
Scans to average: 1
Nonlinearity correction enabled: false
Boxcar width: 0
Storing dark spectrum: false
XAxis mode: Wavelengths
Number of Pixels in Spectrum: 1024
>>>>>Begin Spectral Data<<<<<
801.071	28698
801.214	28721
801.356	28527
801.499	28493
801.641	28417
801.783	28348
801.926	28440
802.068	28299
802.211	28333
802.353	28280
802.496	28185
802.638	28078
802.78	27907
802.923	28010
803.065	27975
803.208	27941
803.35	28059
803.492	28070
803.635	28287
803.777	28204
803.919	28257
804.061	28531
804.204	28363
804.346	28211
804.488	28409
804.63	28318
804.773	28318
804.915	28333
805.057	28451
805.199	28318
805.341	28554
805.483	28531
805.626	28306
805.768	28557
805.91	28375
806.052	28462
806.194	28329
806.336	28668
806.478	28436
806.62	28497
806.762	28561
806.904	28801
807.046	28995
807.188	28949
807.33	28946
807.472	28942
807.614	28923
807.756	28839
807.898	28816
808.04	28767
808.182	28778
808.324	28771
808.465	28980
808.607	28984
808.749	29181
808.891	29353
809.033	29322
809.174	29109
809.316	29288
809.458	29197
809.6	29140
809.741	29277
809.883	29315
810.025	29512
810.166	29318
810.308	29570
810.45	29326
810.591	29410
810.733	29121
810.875	29128
811.016	29079
811.158	28934
811.299	29086
811.441	29273
811.582	29417
811.724	29193
811.865	29216
812.007	29056
812.148	29170
812.29	29311
812.431	29345
812.573	29482
812.714	29592
812.855	29638
812.997	29866
813.138	29980
813.279	29817
813.421	29741
813.562	29604
813.703	29619
813.845	29395
813.986	29220
814.127	28999
814.268	28782
814.41	29018
814.551	28904
814.692	28991
814.833	28786
814.974	28835
815.115	28835
815.256	28809
815.397	28744
815.539	28767
815.68	28949
815.821	28626
815.962	28679
816.103	28763
816.244	28702
816.385	28573
816.526	28462
816.666	28360
816.807	28097
816.948	28143
817.089	28329
817.23	28299
817.371	28223
817.512	28246
817.653	28185
817.793	28120
817.934	28226
818.075	28204
818.216	28295
818.356	28181
818.497	28086
818.638	28040
818.778	28013
818.919	28002
819.06	28143
819.2	28196
819.341	28367
819.481	28375
819.622	28299
819.762	28478
819.903	28455
820.043	28405
820.184	28337
820.324	28268
820.465	28306
820.605	28462
820.746	28390
820.886	28036
821.026	28314
821.167	28253
821.307	28265
821.447	28272
821.588	28154
821.728	27911
821.868	27850
822.008	27728
822.149	27648
822.289	27709
822.429	27488
822.569	27431
822.709	27389
822.849	27230
822.99	27283
823.13	27291
823.27	27138
823.41	27047
823.55	26834
823.69	27039
823.83	26933
823.97	26975
824.11	26868
824.25	26724
824.389	26906
824.529	26853
824.669	26914
824.809	26906
824.949	26975
825.089	26937
825.228	27001
825.368	26693
825.508	26720
825.648	26876
825.787	26792
825.927	26868
826.067	26651
826.206	26724
826.346	26758
826.485	26826
826.625	26796
826.765	26800
826.904	26864
827.044	26579
827.183	26526
827.323	26503
827.462	26434
827.601	26434
827.741	26518
827.88	26457
828.02	26347
828.159	26465
828.298	26446
828.437	26522
828.577	26457
828.716	26415
828.855	26313
828.994	26187
829.134	26069
829.273	26195
829.412	26142
829.551	26035
829.69	26073
829.829	26039
829.968	26073
830.107	26176
830.246	26107
830.385	26016
830.524	25947
830.663	25936
830.802	25898
830.941	25731
831.08	25635
831.219	25765
831.357	25708
831.496	26046
831.635	25742
831.774	25594
831.913	25578
832.051	25582
832.19	25540
832.329	25533
832.467	25457
832.606	25346
832.744	25270
832.883	25567
833.022	25369
833.16	25331
833.299	25483
833.437	25381
833.576	25434
833.714	25487
833.852	25502
833.991	25624
834.129	25548
834.267	25632
834.406	25601
834.544	25518
834.682	25510
834.821	25464
834.959	25502
835.097	25415
835.235	25563
835.373	25495
835.511	25415
835.65	25362
835.788	25240
835.926	25190
836.064	25152
836.202	25209
836.34	25240
836.478	25343
836.615	25301
836.753	25358
836.891	25426
837.029	25388
837.167	25190
837.305	25160
837.443	25019
837.58	25175
837.718	25183
837.856	25023
837.993	25088
838.131	25046
838.269	24951
838.406	25118
838.544	24901
838.681	24719
838.819	24776
838.956	24513
839.094	24525
839.231	24707
839.369	24779
839.506	24977
839.643	24913
839.781	24604
839.918	24513
840.055	24494
840.193	24570
840.33	24517
840.467	24631
840.604	24627
840.742	24852
840.879	24342
841.016	24582
841.153	24452
841.29	24559
841.427	24464
841.564	24418
841.701	24551
841.838	24346
841.975	24422
842.112	24452
842.249	24251
842.385	24296
842.522	24604
842.659	24258
842.796	24129
842.933	24254
843.069	24178
843.206	24148
843.343	24388
843.479	24190
843.616	24330
843.752	24148
843.889	24125
844.025	24220
844.162	23935
844.298	24155
844.435	24068
844.571	23931
844.708	24049
844.844	24376
844.98	24197
845.117	24076
845.253	23904
845.389	23836
845.525	23904
845.661	23748
845.798	23741
845.934	23870
846.07	23847
846.206	23771
846.342	23855
846.478	23771
846.614	23543
846.75	23478
846.886	23315
847.022	23493
847.158	23611
847.294	23493
847.429	23486
847.565	23398
847.701	23703
847.837	23296
847.972	23094
848.108	23242
848.244	23189
848.379	23181
848.515	23067
848.65	23117
848.786	23079
848.921	23071
849.057	23185
849.192	23208
849.328	23037
849.463	23117
849.598	23018
849.734	22854
849.869	23010
850.004	22961
850.14	22831
850.275	22801
850.41	22812
850.545	22740
850.68	22698
850.815	22797
850.95	22847
851.085	23105
851.22	22976
851.355	22900
851.49	22793
851.625	22820
851.76	22847
851.895	22744
852.03	22812
852.165	22793
852.299	22858
852.434	22850
852.569	22828
852.703	22843
852.838	22854
852.973	23014
853.107	22987
853.242	22675
853.376	22668
853.511	22489
853.645	22702
853.78	22774
853.914	22694
854.048	22557
854.183	22706
854.317	22679
854.451	22786
854.585	22603
854.72	22538
854.854	22702
854.988	22554
855.122	22656
855.256	22550
855.39	22519
855.524	22774
855.658	22691
855.792	22691
855.926	22717
856.06	22596
856.194	22736
856.327	22653
856.461	22626
856.595	22580
856.729	22493
856.862	22710
856.996	22736
857.13	22691
857.263	22824
857.397	22774
857.53	22550
857.664	22637
857.797	22603
857.931	22801
858.064	22630
858.197	22771
858.331	22607
858.464	22554
858.597	22554
858.731	22675
858.864	22569
858.997	22588
859.13	22622
859.263	22523
859.396	22710
859.529	22596
859.662	22580
859.795	22607
859.928	22622
860.061	22771
860.194	22797
860.327	22721
860.46	22656
860.592	22767
860.725	22786
860.858	22915
860.99	22706
861.123	22596
861.256	22668
861.388	22672
861.521	23372
861.653	22531
861.786	22557
861.918	22432
862.05	22470
862.183	22497
862.315	22538
862.447	22706
862.58	22554
862.712	22379
862.844	22303
862.976	22356
863.108	22348
863.24	22831
863.372	22265
863.504	22257
863.636	22188
863.768	22394
863.9	22424
864.032	22348
864.164	22333
864.296	22382
864.428	22531
864.559	22348
864.691	22405
864.823	22284
864.954	22356
865.086	22242
865.217	22287
865.349	22215
865.48	22188
865.612	22204
865.743	22341
865.875	22261
866.006	22135
866.137	22143
866.269	22154
866.4	22109
866.531	22158
866.662	22131
866.793	22196
866.924	22185
867.055	22158
867.186	22112
867.317	22090
867.448	22029
867.579	22078
867.71	22025
867.841	22063
867.972	22192
868.103	22055
868.233	22215
868.364	22192
868.495	22242
868.625	22303
868.756	22481
868.886	22322
869.017	22497
869.147	22466
869.278	22497
869.408	22356
869.539	22390
869.669	22557
869.799	22424
869.929	22531
870.06	22538
870.19	22630
870.32	22733
870.45	22812
870.58	22809
870.71	22850
870.84	22869
870.97	22763
871.1	22752
871.23	22968
871.36	22961
871.489	22736
871.619	22934
871.749	22976
871.879	23075
872.008	23025
872.138	23056
872.267	22995
872.397	22873
872.526	22824
872.656	22881
872.785	22748
872.915	22938
873.044	23029
873.173	23166
873.303	23083
873.432	23067
873.561	23090
873.69	23003
873.819	23006
873.948	23102
874.077	23006
874.206	22812
874.335	23018
874.464	23079
874.593	23208
874.722	23151
874.851	23284
874.979	23242
875.108	23273
875.237	23220
875.365	23003
875.494	23155
875.623	23349
875.751	23155
875.88	23227
876.008	23448
876.136	23250
876.265	23649
876.393	23623
876.521	23687
876.65	23737
876.778	23570
876.906	23589
877.034	23604
877.162	23611
877.29	23543
877.418	23516
877.546	23608
877.674	23592
877.802	23558
877.93	23414
878.058	23596
878.185	23391
878.313	23554
878.441	23562
878.568	23387
878.696	23505
878.824	23547
878.951	23611
879.079	23726
879.206	23840
879.333	23646
879.461	23539
879.588	23733
879.715	23627
879.842	23802
879.97	23585
880.097	23315
880.224	23497
880.351	23452
880.478	23467
880.605	23296
880.732	23296
880.859	23608
880.986	23414
881.112	23455
881.239	23284
881.366	23216
881.493	23041
881.619	22847
881.746	22938
881.872	22896
881.999	22953
882.125	22873
882.252	23048
882.378	23022
882.505	22968
882.631	22767
882.757	22577
882.883	22717
883.01	22649
883.136	22607
883.262	22432
883.388	22386
883.514	22596
883.64	22611
883.766	22527
883.892	22226
884.018	22344
884.143	22512
884.269	22740
884.395	22367
884.52	22063
884.646	22295
884.772	22093
884.897	22147
885.023	22295
885.148	22299
885.274	22363
885.399	22398
885.524	22303
885.65	22287
885.775	22295
885.9	22249
886.025	22287
886.15	22287
886.275	22242
886.4	22173
886.525	22101
886.65	22029
886.775	22090
886.9	22226
887.025	22413
887.149	22200
887.274	22070
887.399	22029
887.523	21960
887.648	21861
887.773	21804
887.897	22196
888.021	22067
888.146	21857
888.27	22074
888.395	22131
888.519	22010
888.643	21937
888.767	22051
888.891	21911
889.015	21766
889.139	21911
889.263	21720
889.387	21819
889.511	22013
889.635	21949
889.759	21827
889.883	21739
890.006	21724
890.13	21857
890.254	21774
890.377	21644
890.501	21481
890.624	21534
890.748	21355
890.871	21450
890.995	21378
891.118	21367
891.241	21283
891.364	21294
891.488	21477
891.611	21336
891.734	21378
891.857	21477
891.98	21428
892.103	21393
892.226	21275
892.349	21355
892.471	21165
892.594	21260
892.717	21165
892.839	21268
892.962	21173
893.085	21298
893.207	21192
893.33	21184
893.452	21188
893.575	21348
893.697	21272
893.819	21249
893.941	21374
894.064	21279
894.186	21154
894.308	21142
894.43	21241
894.552	21329
894.674	21317
894.796	21032
894.918	21203
895.04	21169
895.161	21176
895.283	21298
895.405	21055
895.526	21108
895.648	21298
895.769	21146
895.891	21222
896.012	21245
896.134	21237
896.255	21138
896.376	21150
896.498	21211
896.619	21230
896.74	21154
896.861	21268
896.982	21477
897.103	21625
897.224	21534
897.345	21466
897.466	21393
897.587	21351
897.708	21530
897.828	21507
897.949	21268
898.07	21233
898.19	21272
898.311	21576
898.431	21306
898.552	21397
898.672	21439
898.792	21485
898.913	21447
899.033	21412
899.153	21199
899.273	21116
899.393	21203
899.513	21226
899.633	21161
899.753	21119
899.873	21142
899.993	21093
900.113	20944
900.232	21116
900.352	21028
900.472	20990
900.591	20887
900.711	20883
900.83	20830
900.95	20960
901.069	21028
901.189	20807
901.308	20473
901.427	20454
901.546	20457
901.665	20484
901.784	20408
901.904	20374
902.023	20275
902.141	20024
902.26	20001
902.379	19989
902.498	19902
902.617	19868
902.735	19993
902.854	19936
902.973	19769
903.091	19651
903.21	19643
903.328	19628
903.446	19620
903.565	19419
903.683	19445
903.801	19304
903.919	19502
904.038	19460
904.156	19141
904.274	19354
904.392	19145
904.51	19247
904.627	19076
904.745	19187
904.863	19301
904.981	19000
905.098	18875
905.216	18852
905.334	18833
905.451	18875
905.569	18795
905.686	18844
905.803	18806
905.921	18616
906.038	18837
906.155	18566
906.272	18483
906.389	18536
906.506	18441
906.623	18460
906.74	18429
906.857	18232
906.974	18239
907.091	18224
907.208	18513
907.324	18388
907.441	18205
907.557	18076
907.674	18144
907.79	17999
907.907	17992
908.023	18026
908.139	18026
908.256	18148
908.372	17954
908.488	17927
908.604	17821
908.72	17756
908.836	17790
908.952	17699
909.068	17847
909.184	17874
909.3	17737
909.415	17790
909.531	17726
909.647	17554
909.762	17436
909.878	17398
909.993	17505
910.108	17349
910.224	17356
910.339	17463
910.454	17258
910.57	17311
910.685	17147
910.8	17474
910.915	17353
911.03	17318
911.145	17056
911.259	17083
911.374	17041
911.489	16934
911.604	16991
911.718	16774
911.833	16759
911.947	16733
912.062	16637
912.176	16736
912.291	16790
912.405	16721
912.519	17025
912.633	16938
912.748	16847
912.862	16694
912.976	16626
913.09	16497
913.204	16478
913.318	16683
913.431	16755
913.545	16725
913.659	16687
913.772	16577
913.886	16512
914	16303
914.113	16440
914.226	16561
914.34	16497
914.453	16337
914.566	16341
914.68	16196
914.793	16325
914.906	16162
915.019	16017
915.132	15941
915.245	15915
915.358	15960
915.47	15899
915.583	16013
915.696	15968
915.809	16044
915.921	16067
916.034	15854
916.146	15861
916.259	15930
916.371	15907
916.483	15827
916.595	15766
916.708	15747
916.82	15800
916.932	15774
917.044	15732
917.156	15797
917.268	15530
917.38	15637
917.491	15641
917.603	15526
917.715	15698
917.826	15759
917.938	15504
918.049	15466
918.161	15545
918.272	15739
918.384	15679
918.495	15458
918.606	15359
918.717	15279
918.828	15325
918.939	15393
919.05	15188
919.161	15268
919.272	15119
919.383	15150
919.494	15332
919.604	15564
919.715	15245
919.826	15214
919.936	15283
920.047	15325
920.157	15329
920.267	15492
920.378	15218
920.488	15180
920.598	15458
920.708	15595
920.818	15401
920.928	15344
921.038	15610
921.148	15511
921.258	15173
921.368	15135
921.477	15013
921.587	15074
921.697	14937
921.806	14956
921.916	14849
922.025	14655
922.134	14678
922.244	14587
922.353	14636
922.462	14549
922.571	14393
922.68	14263
922.789	14263
922.898	14218
923.007	14199
923.116	14351
923.224	14263
923.333	14229
923.442	14142
923.55	13997
923.659	14062
923.767	14092
923.876	14008
923.984	14115
924.092	13947
924.201	14024
924.309	13940
924.417	13955
924.525	13909
924.633	13883
924.741	14693
924.849	13807
924.956	13830
925.064	13624
925.172	13658
925.279	13632
925.387	13613
925.494	13651
925.602	13765
925.709	13632
925.816	13525
925.924	13628
926.031	13696
926.138	13586
926.245	13620
926.352	13495
926.459	13586
926.566	13700
926.673	13449
926.779	13392
926.886	13278
926.993	13255
927.099	13175
927.206	13133
927.312	13114
927.419	13206
927.525	13164
927.631	13183
927.737	12993
927.843	12989
927.95	12901
928.056	13000
928.162	13057
928.267	13069
928.373	13639
928.479	13015
928.585	12692
928.69	12989
928.796	12909
928.901	12878
929.007	12684
929.112	12878
929.218	12779
929.323	12719
929.428	12608
929.533	12829
929.638	12650
929.743	12597
929.848	12692
929.953	12593
930.058	12528
930.163	12334
930.267	12391
930.372	12452
930.477	12319
930.581	12464
930.685	12353
930.79	12292
930.894	12163
930.998	12262
931.103	12346
931.207	12083
931.311	11866
931.415	11931
931.519	11627
931.623	11551
