Data from test_V78500241_1011.txt Node
Date: Fri Mar 25 15:48:48 CST 2022
User: usil
Spectrometer: V785-0024
Trigger mode: 0
Integration Time (sec): 4.000000E-1
Scans to average: 1
Nonlinearity correction enabled: false
Boxcar width: 0
Storing dark spectrum: false
XAxis mode: Wavelengths
Number of Pixels in Spectrum: 1024
>>>>>Begin Spectral Data<<<<<
801.071	28036
801.214	27937
801.356	27728
801.499	27542
801.641	27545
801.783	27477
801.926	27603
802.068	27656
802.211	27496
802.353	27355
802.496	27325
802.638	27268
802.78	27310
802.923	27169
803.065	27138
803.208	27028
803.35	27157
803.492	27340
803.635	27397
803.777	27370
803.919	27431
804.061	27698
804.204	27420
804.346	27252
804.488	27412
804.63	27431
804.773	27306
804.915	27469
805.057	27488
805.199	27378
805.341	27530
805.483	27625
805.626	27485
805.768	27427
805.91	27583
806.052	27679
806.194	27450
806.336	27701
806.478	27686
806.62	27511
806.762	27595
806.904	27804
807.046	28078
807.188	27994
807.33	27956
807.472	28006
807.614	27934
807.756	28059
807.898	27983
808.04	27808
808.182	27854
808.324	27922
808.465	27907
808.607	28025
808.749	28173
808.891	28367
809.033	28295
809.174	28261
809.316	28246
809.458	28219
809.6	28215
809.741	28459
809.883	28394
810.025	28470
810.166	28478
810.308	28554
810.45	28386
810.591	28432
810.733	28196
810.875	28291
811.016	28223
811.158	28070
811.299	28249
811.441	28519
811.582	28375
811.724	28322
811.865	28207
812.007	28223
812.148	28299
812.29	28325
812.431	28485
812.573	28474
812.714	28706
812.855	28748
812.997	28824
813.138	28965
813.279	28873
813.421	28854
813.562	28622
813.703	28557
813.845	28569
813.986	28287
814.127	28017
814.268	27964
814.41	27899
814.551	27956
814.692	28074
814.833	27892
814.974	27899
815.115	28017
815.256	27880
815.397	27854
815.539	27949
815.68	27728
815.821	27717
815.962	27728
816.103	27572
816.244	27743
816.385	27416
816.526	27549
816.666	27370
816.807	27310
816.948	27329
817.089	27412
817.23	27317
817.371	27279
817.512	27302
817.653	27256
817.793	27180
817.934	27173
818.075	27119
818.216	27146
818.356	27116
818.497	27036
818.638	27066
818.778	27074
818.919	26933
819.06	27020
819.2	27222
819.341	27237
819.481	27199
819.622	27344
819.762	27614
819.903	27485
820.043	27302
820.184	27340
820.324	27348
820.465	27302
820.605	27496
820.746	27298
820.886	27211
821.026	27389
821.167	27313
821.307	27211
821.447	27272
821.588	27283
821.728	27150
821.868	26864
822.008	26746
822.149	26655
822.289	26727
822.429	26514
822.569	26400
822.709	26374
822.849	26157
822.99	26244
823.13	26267
823.27	26138
823.41	25902
823.55	26005
823.69	26035
823.83	25974
823.97	25925
824.11	25951
824.25	25803
824.389	25879
824.529	26062
824.669	25966
824.809	26031
824.949	25989
825.089	26012
825.228	25944
825.368	25776
825.508	25818
825.648	25769
825.787	25822
825.927	25921
826.067	25731
826.206	25582
826.346	25731
826.485	25753
826.625	25586
826.765	25731
826.904	25685
827.044	25605
827.183	25460
827.323	25479
827.462	25430
827.601	25445
827.741	25457
827.88	25388
828.02	25297
828.159	25301
828.298	25468
828.437	25445
828.577	25365
828.716	25514
828.855	25327
828.994	25110
829.134	24996
829.273	25236
829.412	25194
829.551	25084
829.69	25160
829.829	25225
829.968	25301
830.107	25000
830.246	25183
830.385	25114
830.524	24901
830.663	24905
830.802	24814
830.941	24711
831.08	24692
831.219	24768
831.357	24905
831.496	24905
831.635	24681
831.774	24688
831.913	24749
832.051	24536
832.19	24547
832.329	24604
832.467	24509
832.606	24308
832.744	24403
832.883	24403
833.022	24338
833.16	24384
833.299	24330
833.437	24532
833.576	24536
833.714	24483
833.852	24429
833.991	24422
834.129	24585
834.267	24448
834.406	24448
834.544	24399
834.682	24437
834.821	24494
834.959	24578
835.097	24372
835.235	24521
835.373	24426
835.511	24327
835.65	24220
835.788	24372
835.926	24201
836.064	24148
836.202	24117
836.34	24266
836.478	24266
836.615	24300
836.753	24338
836.891	24342
837.029	24323
837.167	24117
837.305	24125
837.443	24174
837.58	23988
837.718	24194
837.856	24174
837.993	24026
838.131	24079
838.269	23859
838.406	24174
838.544	24015
838.681	23821
838.819	23726
838.956	23581
839.094	23570
839.231	23707
839.369	23767
839.506	24038
839.643	23821
839.781	23642
839.918	23524
840.055	23585
840.193	23509
840.33	23543
840.467	23452
840.604	23581
840.742	23878
840.879	23448
841.016	23406
841.153	23486
841.29	23551
841.427	23520
841.564	23577
841.701	23585
841.838	23509
841.975	23345
842.112	23429
842.249	23349
842.385	23296
842.522	23524
842.659	23448
842.796	23296
842.933	23280
843.069	23193
843.206	23083
843.343	23242
843.479	23231
843.616	23296
843.752	23166
843.889	22946
844.025	23162
844.162	23010
844.298	22995
844.435	23067
844.571	22987
844.708	23064
844.844	22957
844.98	23162
845.117	23029
845.253	22862
845.389	22953
845.525	22911
845.661	22748
845.798	22831
845.934	22759
846.07	22710
846.206	22831
846.342	22881
846.478	22774
846.614	22531
846.75	22527
846.886	22455
847.022	22664
847.158	22497
847.294	22481
847.429	22519
847.565	22554
847.701	22824
847.837	22272
847.972	22173
848.108	22325
848.244	22253
848.379	22055
848.515	22055
848.65	21926
848.786	21991
848.921	22029
849.057	22242
849.192	22242
849.328	22078
849.463	22082
849.598	22021
849.734	21934
849.869	21804
850.004	21838
850.14	21812
850.275	21842
850.41	21774
850.545	21949
850.68	21846
850.815	21854
850.95	21857
851.085	22021
851.22	21945
851.355	21838
851.49	21895
851.625	21854
851.76	21766
851.895	21739
852.03	21762
852.165	21781
852.299	21808
852.434	21918
852.569	21804
852.703	21797
852.838	21778
852.973	22036
853.107	21949
853.242	21812
853.376	21675
853.511	21511
853.645	21610
853.78	21781
853.914	21709
854.048	21625
854.183	21545
854.317	21720
854.451	21880
854.585	21652
854.72	21576
854.854	21701
854.988	21606
855.122	21622
855.256	21454
855.39	21606
855.524	21675
855.658	21652
855.792	21599
855.926	21759
856.06	21690
856.194	21785
856.327	21720
856.461	21572
856.595	21629
856.729	21606
856.862	21797
856.996	21641
857.13	21793
857.263	21667
857.397	21800
857.53	21587
857.664	21701
857.797	21732
857.931	21781
858.064	21648
858.197	21671
858.331	21606
858.464	21511
858.597	21504
858.731	21743
858.864	21637
858.997	21545
859.13	21660
859.263	21572
859.396	21717
859.529	21675
859.662	21618
859.795	21667
859.928	21656
860.061	21766
860.194	21880
860.327	21629
860.46	21739
860.592	21831
860.725	21835
860.858	21736
860.99	21679
861.123	21652
861.256	21667
861.388	21694
861.521	22451
861.653	21583
861.786	21587
861.918	21545
862.05	21534
862.183	21561
862.315	21564
862.447	21599
862.58	21519
862.712	21469
862.844	21351
862.976	21389
863.108	21511
863.24	21724
863.372	21291
863.504	21462
863.636	21313
863.768	21332
863.9	21325
864.032	21291
864.164	21252
864.296	21447
864.428	21363
864.559	21469
864.691	21408
864.823	21447
864.954	21325
865.086	21325
865.217	21233
865.349	21180
865.48	21218
865.612	21237
865.743	21488
865.875	21252
866.006	21313
866.137	21154
866.269	21272
866.4	21325
866.531	21222
866.662	21070
866.793	21218
866.924	21165
867.055	21169
867.186	21195
867.317	21123
867.448	21009
867.579	21131
867.71	20971
867.841	21043
867.972	21112
868.103	21123
868.233	21192
868.364	21226
868.495	21131
868.625	21435
868.756	21458
868.886	21237
869.017	21511
869.147	21450
869.278	21496
869.408	21477
869.539	21473
869.669	21511
869.799	21481
869.929	21625
870.06	21561
870.19	21774
870.32	21694
870.45	21850
870.58	21671
870.71	21895
870.84	21907
870.97	21880
871.1	21789
871.23	21994
871.36	22074
871.489	22032
871.619	21987
871.749	22040
871.879	22017
872.008	22120
872.138	22036
872.267	21983
872.397	21873
872.526	21884
872.656	21838
872.785	21926
872.915	21945
873.044	22116
873.173	21979
873.303	22090
873.432	22128
873.561	22215
873.69	22093
873.819	22101
873.948	22097
874.077	22154
874.206	21960
874.335	21983
874.464	22188
874.593	22299
874.722	22200
874.851	22261
874.979	22386
875.108	22348
875.237	22280
875.365	22162
875.494	22226
875.623	22356
875.751	22295
875.88	22280
876.008	22398
876.136	22474
876.265	22626
876.393	22843
876.521	22763
876.65	22786
876.778	22710
876.906	22592
877.034	22664
877.162	22698
877.29	22630
877.418	22664
877.546	22554
877.674	22645
877.802	22660
877.93	22596
878.058	22664
878.185	22470
878.313	22634
878.441	22660
878.568	22474
878.696	22516
878.824	22668
878.951	22752
879.079	22759
879.206	22900
879.333	22725
879.461	22660
879.588	22683
879.715	22797
879.842	22900
879.97	22634
880.097	22394
880.224	22390
880.351	22409
880.478	22367
880.605	22394
880.732	22341
880.859	22577
880.986	22443
881.112	22485
881.239	22322
881.366	22230
881.493	22105
881.619	21846
881.746	22120
881.872	22006
881.999	21918
882.125	21838
882.252	22032
882.378	22048
882.505	22158
882.631	21895
882.757	21732
882.883	21827
883.01	21888
883.136	21698
883.262	21564
883.388	21561
883.514	21770
883.64	21717
883.766	21599
883.892	21462
884.018	21408
884.143	21694
884.269	21774
884.395	21428
884.52	21294
884.646	21351
884.772	21230
884.897	21165
885.023	21359
885.148	21416
885.274	21428
885.399	21492
885.524	21336
885.65	21329
885.775	21355
885.9	21294
886.025	21310
886.15	21389
886.275	21260
886.4	21279
886.525	21340
886.65	21180
886.775	21188
886.9	21428
887.025	21428
887.149	21332
887.274	21157
887.399	21173
887.523	21047
887.648	21112
887.773	21013
887.897	21123
888.021	21135
888.146	21100
888.27	21142
888.395	21256
888.519	21108
888.643	21108
888.767	21218
888.891	21024
889.015	21017
889.139	20944
889.263	20937
889.387	20971
889.511	21184
889.635	21020
889.759	20807
889.883	20971
890.006	20785
890.13	21005
890.254	20777
890.377	20842
890.501	20663
890.624	20651
890.748	20674
890.871	20625
890.995	20537
891.118	20358
891.241	20514
891.364	20412
891.488	20644
891.611	20488
891.734	20419
891.857	20492
891.98	20450
892.103	20404
892.226	20587
892.349	20412
892.471	20374
892.594	20423
892.717	20476
892.839	20332
892.962	20229
893.085	20412
893.207	20423
893.33	20324
893.452	20210
893.575	20438
893.697	20351
893.819	20533
893.941	20556
894.064	20461
894.186	20275
894.308	20263
894.43	20476
894.552	20442
894.674	20305
894.796	20313
894.918	20282
895.04	20320
895.161	20343
895.283	20450
895.405	20324
895.526	20294
895.648	20305
895.769	20263
895.891	20446
896.012	20415
896.134	20461
896.255	20317
896.376	20275
896.498	20434
896.619	20484
896.74	20396
896.861	20450
896.982	20716
897.103	20788
897.224	20583
897.345	20571
897.466	20549
897.587	20689
897.708	20678
897.828	20674
897.949	20476
898.07	20457
898.19	20549
898.311	20670
898.431	20579
898.552	20701
898.672	20682
898.792	20705
898.913	20579
899.033	20412
899.153	20328
899.273	20252
899.393	20370
899.513	20347
899.633	20370
899.753	20370
899.873	20317
899.993	20347
900.113	20362
900.232	20275
900.352	20244
900.472	20126
900.591	20172
900.711	20039
900.83	20020
900.95	20199
901.069	20259
901.189	20031
901.308	19788
901.427	19651
901.546	19616
901.665	19639
901.784	19746
901.904	19624
902.023	19468
902.141	19194
902.26	19217
902.379	19335
902.498	19274
902.617	19194
902.735	19190
902.854	19110
902.973	18966
903.091	18802
903.21	18833
903.328	18901
903.446	18768
903.565	18753
903.683	18650
903.801	18635
903.919	18540
904.038	18673
904.156	18414
904.274	18486
904.392	18437
904.51	18338
904.627	18441
904.745	18494
904.863	18448
904.981	18220
905.098	18159
905.216	18155
905.334	18076
905.451	18163
905.569	18053
905.686	18068
905.803	18079
905.921	17840
906.038	17908
906.155	17996
906.272	17836
906.389	17843
906.506	17577
906.623	17638
906.74	17657
906.857	17547
906.974	17558
907.091	17672
907.208	17684
907.324	17566
907.441	17581
907.557	17364
907.674	17311
907.79	17299
907.907	17459
908.023	17330
908.139	17353
908.256	17296
908.372	17181
908.488	17109
908.604	17052
908.72	16968
908.836	17090
908.952	17037
909.068	17041
909.184	17197
909.3	16984
909.415	17151
909.531	17060
909.647	16729
909.762	16778
909.878	16725
909.993	16786
910.108	16691
910.224	16649
910.339	16653
910.454	16546
910.57	16603
910.685	16535
910.8	16820
910.915	16790
911.03	16558
911.145	16485
911.259	16314
911.374	16367
911.489	16226
911.604	16246
911.718	16139
911.833	16093
911.947	15975
912.062	16002
912.176	16116
912.291	16082
912.405	16109
912.519	16261
912.633	16337
912.748	16029
912.862	16055
912.976	15895
913.09	15793
913.204	15949
913.318	15930
913.431	16067
913.545	15964
913.659	16017
913.772	15861
913.886	15823
914	15682
914.113	15751
914.226	15876
914.34	15736
914.453	15663
914.566	15812
914.68	15629
914.793	15557
914.906	15485
915.019	15359
915.132	15260
915.245	15310
915.358	15329
915.47	15355
915.583	15302
915.696	15348
915.809	15393
915.921	15428
916.034	15199
916.146	15245
916.259	15173
916.371	15264
916.483	15256
916.595	15207
916.708	15146
916.82	15138
916.932	15097
917.044	15070
917.156	15032
917.268	14929
917.38	14952
917.491	14880
917.603	14921
917.715	14914
917.826	15081
917.938	14792
918.049	14811
918.161	14914
918.272	15051
918.384	14990
918.495	14853
918.606	14712
918.717	14708
918.828	14765
918.939	14762
919.05	14606
919.161	14712
919.272	14571
919.383	14552
919.494	14644
919.604	14941
919.715	14689
919.826	14727
919.936	14629
920.047	14838
920.157	14617
920.267	14826
920.378	14682
920.488	14670
920.598	14864
920.708	14925
920.818	14758
920.928	14788
921.038	14891
921.148	14982
921.258	14594
921.368	14480
921.477	14366
921.587	14347
921.697	14263
921.806	14343
921.916	14290
922.025	14138
922.134	14081
922.244	14065
922.353	14145
922.462	13955
922.571	14016
922.68	13742
922.789	13666
922.898	13719
923.007	13601
923.116	13662
923.224	13689
923.333	13616
923.442	13510
923.55	13586
923.659	13548
923.767	13700
923.876	13468
923.984	13510
924.092	13445
924.201	13419
924.309	13396
924.417	13506
924.525	13396
924.633	13407
924.741	14282
924.849	13114
924.956	13320
925.064	13133
925.172	12996
925.279	13122
925.387	13168
925.494	13164
925.602	13293
925.709	13152
925.816	12966
925.924	13061
926.031	13076
926.138	13046
926.245	13122
926.352	12897
926.459	13069
926.566	13107
926.673	12920
926.779	12878
926.886	12852
926.993	12722
927.099	12684
927.206	12654
927.312	12536
927.419	12684
927.525	12703
927.631	12703
927.737	12582
927.843	12464
927.95	12395
928.056	12540
928.162	12540
928.267	12498
928.373	13023
928.479	12559
928.585	12296
928.69	12441
928.796	12433
928.901	12338
929.007	12171
929.112	12270
929.218	12296
929.323	12152
929.428	12163
929.533	12369
929.638	12163
929.743	12186
929.848	12216
929.953	12175
930.058	12091
930.163	11916
930.267	11882
930.372	11965
930.477	11878
930.581	12072
930.685	11828
930.79	11798
930.894	11794
930.998	11783
931.103	11935
931.207	11486
931.311	11391
931.415	11345
931.519	11166
931.623	11212
