Data from test_V78500241_2277.txt Node
Date: Fri Mar 25 15:57:34 CST 2022
User: usil
Spectrometer: V785-0024
Trigger mode: 0
Integration Time (sec): 4.000000E-1
Scans to average: 1
Nonlinearity correction enabled: false
Boxcar width: 0
Storing dark spectrum: false
XAxis mode: Wavelengths
Number of Pixels in Spectrum: 1024
>>>>>Begin Spectral Data<<<<<
801.071	28820
801.214	28740
801.356	28622
801.499	28561
801.641	28527
801.783	28440
801.926	28428
802.068	28390
802.211	28306
802.353	28344
802.496	28230
802.638	28131
802.78	28086
802.923	27968
803.065	28010
803.208	28154
803.35	28101
803.492	28169
803.635	28337
803.777	28265
803.919	28306
804.061	28656
804.204	28325
804.346	28394
804.488	28310
804.63	28390
804.773	28303
804.915	28554
805.057	28485
805.199	28462
805.341	28546
805.483	28550
805.626	28603
805.768	28451
805.91	28489
806.052	28596
806.194	28344
806.336	28645
806.478	28405
806.62	28455
806.762	28641
806.904	28847
807.046	28999
807.188	28858
807.33	28908
807.472	28980
807.614	28847
807.756	28957
807.898	28866
808.04	28801
808.182	28694
808.324	28786
808.465	28793
808.607	29124
808.749	29220
808.891	29315
809.033	29341
809.174	29277
809.316	29121
809.458	29261
809.6	29216
809.741	29296
809.883	29261
810.025	29478
810.166	29505
810.308	29516
810.45	29345
810.591	29341
810.733	29162
810.875	29288
811.016	29147
811.158	29014
811.299	29265
811.441	29235
811.582	29436
811.724	29159
811.865	29102
812.007	29109
812.148	29113
812.29	29109
812.431	29372
812.573	29573
812.714	29653
812.855	29756
812.997	29843
813.138	29980
813.279	29828
813.421	29790
813.562	29771
813.703	29455
813.845	29493
813.986	29102
814.127	29090
814.268	28949
814.41	28934
814.551	28934
814.692	28915
814.833	28984
814.974	28938
815.115	28881
815.256	28850
815.397	28873
815.539	28957
815.68	28679
815.821	28740
815.962	28736
816.103	28584
816.244	28596
816.385	28500
816.526	28447
816.666	28390
816.807	28219
816.948	28253
817.089	28421
817.23	28265
817.371	28192
817.512	28371
817.653	28265
817.793	28234
817.934	28173
818.075	28299
818.216	28032
818.356	28226
818.497	28143
818.638	27994
818.778	27934
818.919	28036
819.06	28078
819.2	28128
819.341	28219
819.481	28295
819.622	28394
819.762	28672
819.903	28455
820.043	28409
820.184	28443
820.324	28405
820.465	28390
820.605	28459
820.746	28299
820.886	28158
821.026	28363
821.167	28287
821.307	28500
821.447	28329
821.588	28150
821.728	27918
821.868	27949
822.008	27838
822.149	27701
822.289	27675
822.429	27439
822.569	27511
822.709	27405
822.849	27188
822.99	27340
823.13	27161
823.27	27214
823.41	27081
823.55	26830
823.69	27085
823.83	27081
823.97	26925
824.11	26765
824.25	26861
824.389	26800
824.529	26944
824.669	26883
824.809	27001
824.949	27020
825.089	26940
825.228	26906
825.368	26754
825.508	26727
825.648	26735
825.787	26838
825.927	26792
826.067	26861
826.206	26834
826.346	26800
826.485	26880
826.625	26735
826.765	26914
826.904	26895
827.044	26507
827.183	26568
827.323	26484
827.462	26587
827.601	26564
827.741	26469
827.88	26514
828.02	26290
828.159	26404
828.298	26499
828.437	26571
828.577	26355
828.716	26617
828.855	26294
828.994	26119
829.134	26161
829.273	26248
829.412	26020
829.551	26157
829.69	26043
829.829	26221
829.968	26278
830.107	26320
830.246	26172
830.385	26077
830.524	26027
830.663	25826
830.802	25833
830.941	25791
831.08	25757
831.219	25871
831.357	25875
831.496	25951
831.635	25761
831.774	25647
831.913	25704
832.051	25529
832.19	25590
832.329	25510
832.467	25419
832.606	25350
832.744	25320
832.883	25331
833.022	25392
833.16	25392
833.299	25559
833.437	25506
833.576	25483
833.714	25552
833.852	25483
833.991	25464
834.129	25647
834.267	25468
834.406	25609
834.544	25537
834.682	25563
834.821	25544
834.959	25662
835.097	25396
835.235	25529
835.373	25419
835.511	25533
835.65	25304
835.788	25415
835.926	25209
836.064	25103
836.202	25126
836.34	25270
836.478	25415
836.615	25202
836.753	25320
836.891	25365
837.029	25327
837.167	25266
837.305	25198
837.443	25107
837.58	25129
837.718	25304
837.856	25133
837.993	25042
838.131	25247
838.269	25053
838.406	25008
838.544	24882
838.681	24776
838.819	24715
838.956	24551
839.094	24498
839.231	24669
839.369	24772
839.506	24962
839.643	24894
839.781	24585
839.918	24650
840.055	24627
840.193	24441
840.33	24483
840.467	24464
840.604	24650
840.742	24749
840.879	24281
841.016	24555
841.153	24452
841.29	24521
841.427	24601
841.564	24536
841.701	24384
841.838	24441
841.975	24384
842.112	24547
842.249	24346
842.385	24171
842.522	24563
842.659	24292
842.796	24334
842.933	24254
843.069	24159
843.206	24243
843.343	24426
843.479	24232
843.616	24216
843.752	24007
843.889	24098
844.025	24167
844.162	23961
844.298	23950
844.435	24098
844.571	24045
844.708	24015
844.844	24114
844.98	24266
845.117	24194
845.253	23992
845.389	23824
845.525	23893
845.661	23870
845.798	23847
845.934	23676
846.07	23794
846.206	23878
846.342	23912
846.478	23859
846.614	23512
846.75	23356
846.886	23497
847.022	23463
847.158	23516
847.294	23486
847.429	23482
847.565	23417
847.701	23707
847.837	23292
847.972	23254
848.108	23258
848.244	23216
848.379	23052
848.515	23094
848.65	23029
848.786	23231
848.921	23109
849.057	23140
849.192	23223
849.328	23025
849.463	23006
849.598	23037
849.734	22980
849.869	22919
850.004	22812
850.14	22889
850.275	22999
850.41	22771
850.545	22721
850.68	22767
850.815	22858
850.95	22759
851.085	22919
851.22	22927
851.355	22805
851.49	22919
851.625	22904
851.76	22793
851.895	22721
852.03	22774
852.165	22862
852.299	22862
852.434	22900
852.569	22900
852.703	22763
852.838	22923
852.973	22946
853.107	22957
853.242	22869
853.376	22771
853.511	22573
853.645	22580
853.78	22702
853.914	22637
854.048	22603
854.183	22603
854.317	22755
854.451	22793
854.585	22622
854.72	22713
854.854	22550
854.988	22634
855.122	22615
855.256	22485
855.39	22713
855.524	22710
855.658	22599
855.792	22588
855.926	22630
856.06	22729
856.194	22603
856.327	22603
856.461	22493
856.595	22596
856.729	22584
856.862	22771
856.996	22550
857.13	22774
857.263	22759
857.397	22721
857.53	22523
857.664	22683
857.797	22744
857.931	22793
858.064	22577
858.197	22637
858.331	22580
858.464	22596
858.597	22672
858.731	22653
858.864	22584
858.997	22580
859.13	22535
859.263	22672
859.396	22698
859.529	22683
859.662	22573
859.795	22554
859.928	22630
860.061	22831
860.194	22824
860.327	22828
860.46	22801
860.592	22873
860.725	22908
860.858	22816
860.99	22584
861.123	22603
861.256	22455
861.388	22725
861.521	23220
861.653	22584
861.786	22360
861.918	22481
862.05	22580
862.183	22519
862.315	22565
862.447	22577
862.58	22611
862.712	22291
862.844	22265
862.976	22360
863.108	22485
863.24	22801
863.372	22356
863.504	22371
863.636	22299
863.768	22405
863.9	22272
864.032	22242
864.164	22303
864.296	22272
864.428	22462
864.559	22436
864.691	22421
864.823	22394
864.954	22261
865.086	22303
865.217	22379
865.349	22173
865.48	22432
865.612	22306
865.743	22299
865.875	22173
866.006	22188
866.137	22253
866.269	22272
866.4	22238
866.531	22116
866.662	22158
866.793	22166
866.924	22211
867.055	22116
867.186	22101
867.317	22048
867.448	22044
867.579	22154
867.71	22120
867.841	22166
867.972	22147
868.103	22204
868.233	22150
868.364	22105
868.495	22207
868.625	22382
868.756	22451
868.886	22348
869.017	22398
869.147	22455
869.278	22577
869.408	22379
869.539	22367
869.669	22417
869.799	22310
869.929	22527
870.06	22504
870.19	22630
870.32	22592
870.45	22717
870.58	22679
870.71	22965
870.84	22911
870.97	22778
871.1	22839
871.23	23010
871.36	22946
871.489	22828
871.619	22957
871.749	23025
871.879	22942
872.008	23018
872.138	23067
872.267	22999
872.397	22896
872.526	22687
872.656	22797
872.785	22850
872.915	22946
873.044	23098
873.173	22919
873.303	23048
873.432	23060
873.561	23178
873.69	22900
873.819	23037
873.948	23056
874.077	23029
874.206	22972
874.335	22991
874.464	23162
874.593	23204
874.722	23132
874.851	23277
874.979	23208
875.108	23223
875.237	23189
875.365	23109
875.494	23098
875.623	23292
875.751	23273
875.88	23140
876.008	23322
876.136	23455
876.265	23699
876.393	23733
876.521	23630
876.65	23608
876.778	23596
876.906	23512
877.034	23722
877.162	23501
877.29	23398
877.418	23543
877.546	23611
877.674	23551
877.802	23562
877.93	23493
878.058	23585
878.185	23376
878.313	23554
878.441	23444
878.568	23337
878.696	23516
878.824	23577
878.951	23627
879.079	23642
879.206	23813
879.333	23859
879.461	23543
879.588	23684
879.715	23623
879.842	23878
879.97	23707
880.097	23440
880.224	23303
880.351	23463
880.478	23395
880.605	23326
880.732	23345
880.859	23634
880.986	23444
881.112	23402
881.239	23303
881.366	23117
881.493	22889
881.619	23056
881.746	22873
881.872	23006
881.999	22793
882.125	22805
882.252	22877
882.378	22824
882.505	22968
882.631	22801
882.757	22618
882.883	22615
883.01	22577
883.136	22531
883.262	22402
883.388	22565
883.514	22637
883.64	22500
883.766	22497
883.892	22497
884.018	22246
884.143	22637
884.269	22596
884.395	22379
884.52	22154
884.646	22211
884.772	22025
884.897	22150
885.023	22287
885.148	22360
885.274	22390
885.399	22257
885.524	22181
885.65	22268
885.775	22150
885.9	22139
886.025	22329
886.15	22272
886.275	22204
886.4	22070
886.525	22207
886.65	22055
886.775	22181
886.9	22360
887.025	22428
887.149	22234
887.274	22074
887.399	21937
887.523	21854
887.648	21838
887.773	22006
887.897	22116
888.021	22029
888.146	21759
888.27	21972
888.395	22059
888.519	21994
888.643	21926
888.767	22200
888.891	21922
889.015	21861
889.139	21880
889.263	21709
889.387	21907
889.511	21998
889.635	21899
889.759	21736
889.883	21713
890.006	21842
890.13	21922
890.254	21667
890.377	21622
890.501	21545
890.624	21485
890.748	21580
890.871	21405
890.995	21226
891.118	21249
891.241	21401
891.364	21355
891.488	21401
891.611	21310
891.734	21351
891.857	21496
891.98	21344
892.103	21302
892.226	21370
892.349	21325
892.471	21180
892.594	21260
892.717	21245
892.839	21207
892.962	21252
893.085	21310
893.207	21127
893.33	21116
893.452	21214
893.575	21336
893.697	21074
893.819	21313
893.941	21424
894.064	21348
894.186	21184
894.308	21180
894.43	21222
894.552	21313
894.674	21321
894.796	21096
894.918	21184
895.04	21207
895.161	21211
895.283	21142
895.405	21150
895.526	21180
895.648	21161
895.769	21226
895.891	21241
896.012	21173
896.134	21146
896.255	21161
896.376	21135
896.498	21169
896.619	21256
896.74	21100
896.861	21256
896.982	21481
897.103	21656
897.224	21363
897.345	21420
897.466	21420
897.587	21378
897.708	21545
897.828	21481
897.949	21207
898.07	21207
898.19	21378
898.311	21469
898.431	21439
898.552	21393
898.672	21268
898.792	21450
898.913	21336
899.033	21146
899.153	21154
899.273	21009
899.393	21036
899.513	21146
899.633	21233
899.753	21116
899.873	20994
899.993	21146
900.113	21036
900.232	21089
900.352	20906
900.472	20902
900.591	20933
900.711	20830
900.83	20781
900.95	20925
901.069	21005
901.189	20777
901.308	20469
901.427	20465
901.546	20404
901.665	20499
901.784	20442
901.904	20336
902.023	20138
902.141	20187
902.26	19974
902.379	20005
902.498	20001
902.617	19860
902.735	19883
902.854	19887
902.973	19974
903.091	19594
903.21	19540
903.328	19601
903.446	19514
903.565	19377
903.683	19411
903.801	19343
903.919	19320
904.038	19407
904.156	19148
904.274	19270
904.392	19114
904.51	19221
904.627	19122
904.745	19228
904.863	19213
904.981	18939
905.098	18878
905.216	18833
905.334	18806
905.451	18863
905.569	18802
905.686	18954
905.803	18837
905.921	18692
906.038	18612
906.155	18578
906.272	18570
906.389	18483
906.506	18254
906.623	18388
906.74	18292
906.857	18178
906.974	18186
907.091	18391
907.208	18372
907.324	18372
907.441	18266
907.557	18060
907.674	18076
907.79	17965
907.907	18068
908.023	18057
908.139	18030
908.256	17980
908.372	18019
908.488	17889
908.604	17764
908.72	17794
908.836	17798
908.952	17646
909.068	17786
909.184	17855
909.3	17703
909.415	17745
909.531	17687
909.647	17493
909.762	17493
909.878	17478
909.993	17478
910.108	17429
910.224	17326
910.339	17505
910.454	17258
910.57	17292
910.685	17189
910.8	17558
910.915	17364
911.03	17250
911.145	17132
911.259	16995
911.374	17113
911.489	16942
911.604	16908
911.718	16740
911.833	16835
911.947	16683
912.062	16672
912.176	16881
912.291	16710
912.405	16774
912.519	16984
912.633	16896
912.748	16805
912.862	16892
912.976	16588
913.09	16493
913.204	16565
913.318	16641
913.431	16622
913.545	16630
913.659	16675
913.772	16440
913.886	16451
914	16329
914.113	16379
914.226	16417
914.34	16508
914.453	16314
914.566	16421
914.68	16246
914.793	16086
914.906	15998
915.019	16025
915.132	15926
915.245	15941
915.358	16013
915.47	16006
915.583	15956
915.696	16006
915.809	16074
915.921	16025
916.034	15743
916.146	15884
916.259	15823
916.371	15953
916.483	15850
916.595	15732
916.708	15679
916.82	15766
916.932	15603
917.044	15724
917.156	15694
917.268	15549
917.38	15561
917.491	15538
917.603	15580
917.715	15599
917.826	15663
917.938	15587
918.049	15500
918.161	15519
918.272	15675
918.384	15618
918.495	15443
918.606	15245
918.717	15298
918.828	15268
918.939	15389
919.05	15211
919.161	15363
919.272	15062
919.383	15199
919.494	15306
919.604	15526
919.715	15344
919.826	15226
919.936	15154
920.047	15214
920.157	15287
920.267	15405
920.378	15313
920.488	15214
920.598	15336
920.708	15557
920.818	15348
920.928	15321
921.038	15542
921.148	15458
921.258	15260
921.368	15097
921.477	15062
921.587	14967
921.697	14807
921.806	14963
921.916	14781
922.025	14651
922.134	14575
922.244	14579
922.353	14727
922.462	14507
922.571	14438
922.68	14377
922.789	14301
922.898	14252
923.007	14199
923.116	14263
923.224	14271
923.333	14202
923.442	14069
923.55	14027
923.659	14134
923.767	14062
923.876	13989
923.984	14024
924.092	13982
924.201	13944
924.309	13887
924.417	13936
924.525	13875
924.633	13856
924.741	14861
924.849	13734
924.956	13822
925.064	13597
925.172	13521
925.279	13632
925.387	13696
925.494	13674
925.602	13727
925.709	13651
925.816	13491
925.924	13537
926.031	13632
926.138	13567
926.245	13540
926.352	13384
926.459	13525
926.566	13655
926.673	13407
926.779	13339
926.886	13316
926.993	13259
927.099	13225
927.206	13031
927.312	13038
927.419	13168
927.525	13251
927.631	13168
927.737	13099
927.843	13046
927.95	12935
928.056	12935
928.162	13034
928.267	12962
928.373	13647
928.479	13053
928.585	12802
928.69	12939
928.796	12951
928.901	12764
929.007	12582
929.112	12795
929.218	12738
929.323	12684
929.428	12677
929.533	12867
929.638	12589
929.743	12711
929.848	12726
929.953	12578
930.058	12540
930.163	12285
930.267	12403
930.372	12445
930.477	12311
930.581	12582
930.685	12426
930.79	12266
930.894	12270
930.998	12186
931.103	12258
931.207	11992
931.311	11950
931.415	11786
931.519	11577
931.623	11566
