Data from test_V78500241_3456.txt Node
Date: Fri Mar 25 16:05:44 CST 2022
User: usil
Spectrometer: V785-0024
Trigger mode: 0
Integration Time (sec): 4.000000E-1
Scans to average: 1
Nonlinearity correction enabled: false
Boxcar width: 0
Storing dark spectrum: false
XAxis mode: Wavelengths
Number of Pixels in Spectrum: 1024
>>>>>Begin Spectral Data<<<<<
801.071	28858
801.214	28763
801.356	28706
801.499	28542
801.641	28447
801.783	28405
801.926	28493
802.068	28474
802.211	28371
802.353	28341
802.496	28207
802.638	28143
802.78	28051
802.923	28036
803.065	28006
803.208	28021
803.35	28238
803.492	28204
803.635	28322
803.777	28299
803.919	28489
804.061	28599
804.204	28523
804.346	28333
804.488	28329
804.63	28299
804.773	28314
804.915	28417
805.057	28561
805.199	28497
805.341	28580
805.483	28634
805.626	28421
805.768	28417
805.91	28561
806.052	28607
806.194	28531
806.336	28771
806.478	28569
806.62	28535
806.762	28653
806.904	28911
807.046	29113
807.188	29044
807.33	29090
807.472	29143
807.614	28968
807.756	29022
807.898	28987
808.04	28881
808.182	28782
808.324	28949
808.465	28934
808.607	29143
808.749	29242
808.891	29265
809.033	29425
809.174	29353
809.316	29337
809.458	29231
809.6	29368
809.741	29444
809.883	29375
810.025	29410
810.166	29512
810.308	29592
810.45	29364
810.591	29505
810.733	29143
810.875	29258
811.016	29200
811.158	29387
811.299	29372
811.441	29516
811.582	29467
811.724	29478
811.865	29322
812.007	29292
812.148	29147
812.29	29360
812.431	29417
812.573	29695
812.714	29691
812.855	29840
812.997	29855
813.138	30045
813.279	29912
813.421	29908
813.562	29707
813.703	29729
813.845	29501
813.986	29284
814.127	29128
814.268	29041
814.41	29159
814.551	29022
814.692	29075
814.833	28927
814.974	28961
815.115	28946
815.256	29052
815.397	28961
815.539	28911
815.68	28694
815.821	28641
815.962	28839
816.103	28835
816.244	28835
816.385	28599
816.526	28660
816.666	28512
816.807	28363
816.948	28436
817.089	28485
817.23	28295
817.371	28401
817.512	28268
817.653	28211
817.793	28356
817.934	28333
818.075	28398
818.216	28382
818.356	28284
818.497	28242
818.638	28093
818.778	28124
818.919	28253
819.06	28158
819.2	28379
819.341	28363
819.481	28596
819.622	28592
819.762	28850
819.903	28641
820.043	28713
820.184	28424
820.324	28550
820.465	28535
820.605	28512
820.746	28542
820.886	28360
821.026	28554
821.167	28398
821.307	28531
821.447	28557
821.588	28257
821.728	28280
821.868	27975
822.008	27888
822.149	27800
822.289	27823
822.429	27526
822.569	27485
822.709	27542
822.849	27443
822.99	27374
823.13	27393
823.27	27386
823.41	27222
823.55	26990
823.69	27039
823.83	27066
823.97	27249
824.11	26971
824.25	27005
824.389	26883
824.529	27131
824.669	27032
824.809	27138
824.949	27108
825.089	27142
825.228	27077
825.368	26807
825.508	26743
825.648	26868
825.787	27051
825.927	26845
826.067	26735
826.206	26887
826.346	26937
826.485	26834
826.625	26887
826.765	26830
826.904	27009
827.044	26712
827.183	26762
827.323	26670
827.462	26727
827.601	26613
827.741	26640
827.88	26663
828.02	26556
828.159	26625
828.298	26644
828.437	26720
828.577	26461
828.716	26842
828.855	26465
828.994	26434
829.134	26256
829.273	26343
829.412	26343
829.551	26214
829.69	26290
829.829	26240
829.968	26374
830.107	26434
830.246	26275
830.385	26240
830.524	26157
830.663	26046
830.802	26050
830.941	25921
831.08	25894
831.219	25864
831.357	26012
831.496	26062
831.635	25989
831.774	25879
831.913	25830
832.051	25674
832.19	25769
832.329	25715
832.467	25708
832.606	25529
832.744	25506
832.883	25624
833.022	25540
833.16	25567
833.299	25704
833.437	25548
833.576	25670
833.714	25609
833.852	25769
833.991	25681
834.129	25769
834.267	25643
834.406	25655
834.544	25700
834.682	25597
834.821	25685
834.959	25788
835.097	25529
835.235	25647
835.373	25727
835.511	25567
835.65	25578
835.788	25518
835.926	25400
836.064	25354
836.202	25301
836.34	25400
836.478	25556
836.615	25358
836.753	25483
836.891	25677
837.029	25514
837.167	25434
837.305	25407
837.443	25377
837.58	25335
837.718	25304
837.856	25335
837.993	25168
838.131	25255
838.269	25190
838.406	25183
838.544	25000
838.681	24909
838.819	25031
838.956	24749
839.094	24753
839.231	24825
839.369	24890
839.506	25110
839.643	25015
839.781	24821
839.918	24741
840.055	24768
840.193	24768
840.33	24745
840.467	24722
840.604	24616
840.742	25027
840.879	24399
841.016	24601
841.153	24494
841.29	24779
841.427	24601
841.564	24741
841.701	24661
841.838	24711
841.975	24582
842.112	24589
842.249	24441
842.385	24395
842.522	24681
842.659	24369
842.796	24486
842.933	24350
843.069	24388
843.206	24285
843.343	24418
843.479	24426
843.616	24369
843.752	24117
843.889	24247
844.025	24350
844.162	24171
844.298	24304
844.435	24125
844.571	24213
844.708	24186
844.844	24388
844.98	24311
845.117	24152
845.253	24254
845.389	24140
845.525	24152
845.661	23984
845.798	23969
845.934	24060
846.07	23935
846.206	23988
846.342	23977
846.478	23836
846.614	23703
846.75	23668
846.886	23592
847.022	23676
847.158	23646
847.294	23619
847.429	23649
847.565	23638
847.701	23828
847.837	23299
847.972	23376
848.108	23444
848.244	23414
848.379	23261
848.515	23273
848.65	23273
848.786	23299
848.921	23181
849.057	23376
849.192	23353
849.328	23250
849.463	23341
849.598	23227
849.734	23246
849.869	23109
850.004	22953
850.14	23037
850.275	23136
850.41	23044
850.545	22976
850.68	23041
850.815	22957
850.95	22934
851.085	23140
851.22	23151
851.355	23102
851.49	22961
851.625	22991
851.76	23037
851.895	22896
852.03	22930
852.165	22908
852.299	23048
852.434	23090
852.569	23003
852.703	22930
852.838	22915
852.973	23162
853.107	23105
853.242	22869
853.376	22850
853.511	22793
853.645	22786
853.78	22930
853.914	22812
854.048	22805
854.183	22771
854.317	22873
854.451	23033
854.585	22828
854.72	22729
854.854	22843
854.988	22763
855.122	22805
855.256	22660
855.39	22672
855.524	22885
855.658	22771
855.792	22717
855.926	22774
856.06	22824
856.194	22839
856.327	22767
856.461	22729
856.595	22778
856.729	22744
856.862	22919
856.996	22835
857.13	22908
857.263	22949
857.397	22968
857.53	22786
857.664	22877
857.797	22873
857.931	23033
858.064	22843
858.197	23105
858.331	22755
858.464	22740
858.597	22702
858.731	22835
858.864	22736
858.997	22653
859.13	22740
859.263	22889
859.396	22866
859.529	22862
859.662	22877
859.795	22835
859.928	22759
860.061	23060
860.194	23048
860.327	22991
860.46	22763
860.592	22866
860.725	23006
860.858	22949
860.99	22801
861.123	22710
861.256	22771
861.388	22713
861.521	23383
861.653	22759
861.786	22634
861.918	22630
862.05	22538
862.183	22656
862.315	22763
862.447	22774
862.58	22729
862.712	22557
862.844	22421
862.976	22584
863.108	22481
863.24	22949
863.372	22474
863.504	22527
863.636	22440
863.768	22504
863.9	22538
864.032	22546
864.164	22409
864.296	22516
864.428	22557
864.559	22637
864.691	22599
864.823	22516
864.954	22462
865.086	22535
865.217	22500
865.349	22318
865.48	22341
865.612	22421
865.743	22500
865.875	22443
866.006	22417
866.137	22398
866.269	22382
866.4	22394
866.531	22329
866.662	22246
866.793	22238
866.924	22276
867.055	22287
867.186	22409
867.317	22299
867.448	22150
867.579	22253
867.71	22215
867.841	22181
867.972	22325
868.103	22268
868.233	22310
868.364	22253
868.495	22428
868.625	22523
868.756	22778
868.886	22398
869.017	22451
869.147	22656
869.278	22622
869.408	22603
869.539	22504
869.669	22596
869.799	22603
869.929	22611
870.06	22565
870.19	22767
870.32	22843
870.45	22923
870.58	22934
870.71	23048
870.84	23105
870.97	23022
871.1	22927
871.23	23117
871.36	23147
871.489	23037
871.619	22938
871.749	23136
871.879	23185
872.008	23311
872.138	23216
872.267	23109
872.397	23151
872.526	23003
872.656	22911
872.785	23056
872.915	23254
873.044	23166
873.173	23178
873.303	23212
873.432	23208
873.561	23246
873.69	23216
873.819	23193
873.948	23235
874.077	23136
874.206	23052
874.335	23102
874.464	23235
874.593	23417
874.722	23307
874.851	23417
874.979	23406
875.108	23402
875.237	23307
875.365	23288
875.494	23280
875.623	23543
875.751	23277
875.88	23406
876.008	23436
876.136	23608
876.265	23828
876.393	23866
876.521	23889
876.65	23912
876.778	23703
876.906	23752
877.034	23741
877.162	23863
877.29	23764
877.418	23786
877.546	23718
877.674	23764
877.802	23741
877.93	23707
878.058	23748
878.185	23581
878.313	23627
878.441	23691
878.568	23440
878.696	23490
878.824	23714
878.951	23699
879.079	23980
879.206	24026
879.333	23954
879.461	23821
879.588	23901
879.715	23996
879.842	24087
879.97	23779
880.097	23455
880.224	23604
880.351	23570
880.478	23524
880.605	23440
880.732	23649
880.859	23600
880.986	23524
881.112	23551
881.239	23376
881.366	23273
881.493	23155
881.619	23064
881.746	23121
881.872	23181
881.999	23071
882.125	23113
882.252	23220
882.378	23086
882.505	23143
882.631	22812
882.757	22767
882.883	22908
883.01	22733
883.136	22713
883.262	22736
883.388	22592
883.514	22729
883.64	22812
883.766	22683
883.892	22493
884.018	22542
884.143	22717
884.269	22771
884.395	22580
884.52	22451
884.646	22436
884.772	22329
884.897	22230
885.023	22371
885.148	22413
885.274	22599
885.399	22421
885.524	22481
885.65	22459
885.775	22481
885.9	22242
886.025	22561
886.15	22489
886.275	22272
886.4	22432
886.525	22352
886.65	22314
886.775	22192
886.9	22455
887.025	22489
887.149	22352
887.274	22253
887.399	22185
887.523	22101
887.648	22055
887.773	22166
887.897	22200
888.021	22242
888.146	22036
888.27	22188
888.395	22299
888.519	22211
888.643	22139
888.767	22223
888.891	21991
889.015	22021
889.139	21956
889.263	21888
889.387	21991
889.511	22169
889.635	22063
889.759	21907
889.883	21861
890.006	21956
890.13	22067
890.254	21911
890.377	21937
890.501	21736
890.624	21698
890.748	21713
890.871	21523
890.995	21416
891.118	21538
891.241	21583
891.364	21458
891.488	21526
891.611	21408
891.734	21530
891.857	21561
891.98	21545
892.103	21393
892.226	21431
892.349	21454
892.471	21378
892.594	21329
892.717	21401
892.839	21291
892.962	21355
893.085	21431
893.207	21325
893.33	21313
893.452	21310
893.575	21306
893.697	21382
893.819	21500
893.941	21587
894.064	21534
894.186	21218
894.308	21325
894.43	21317
894.552	21515
894.674	21325
894.796	21233
894.918	21325
895.04	21367
895.161	21416
895.283	21405
895.405	21245
895.526	21416
895.648	21359
895.769	21268
895.891	21336
896.012	21416
896.134	21405
896.255	21195
896.376	21283
896.498	21252
896.619	21447
896.74	21325
896.861	21302
896.982	21656
897.103	21743
897.224	21606
897.345	21511
897.466	21545
897.587	21583
897.708	21660
897.828	21564
897.949	21454
898.07	21325
898.19	21473
898.311	21606
898.431	21545
898.552	21488
898.672	21481
898.792	21618
898.913	21488
899.033	21363
899.153	21317
899.273	21313
899.393	21359
899.513	21294
899.633	21291
899.753	21279
899.873	21150
899.993	21272
900.113	21283
900.232	21237
900.352	21180
900.472	21062
900.591	21096
900.711	20925
900.83	21005
900.95	21135
901.069	21055
901.189	20971
901.308	20564
901.427	20644
901.546	20522
901.665	20556
901.784	20606
901.904	20423
902.023	20218
902.141	20199
902.26	20187
902.379	20206
902.498	20092
902.617	19970
902.735	20100
902.854	19989
902.973	19887
903.091	19856
903.21	19639
903.328	19769
903.446	19571
903.565	19651
903.683	19483
903.801	19438
903.919	19407
904.038	19430
904.156	19297
904.274	19312
904.392	19244
904.51	19392
904.627	19232
904.745	19445
904.863	19327
904.981	19088
905.098	18939
905.216	19034
905.334	18920
905.451	18973
905.569	18878
905.686	19050
905.803	18909
905.921	18646
906.038	18981
906.155	18703
906.272	18711
906.389	18639
906.506	18483
906.623	18479
906.74	18452
906.857	18403
906.974	18353
907.091	18506
907.208	18616
907.324	18544
907.441	18289
907.557	18262
907.674	18243
907.79	18068
907.907	18011
908.023	18125
908.139	18224
908.256	18072
908.372	18068
908.488	18053
908.604	17958
908.72	17878
908.836	17805
908.952	17950
909.068	17961
909.184	17988
909.3	17927
909.415	17969
909.531	17916
909.647	17634
909.762	17573
909.878	17600
909.993	17577
910.108	17486
910.224	17463
910.339	17516
910.454	17364
910.57	17455
910.685	17395
910.8	17680
910.915	17501
911.03	17311
911.145	17200
911.259	17269
911.374	17128
911.489	17143
911.604	17041
911.718	16828
911.833	16923
911.947	16771
912.062	16835
912.176	16889
912.291	17056
912.405	16934
912.519	17083
912.633	17094
912.748	16984
912.862	16904
912.976	16733
913.09	16683
913.204	16653
913.318	16675
913.431	16759
913.545	16828
913.659	16847
913.772	16615
913.886	16500
914	16546
914.113	16504
914.226	16561
914.34	16485
914.453	16379
914.566	16656
914.68	16432
914.793	16398
914.906	16166
915.019	16139
915.132	16025
915.245	16078
915.358	16078
915.47	16112
915.583	16036
915.696	15934
915.809	16181
915.921	16246
916.034	16048
916.146	15888
916.259	15907
916.371	16032
916.483	15975
916.595	15884
916.708	15964
916.82	15937
916.932	15797
917.044	15724
917.156	15846
917.268	15698
917.38	15705
917.491	15603
917.603	15724
917.715	15747
917.826	15774
917.938	15656
918.049	15553
918.161	15584
918.272	15751
918.384	15747
918.495	15587
918.606	15439
918.717	15336
918.828	15530
918.939	15462
919.05	15260
919.161	15336
919.272	15211
919.383	15287
919.494	15458
919.604	15648
919.715	15386
919.826	15287
919.936	15393
920.047	15439
920.157	15348
920.267	15477
920.378	15397
920.488	15443
920.598	15428
920.708	15606
920.818	15523
920.928	15466
921.038	15644
921.148	15599
921.258	15260
921.368	15184
921.477	15097
921.587	15108
921.697	14861
921.806	15081
921.916	14952
922.025	14800
922.134	14629
922.244	14644
922.353	14785
922.462	14575
922.571	14469
922.68	14431
922.789	14317
922.898	14393
923.007	14290
923.116	14290
923.224	14355
923.333	14237
923.442	14233
923.55	14195
923.659	14123
923.767	14278
923.876	14161
923.984	14210
924.092	14096
924.201	14024
924.309	14073
924.417	14100
924.525	13932
924.633	14054
924.741	14868
924.849	13852
924.956	13883
925.064	13875
925.172	13658
925.279	13761
925.387	13731
925.494	13704
925.602	13921
925.709	13746
925.816	13624
925.924	13639
926.031	13811
926.138	13643
926.245	13662
926.352	13529
926.459	13632
926.566	13811
926.673	13495
926.779	13487
926.886	13468
926.993	13247
927.099	13263
927.206	13312
927.312	13213
927.419	13354
927.525	13221
927.631	13274
927.737	13179
927.843	13122
927.95	13080
928.056	13065
928.162	13042
928.267	13164
928.373	13693
928.479	13126
928.585	12939
928.69	13076
928.796	13057
928.901	12909
929.007	12814
929.112	12989
929.218	12966
929.323	12848
929.428	12814
929.533	12954
929.638	12604
929.743	12734
929.848	12700
929.953	12688
930.058	12677
930.163	12464
930.267	12429
930.372	12563
930.477	12330
930.581	12654
930.685	12490
930.79	12292
930.894	12338
930.998	12270
931.103	12380
931.207	12114
931.311	11988
931.415	11927
931.519	11672
931.623	11672
