Data from test_V78500241_1357.txt Node
Date: Fri Mar 25 15:51:12 CST 2022
User: usil
Spectrometer: V785-0024
Trigger mode: 0
Integration Time (sec): 4.000000E-1
Scans to average: 1
Nonlinearity correction enabled: false
Boxcar width: 0
Storing dark spectrum: false
XAxis mode: Wavelengths
Number of Pixels in Spectrum: 1024
>>>>>Begin Spectral Data<<<<<
801.071	28185
801.214	28086
801.356	27766
801.499	27838
801.641	27698
801.783	27663
801.926	27751
802.068	27663
802.211	27724
802.353	27686
802.496	27507
802.638	27473
802.78	27367
802.923	27355
803.065	27165
803.208	27279
803.35	27351
803.492	27500
803.635	27530
803.777	27355
803.919	27709
804.061	27827
804.204	27534
804.346	27564
804.488	27511
804.63	27576
804.773	27545
804.915	27568
805.057	27755
805.199	27549
805.341	27610
805.483	27713
805.626	27663
805.768	27557
805.91	27800
806.052	27762
806.194	27637
806.336	27922
806.478	27705
806.62	27747
806.762	27835
806.904	28036
807.046	28268
807.188	28150
807.33	27991
807.472	28318
807.614	28158
807.756	28051
807.898	28006
808.04	28078
808.182	27850
808.324	28105
808.465	28120
808.607	28291
808.749	28405
808.891	28554
809.033	28611
809.174	28421
809.316	28409
809.458	28542
809.6	28306
809.741	28485
809.883	28546
810.025	28672
810.166	28733
810.308	28683
810.45	28607
810.591	28489
810.733	28329
810.875	28382
811.016	28371
811.158	28276
811.299	28436
811.441	28398
811.582	28615
811.724	28554
811.865	28409
812.007	28386
812.148	28417
812.29	28329
812.431	28561
812.573	28611
812.714	28717
812.855	28930
812.997	28908
813.138	29052
813.279	29121
813.421	28812
813.562	28957
813.703	28752
813.845	28607
813.986	28356
814.127	28169
814.268	28147
814.41	28173
814.551	28101
814.692	28070
814.833	28078
814.974	28173
815.115	27956
815.256	28048
815.397	27945
815.539	27945
815.68	27880
815.821	27736
815.962	28010
816.103	27899
816.244	27618
816.385	27728
816.526	27648
816.666	27450
816.807	27431
816.948	27401
817.089	27488
817.23	27450
817.371	27370
817.512	27359
817.653	27420
817.793	27207
817.934	27458
818.075	27389
818.216	27458
818.356	27199
818.497	27439
818.638	27127
818.778	27176
818.919	27066
819.06	27157
819.2	27237
819.341	27382
819.481	27336
819.622	27416
819.762	27770
819.903	27679
820.043	27610
820.184	27450
820.324	27435
820.465	27652
820.605	27416
820.746	27488
820.886	27355
821.026	27447
821.167	27587
821.307	27481
821.447	27481
821.588	27408
821.728	27135
821.868	27131
822.008	26918
822.149	26773
822.289	26883
822.429	26575
822.569	26415
822.709	26708
822.849	26309
822.99	26423
823.13	26263
823.27	26259
823.41	26122
823.55	26267
823.69	26199
823.83	26244
823.97	26046
824.11	25970
824.25	25883
824.389	26012
824.529	26100
824.669	26035
824.809	26092
824.949	26012
825.089	26092
825.228	25932
825.368	25887
825.508	25799
825.648	25849
825.787	25947
825.927	25887
826.067	25955
826.206	25928
826.346	25970
826.485	25997
826.625	25887
826.765	25951
826.904	25951
827.044	25670
827.183	25624
827.323	25445
827.462	25677
827.601	25445
827.741	25601
827.88	25791
828.02	25476
828.159	25590
828.298	25548
828.437	25750
828.577	25419
828.716	25666
828.855	25483
828.994	25350
829.134	25236
829.273	25354
829.412	25160
829.551	25179
829.69	25244
829.829	25301
829.968	25381
830.107	25206
830.246	25247
830.385	25175
830.524	25110
830.663	25099
830.802	25023
830.941	24779
831.08	24970
831.219	25031
831.357	24996
831.496	24939
831.635	24977
831.774	24840
831.913	24722
832.051	24715
832.19	24574
832.329	24585
832.467	24635
832.606	24380
832.744	24429
832.883	24601
833.022	24551
833.16	24608
833.299	24654
833.437	24471
833.576	24646
833.714	24517
833.852	24817
833.991	24620
834.129	24681
834.267	24681
834.406	24787
834.544	24673
834.682	24608
834.821	24536
834.959	24738
835.097	24494
835.235	24707
835.373	24563
835.511	24623
835.65	24342
835.788	24513
835.926	24429
836.064	24270
836.202	24300
836.34	24403
836.478	24414
836.615	24563
836.753	24471
836.891	24460
837.029	24532
837.167	24494
837.305	24292
837.443	24308
837.58	24266
837.718	24376
837.856	24270
837.993	24201
838.131	24254
838.269	24152
838.406	24300
838.544	24011
838.681	23923
838.819	23863
838.956	23843
839.094	23916
839.231	23764
839.369	23836
839.506	24140
839.643	23973
839.781	23733
839.918	23657
840.055	23668
840.193	23767
840.33	23566
840.467	23649
840.604	23638
840.742	23935
840.879	23570
841.016	23581
841.153	23455
841.29	23847
841.427	23577
841.564	23752
841.701	23668
841.838	23630
841.975	23558
842.112	23634
842.249	23528
842.385	23261
842.522	23649
842.659	23433
842.796	23353
842.933	23356
843.069	23395
843.206	23372
843.343	23410
843.479	23474
843.616	23425
843.752	23181
843.889	23227
844.025	23235
844.162	23254
844.298	23372
844.435	23254
844.571	23208
844.708	23204
844.844	23299
844.98	23360
845.117	23288
845.253	23071
845.389	23018
845.525	23132
845.661	23105
845.798	22866
845.934	22976
846.07	22793
846.206	22961
846.342	23132
846.478	22930
846.614	22717
846.75	22561
846.886	22596
847.022	22763
847.158	22782
847.294	22622
847.429	22771
847.565	22622
847.701	22938
847.837	22333
847.972	22329
848.108	22474
848.244	22519
848.379	22287
848.515	22078
848.65	22253
848.786	22211
848.921	22318
849.057	22337
849.192	22382
849.328	22234
849.463	22348
849.598	22109
849.734	22143
849.869	22185
850.004	21949
850.14	21949
850.275	22105
850.41	21926
850.545	21972
850.68	21987
850.815	22029
850.95	21960
851.085	22185
851.22	22188
851.355	21960
851.49	22006
851.625	21972
851.76	21907
851.895	21930
852.03	22006
852.165	21998
852.299	21964
852.434	21956
852.569	22074
852.703	21960
852.838	22124
852.973	22128
853.107	22112
853.242	22002
853.376	21831
853.511	21739
853.645	21743
853.78	21911
853.914	21751
854.048	21762
854.183	21698
854.317	21808
854.451	21915
854.585	21907
854.72	21895
854.854	21968
854.988	21759
855.122	21705
855.256	21690
855.39	21903
855.524	21934
855.658	21876
855.792	21808
855.926	21682
856.06	21785
856.194	21892
856.327	21793
856.461	21690
856.595	21720
856.729	21770
856.862	21964
856.996	21812
857.13	21873
857.263	21983
857.397	21892
857.53	21770
857.664	21789
857.797	21956
857.931	21816
858.064	21873
858.197	21934
858.331	21724
858.464	21755
858.597	21743
858.731	21778
858.864	21808
858.997	21743
859.13	21781
859.263	21892
859.396	21884
859.529	21850
859.662	21762
859.795	21736
859.928	21835
860.061	21930
860.194	22051
860.327	21895
860.46	21842
860.592	21945
860.725	21922
860.858	21975
860.99	21888
861.123	21835
861.256	21800
861.388	21785
861.521	22485
861.653	21747
861.786	21538
861.918	21561
862.05	21720
862.183	21622
862.315	21660
862.447	21789
862.58	21701
862.712	21526
862.844	21553
862.976	21603
863.108	21610
863.24	22025
863.372	21431
863.504	21542
863.636	21481
863.768	21568
863.9	21481
864.032	21431
864.164	21526
864.296	21523
864.428	21679
864.559	21603
864.691	21568
864.823	21614
864.954	21450
865.086	21481
865.217	21447
865.349	21268
865.48	21485
865.612	21431
865.743	21477
865.875	21401
866.006	21321
866.137	21420
866.269	21378
866.4	21477
866.531	21336
866.662	21264
866.793	21272
866.924	21412
867.055	21393
867.186	21351
867.317	21317
867.448	21283
867.579	21336
867.71	21218
867.841	21230
867.972	21389
868.103	21329
868.233	21321
868.364	21378
868.495	21336
868.625	21675
868.756	21701
868.886	21580
869.017	21534
869.147	21728
869.278	21739
869.408	21610
869.539	21671
869.669	21652
869.799	21568
869.929	21690
870.06	21827
870.19	21918
870.32	21812
870.45	21915
870.58	21895
870.71	22162
870.84	21937
870.97	22044
871.1	21994
871.23	22105
871.36	22204
871.489	22223
871.619	22204
871.749	22116
871.879	22158
872.008	22276
872.138	22124
872.267	22204
872.397	21975
872.526	22044
872.656	22158
872.785	22082
872.915	22253
873.044	22306
873.173	22143
873.303	22173
873.432	22356
873.561	22158
873.69	22143
873.819	22215
873.948	22188
874.077	22230
874.206	22150
874.335	22322
874.464	22265
874.593	22516
874.722	22268
874.851	22481
874.979	22394
875.108	22527
875.237	22344
875.365	22291
875.494	22333
875.623	22546
875.751	22333
875.88	22470
876.008	22653
876.136	22592
876.265	22881
876.393	22908
876.521	22797
876.65	22831
876.778	22858
876.906	22797
877.034	22797
877.162	22824
877.29	22668
877.418	22850
877.546	22782
877.674	22702
877.802	22717
877.93	22839
878.058	22733
878.185	22584
878.313	22759
878.441	22831
878.568	22656
878.696	22641
878.824	22805
878.951	22831
879.079	23003
879.206	23037
879.333	23204
879.461	22866
879.588	22930
879.715	22976
879.842	23064
879.97	22828
880.097	22622
880.224	22603
880.351	22645
880.478	22691
880.605	22497
880.732	22523
880.859	22923
880.986	22611
881.112	22698
881.239	22447
881.366	22360
881.493	22303
881.619	22067
881.746	22097
881.872	22120
881.999	22109
882.125	22131
882.252	22025
882.378	22090
882.505	22204
882.631	22017
882.757	21812
882.883	22021
883.01	21918
883.136	21766
883.262	21694
883.388	21774
883.514	21812
883.64	21884
883.766	21774
883.892	21618
884.018	21568
884.143	21728
884.269	21876
884.395	21606
884.52	21496
884.646	21473
884.772	21447
884.897	21458
885.023	21473
885.148	21534
885.274	21663
885.399	21519
885.524	21416
885.65	21454
885.775	21564
885.9	21431
886.025	21690
886.15	21690
886.275	21393
886.4	21370
886.525	21481
886.65	21393
886.775	21329
886.9	21671
887.025	21720
887.149	21344
887.274	21306
887.399	21294
887.523	21302
887.648	21119
887.773	21188
887.897	21348
888.021	21332
888.146	21100
888.27	21351
888.395	21241
888.519	21329
888.643	21336
888.767	21302
888.891	21268
889.015	21017
889.139	21116
889.263	21089
889.387	21062
889.511	21401
889.635	21165
889.759	21089
889.883	21020
890.006	21066
890.13	21123
890.254	21001
890.377	20990
890.501	20807
890.624	20697
890.748	20769
890.871	20693
890.995	20655
891.118	20473
891.241	20556
891.364	20473
891.488	20826
891.611	20583
891.734	20632
891.857	20602
891.98	20594
892.103	20636
892.226	20632
892.349	20648
892.471	20377
892.594	20590
892.717	20526
892.839	20442
892.962	20419
893.085	20564
893.207	20351
893.33	20343
893.452	20492
893.575	20705
893.697	20492
893.819	20590
893.941	20579
894.064	20571
894.186	20507
894.308	20324
894.43	20575
894.552	20701
894.674	20571
894.796	20336
894.918	20419
895.04	20526
895.161	20568
895.283	20457
895.405	20552
895.526	20495
895.648	20465
895.769	20396
895.891	20446
896.012	20686
896.134	20606
896.255	20511
896.376	20442
896.498	20461
896.619	20522
896.74	20511
896.861	20549
896.982	20819
897.103	20963
897.224	20823
897.345	20720
897.466	20594
897.587	20830
897.708	20834
897.828	20781
897.949	20674
898.07	20499
898.19	20632
898.311	20777
898.431	20674
898.552	20785
898.672	20834
898.792	20731
898.913	20804
899.033	20686
899.153	20537
899.273	20389
899.393	20450
899.513	20442
899.633	20419
899.753	20587
899.873	20366
899.993	20556
900.113	20278
900.232	20556
900.352	20446
900.472	20343
900.591	20172
900.711	20218
900.83	20142
900.95	20248
901.069	20309
901.189	20130
901.308	20001
901.427	19811
901.546	19909
901.665	19845
901.784	19868
901.904	19624
902.023	19529
902.141	19453
902.26	19407
902.379	19480
902.498	19278
902.617	19244
902.735	19304
902.854	19217
902.973	19221
903.091	19057
903.21	19023
903.328	19004
903.446	18859
903.565	18810
903.683	18760
903.801	18768
903.919	18722
904.038	18665
904.156	18654
904.274	18715
904.392	18502
904.51	18483
904.627	18563
904.745	18631
904.863	18570
904.981	18357
905.098	18224
905.216	18182
905.334	18369
905.451	18182
905.569	18110
905.686	18300
905.803	18095
905.921	18060
906.038	18167
906.155	18045
906.272	17920
906.389	17882
906.506	17764
906.623	17703
906.74	17798
906.857	17611
906.974	17585
907.091	17840
907.208	17851
907.324	17733
907.441	17707
907.557	17509
907.674	17493
907.79	17471
907.907	17486
908.023	17414
908.139	17486
908.256	17311
908.372	17303
908.488	17379
908.604	17208
908.72	17181
908.836	17208
908.952	17223
909.068	17273
909.184	17341
909.3	17113
909.415	17041
909.531	17178
909.647	16938
909.762	16908
909.878	16847
909.993	16831
910.108	16850
910.224	16805
910.339	16885
910.454	16771
910.57	16641
910.685	16596
910.8	16824
910.915	16809
911.03	16641
911.145	16531
911.259	16558
911.374	16424
911.489	16276
911.604	16398
911.718	16230
911.833	16211
911.947	16215
912.062	16036
912.176	16268
912.291	16291
912.405	16204
912.519	16303
912.633	16447
912.748	16223
912.862	16166
912.976	16017
913.09	15884
913.204	15941
913.318	16074
913.431	16143
913.545	16116
913.659	16204
913.772	15930
913.886	15907
914	15736
914.113	16013
914.226	15987
914.34	15918
914.453	15713
914.566	15812
914.68	15629
914.793	15610
914.906	15584
915.019	15389
915.132	15344
915.245	15401
915.358	15447
915.47	15443
915.583	15450
915.696	15382
915.809	15606
915.921	15545
916.034	15416
916.146	15317
916.259	15363
916.371	15496
916.483	15386
916.595	15218
916.708	15214
916.82	15306
916.932	15252
917.044	15237
917.156	15119
917.268	15039
917.38	15028
917.491	15017
917.603	15066
917.715	15085
917.826	15146
917.938	14960
918.049	14948
918.161	14982
918.272	15169
918.384	15199
918.495	15005
918.606	14864
918.717	14720
918.828	14788
918.939	14876
919.05	14693
919.161	14739
919.272	14606
919.383	14682
919.494	14823
919.604	14998
919.715	14788
919.826	14678
919.936	14739
920.047	14941
920.157	14754
920.267	14937
920.378	14804
920.488	14746
920.598	15036
920.708	15055
920.818	14933
920.928	14861
921.038	15047
921.148	15097
921.258	14667
921.368	14716
921.477	14511
921.587	14434
921.697	14377
921.806	14533
921.916	14324
922.025	14233
922.134	14161
922.244	14081
922.353	14199
922.462	14031
922.571	13913
922.68	13795
922.789	13647
922.898	13757
923.007	13761
923.116	13818
923.224	13765
923.333	13814
923.442	13655
923.55	13651
923.659	13567
923.767	13685
923.876	13628
923.984	13537
924.092	13521
924.201	13586
924.309	13525
924.417	13483
924.525	13464
924.633	13388
924.741	14393
924.849	13217
924.956	13350
925.064	13221
925.172	13171
925.279	13270
925.387	13179
925.494	13152
925.602	13350
925.709	13213
925.816	13076
925.924	13088
926.031	13251
926.138	13129
926.245	13145
926.352	13023
926.459	13118
926.566	13156
926.673	13114
926.779	12928
926.886	12954
926.993	12783
927.099	12817
927.206	12688
927.312	12734
927.419	12760
927.525	12779
927.631	12730
927.737	12528
927.843	12597
927.95	12506
928.056	12627
928.162	12517
928.267	12608
928.373	13213
928.479	12559
928.585	12388
928.69	12528
928.796	12540
928.901	12479
929.007	12228
929.112	12407
929.218	12323
929.323	12353
929.428	12327
929.533	12369
929.638	12228
929.743	12205
929.848	12251
929.953	12190
930.058	12140
930.163	11984
930.267	11958
930.372	12133
930.477	11904
930.581	12205
930.685	12114
930.79	11779
930.894	11840
930.998	11866
931.103	11942
931.207	11615
931.311	11524
931.415	11395
931.519	11261
931.623	11185
