Data from test_V78500241_2124.txt Node
Date: Fri Mar 25 15:56:30 CST 2022
User: usil
Spectrometer: V785-0024
Trigger mode: 0
Integration Time (sec): 4.000000E-1
Scans to average: 1
Nonlinearity correction enabled: false
Boxcar width: 0
Storing dark spectrum: false
XAxis mode: Wavelengths
Number of Pixels in Spectrum: 1024
>>>>>Begin Spectral Data<<<<<
801.071	28835
801.214	28904
801.356	28725
801.499	28523
801.641	28390
801.783	28443
801.926	28698
802.068	28424
802.211	28390
802.353	28325
802.496	28394
802.638	28196
802.78	28078
802.923	28139
803.065	28090
803.208	28097
803.35	28116
803.492	28337
803.635	28451
803.777	28344
803.919	28527
804.061	28672
804.204	28542
804.346	28348
804.488	28371
804.63	28478
804.773	28386
804.915	28561
805.057	28687
805.199	28451
805.341	28443
805.483	28672
805.626	28557
805.768	28440
805.91	28493
806.052	28634
806.194	28546
806.336	28725
806.478	28622
806.62	28637
806.762	28748
806.904	28930
807.046	29105
807.188	29098
807.33	28965
807.472	29162
807.614	29025
807.756	28984
807.898	28915
808.04	28771
808.182	28942
808.324	29006
808.465	29094
808.607	29064
808.749	29341
808.891	29379
809.033	29429
809.174	29246
809.316	29189
809.458	29322
809.6	29345
809.741	29551
809.883	29391
810.025	29676
810.166	29722
810.308	29737
810.45	29531
810.591	29474
810.733	29360
810.875	29558
811.016	29242
811.158	29258
811.299	29341
811.441	29387
811.582	29360
811.724	29402
811.865	29315
812.007	29299
812.148	29197
812.29	29410
812.431	29478
812.573	29710
812.714	29828
812.855	29767
812.997	29805
813.138	30003
813.279	30007
813.421	29950
813.562	29927
813.703	29630
813.845	29520
813.986	29311
814.127	29220
814.268	28946
814.41	29044
814.551	29029
814.692	29029
814.833	29029
814.974	29029
815.115	28938
815.256	28885
815.397	28862
815.539	29014
815.68	28843
815.821	28805
815.962	28801
816.103	28904
816.244	28672
816.385	28683
816.526	28588
816.666	28428
816.807	28306
816.948	28424
817.089	28500
817.23	28325
817.371	28371
817.512	28299
817.653	28432
817.793	28310
817.934	28367
818.075	28421
818.216	28401
818.356	28284
818.497	28257
818.638	28147
818.778	28105
818.919	28337
819.06	28188
819.2	28150
819.341	28322
819.481	28310
819.622	28573
819.762	28733
819.903	28630
820.043	28569
820.184	28618
820.324	28512
820.465	28706
820.605	28497
820.746	28577
820.886	28242
821.026	28504
821.167	28596
821.307	28440
821.447	28432
821.588	28295
821.728	28424
821.868	28044
822.008	27865
822.149	27854
822.289	27903
822.429	27603
822.569	27549
822.709	27488
822.849	27469
822.99	27344
823.13	27329
823.27	27389
823.41	27058
823.55	27036
823.69	27256
823.83	27154
823.97	27192
824.11	27070
824.25	26899
824.389	27028
824.529	27100
824.669	27108
824.809	27207
824.949	27146
825.089	27070
825.228	27096
825.368	26845
825.508	26883
825.648	26948
825.787	27020
825.927	27074
826.067	26918
826.206	26914
826.346	26994
826.485	26952
826.625	26769
826.765	27116
826.904	26914
827.044	26739
827.183	26708
827.323	26564
827.462	26682
827.601	26659
827.741	26514
827.88	26640
828.02	26659
828.159	26571
828.298	26632
828.437	26663
828.577	26514
828.716	26613
828.855	26396
828.994	26355
829.134	26332
829.273	26275
829.412	26358
829.551	26233
829.69	26366
829.829	26317
829.968	26434
830.107	26324
830.246	26271
830.385	26130
830.524	26252
830.663	26187
830.802	26145
830.941	25894
831.08	25837
831.219	25883
831.357	25959
831.496	26142
831.635	25974
831.774	25894
831.913	25875
832.051	25719
832.19	25708
832.329	25575
832.467	25693
832.606	25594
832.744	25548
832.883	25616
833.022	25525
833.16	25700
833.299	25677
833.437	25544
833.576	25666
833.714	25674
833.852	25613
833.991	25689
834.129	25734
834.267	25700
834.406	25753
834.544	25643
834.682	25788
834.821	25609
834.959	25849
835.097	25559
835.235	25662
835.373	25552
835.511	25578
835.65	25468
835.788	25419
835.926	25274
836.064	25324
836.202	25069
836.34	25438
836.478	25506
836.615	25411
836.753	25468
836.891	25548
837.029	25464
837.167	25400
837.305	25312
837.443	25213
837.58	25244
837.718	25320
837.856	25297
837.993	25137
838.131	25282
838.269	25080
838.406	25217
838.544	25152
838.681	24856
838.819	24939
838.956	24783
839.094	24726
839.231	24711
839.369	24844
839.506	25202
839.643	24962
839.781	24829
839.918	24658
840.055	24806
840.193	24783
840.33	24650
840.467	24726
840.604	24783
840.742	25046
840.879	24502
841.016	24544
841.153	24505
841.29	24795
841.427	24681
841.564	24589
841.701	24502
841.838	24658
841.975	24460
842.112	24521
842.249	24464
842.385	24334
842.522	24715
842.659	24350
842.796	24445
842.933	24486
843.069	24399
843.206	24334
843.343	24513
843.479	24467
843.616	24403
843.752	24201
843.889	24136
844.025	24289
844.162	24194
844.298	24350
844.435	24205
844.571	24125
844.708	24220
844.844	24342
844.98	24300
845.117	24395
845.253	24220
845.389	23977
845.525	24057
845.661	24038
845.798	23923
845.934	23973
846.07	23885
846.206	23889
846.342	24068
846.478	23840
846.614	23775
846.75	23604
846.886	23756
847.022	23710
847.158	23672
847.294	23570
847.429	23665
847.565	23577
847.701	23809
847.837	23490
847.972	23246
848.108	23349
848.244	23497
848.379	23208
848.515	23166
848.65	23086
848.786	23254
848.921	23292
849.057	23372
849.192	23330
849.328	23269
849.463	23159
849.598	23117
849.734	23090
849.869	23025
850.004	22946
850.14	23105
850.275	22915
850.41	22908
850.545	22938
850.68	22923
850.815	23124
850.95	23052
851.085	23022
851.22	23147
851.355	22995
851.49	22949
851.625	22965
851.76	23041
851.895	22946
852.03	22824
852.165	22965
852.299	22999
852.434	23037
852.569	22942
852.703	22923
852.838	23083
852.973	23037
853.107	22919
853.242	22923
853.376	22858
853.511	22793
853.645	22664
853.78	22892
853.914	22839
854.048	22683
854.183	22782
854.317	22915
854.451	23025
854.585	22987
854.72	22797
854.854	22786
854.988	22664
855.122	22809
855.256	22767
855.39	22850
855.524	22915
855.658	22824
855.792	22835
855.926	22824
856.06	22858
856.194	22923
856.327	22862
856.461	22767
856.595	22683
856.729	22862
856.862	22862
856.996	22816
857.13	22892
857.263	22809
857.397	22847
857.53	22767
857.664	22790
857.797	22782
857.931	22919
858.064	22919
858.197	22961
858.331	22759
858.464	22809
858.597	22771
858.731	22755
858.864	22862
858.997	22721
859.13	22854
859.263	22782
859.396	22946
859.529	22721
859.662	22790
859.795	22816
859.928	22771
860.061	22797
860.194	22938
860.327	22774
860.46	22809
860.592	22877
860.725	22965
860.858	23022
860.99	22854
861.123	22736
861.256	22801
861.388	22812
861.521	23440
861.653	22683
861.786	22459
861.918	22607
862.05	22702
862.183	22812
862.315	22713
862.447	22748
862.58	22763
862.712	22516
862.844	22360
862.976	22645
863.108	22580
863.24	22896
863.372	22485
863.504	22531
863.636	22428
863.768	22546
863.9	22493
864.032	22413
864.164	22402
864.296	22516
864.428	22527
864.559	22550
864.691	22538
864.823	22497
864.954	22489
865.086	22516
865.217	22504
865.349	22314
865.48	22261
865.612	22386
865.743	22466
865.875	22344
866.006	22322
866.137	22386
866.269	22413
866.4	22322
866.531	22348
866.662	22257
866.793	22234
866.924	22363
867.055	22390
867.186	22341
867.317	22257
867.448	22242
867.579	22219
867.71	22124
867.841	22253
867.972	22371
868.103	22341
868.233	22287
868.364	22272
868.495	22329
868.625	22459
868.756	22603
868.886	22485
869.017	22466
869.147	22569
869.278	22630
869.408	22497
869.539	22436
869.669	22557
869.799	22485
869.929	22607
870.06	22527
870.19	22793
870.32	22831
870.45	22782
870.58	22930
870.71	22938
870.84	22984
870.97	22984
871.1	23018
871.23	23159
871.36	23083
871.489	23003
871.619	23025
871.749	23064
871.879	23231
872.008	23242
872.138	23124
872.267	23132
872.397	23041
872.526	22923
872.656	22831
872.785	23010
872.915	23185
873.044	23155
873.173	23086
873.303	23204
873.432	23254
873.561	23220
873.69	23079
873.819	23140
873.948	23227
874.077	23128
874.206	23105
874.335	23117
874.464	23277
874.593	23455
874.722	23299
874.851	23318
874.979	23364
875.108	23360
875.237	23250
875.365	23288
875.494	23220
875.623	23444
875.751	23220
875.88	23448
876.008	23581
876.136	23592
876.265	23764
876.393	23897
876.521	23897
876.65	23893
876.778	23764
876.906	23756
877.034	23642
877.162	23707
877.29	23627
877.418	23608
877.546	23863
877.674	23699
877.802	23646
877.93	23680
878.058	23707
878.185	23615
878.313	23649
878.441	23843
878.568	23490
878.696	23604
878.824	23608
878.951	23817
879.079	23965
879.206	23954
879.333	23828
879.461	23726
879.588	23828
879.715	23802
879.842	23950
879.97	23809
880.097	23528
880.224	23501
880.351	23452
880.478	23516
880.605	23440
880.732	23558
880.859	23585
880.986	23459
881.112	23558
881.239	23398
881.366	23216
881.493	23193
881.619	23064
881.746	23094
881.872	23170
881.999	23041
882.125	23003
882.252	23079
882.378	23056
882.505	23159
882.631	22778
882.757	22729
882.883	22938
883.01	22782
883.136	22713
883.262	22706
883.388	22603
883.514	22771
883.64	22782
883.766	22755
883.892	22569
884.018	22584
884.143	22694
884.269	22660
884.395	22493
884.52	22276
884.646	22379
884.772	22341
884.897	22329
885.023	22382
885.148	22542
885.274	22485
885.399	22485
885.524	22440
885.65	22360
885.775	22363
885.9	22405
886.025	22546
886.15	22394
886.275	22299
886.4	22348
886.525	22329
886.65	22204
886.775	22185
886.9	22519
887.025	22653
887.149	22363
887.274	22188
887.399	22090
887.523	22162
887.648	22120
887.773	21975
887.897	22284
888.021	22181
888.146	22059
888.27	22192
888.395	22230
888.519	22158
888.643	22226
888.767	22150
888.891	22002
889.015	21975
889.139	22013
889.263	21762
889.387	22074
889.511	22090
889.635	22017
889.759	21922
889.883	21869
890.006	21842
890.13	21869
890.254	21766
890.377	21717
890.501	21561
890.624	21682
890.748	21694
890.871	21679
890.995	21397
891.118	21439
891.241	21530
891.364	21496
891.488	21576
891.611	21534
891.734	21488
891.857	21507
891.98	21500
892.103	21435
892.226	21351
892.349	21359
892.471	21264
892.594	21416
892.717	21488
892.839	21317
892.962	21412
893.085	21428
893.207	21313
893.33	21203
893.452	21226
893.575	21405
893.697	21317
893.819	21450
893.941	21542
894.064	21359
894.186	21321
894.308	21123
894.43	21450
894.552	21450
894.674	21313
894.796	21336
894.918	21340
895.04	21279
895.161	21329
895.283	21260
895.405	21283
895.526	21367
895.648	21192
895.769	21310
895.891	21336
896.012	21428
896.134	21176
896.255	21393
896.376	21256
896.498	21412
896.619	21351
896.74	21382
896.861	21340
896.982	21641
897.103	21759
897.224	21557
897.345	21568
897.466	21462
897.587	21462
897.708	21679
897.828	21614
897.949	21450
898.07	21302
898.19	21424
898.311	21561
898.431	21454
898.552	21488
898.672	21545
898.792	21641
898.913	21462
899.033	21416
899.153	21321
899.273	21230
899.393	21260
899.513	21272
899.633	21351
899.753	21291
899.873	21157
899.993	21264
900.113	21195
900.232	21169
900.352	21058
900.472	21020
900.591	21032
900.711	20971
900.83	20819
900.95	21112
901.069	20994
901.189	20849
901.308	20823
901.427	20625
901.546	20727
901.665	20564
901.784	20632
901.904	20347
902.023	20294
902.141	20149
902.26	20130
902.379	20138
902.498	20039
902.617	20096
902.735	20092
902.854	20031
902.973	19955
903.091	19639
903.21	19715
903.328	19723
903.446	19635
903.565	19609
903.683	19487
903.801	19449
903.919	19441
904.038	19495
904.156	19217
904.274	19278
904.392	19244
904.51	19285
904.627	19297
904.745	19282
904.863	19266
904.981	18989
905.098	19015
905.216	19031
905.334	18951
905.451	19034
905.569	18985
905.686	18829
905.803	18939
905.921	18715
906.038	18856
906.155	18734
906.272	18627
906.389	18631
906.506	18540
906.623	18452
906.74	18521
906.857	18369
906.974	18437
907.091	18456
907.208	18601
907.324	18498
907.441	18357
907.557	18300
907.674	18174
907.79	18121
907.907	18057
908.023	18232
908.139	18163
908.256	18148
908.372	18083
908.488	17935
908.604	17840
908.72	17851
908.836	17977
908.952	17912
909.068	17969
909.184	18022
909.3	17855
909.415	17954
909.531	17840
909.647	17570
909.762	17630
909.878	17608
909.993	17722
910.108	17497
910.224	17505
910.339	17524
910.454	17448
910.57	17395
910.685	17284
910.8	17680
910.915	17395
911.03	17318
911.145	17181
911.259	17178
911.374	17094
911.489	17136
911.604	17071
911.718	16854
911.833	16980
911.947	16774
912.062	16755
912.176	16858
912.291	16873
912.405	16957
912.519	17048
912.633	17052
912.748	16927
912.862	16793
912.976	16668
913.09	16698
913.204	16653
913.318	16767
913.431	16748
913.545	16809
913.659	16710
913.772	16596
913.886	16455
914	16432
914.113	16565
914.226	16626
914.34	16394
914.453	16386
914.566	16478
914.68	16402
914.793	16371
914.906	16120
915.019	16112
915.132	15983
915.245	16002
915.358	16059
915.47	16169
915.583	16086
915.696	16093
915.809	16177
915.921	16188
916.034	15953
916.146	15991
916.259	15934
916.371	16067
916.483	15937
916.595	15819
916.708	15918
916.82	15854
916.932	15827
917.044	15766
917.156	15774
917.268	15663
917.38	15743
917.491	15637
917.603	15622
917.715	15538
917.826	15812
917.938	15591
918.049	15561
918.161	15660
918.272	15705
918.384	15751
918.495	15675
918.606	15492
918.717	15382
918.828	15485
918.939	15504
919.05	15340
919.161	15382
919.272	15135
919.383	15214
919.494	15435
919.604	15515
919.715	15389
919.826	15249
919.936	15313
920.047	15370
920.157	15317
920.267	15553
920.378	15382
920.488	15332
920.598	15568
920.708	15633
920.818	15443
920.928	15443
921.038	15663
921.148	15561
921.258	15222
921.368	15135
921.477	14998
921.587	15032
921.697	15009
921.806	15043
921.916	14967
922.025	14762
922.134	14606
922.244	14587
922.353	14743
922.462	14507
922.571	14579
922.68	14393
922.789	14259
922.898	14415
923.007	14290
923.116	14332
923.224	14271
923.333	14332
923.442	14214
923.55	14240
923.659	14168
923.767	14252
923.876	14077
923.984	14229
924.092	14119
924.201	14077
924.309	14130
924.417	14107
924.525	13871
924.633	13993
924.741	14682
924.849	13696
924.956	13837
925.064	13780
925.172	13674
925.279	13719
925.387	13803
925.494	13708
925.602	13837
925.709	13830
925.816	13597
925.924	13689
926.031	13723
926.138	13700
926.245	13689
926.352	13464
926.459	13685
926.566	13651
926.673	13548
926.779	13487
926.886	13457
926.993	13343
927.099	13263
927.206	13118
927.312	13168
927.419	13335
927.525	13301
927.631	13244
927.737	13095
927.843	13034
927.95	12989
928.056	13042
928.162	13099
928.267	13160
928.373	13693
928.479	13065
928.585	12844
928.69	12985
928.796	13019
928.901	12920
929.007	12802
929.112	13012
929.218	12859
929.323	12852
929.428	12757
929.533	12875
929.638	12700
929.743	12681
929.848	12791
929.953	12791
930.058	12479
930.163	12330
930.267	12407
930.372	12593
930.477	12388
930.581	12623
930.685	12467
930.79	12342
930.894	12353
930.998	12262
931.103	12502
931.207	12060
931.311	12022
931.415	11889
931.519	11718
931.623	11684
