Data from test_V78500241_2262.txt Node
Date: Fri Mar 25 15:57:28 CST 2022
User: usil
Spectrometer: V785-0024
Trigger mode: 0
Integration Time (sec): 4.000000E-1
Scans to average: 1
Nonlinearity correction enabled: false
Boxcar width: 0
Storing dark spectrum: false
XAxis mode: Wavelengths
Number of Pixels in Spectrum: 1024
>>>>>Begin Spectral Data<<<<<
801.071	29155
801.214	29060
801.356	28831
801.499	28946
801.641	28805
801.783	28687
801.926	28820
802.068	28843
802.211	28721
802.353	28683
802.496	28462
802.638	28451
802.78	28447
802.923	28295
803.065	28226
803.208	28379
803.35	28386
803.492	28641
803.635	28607
803.777	28542
803.919	28721
804.061	28999
804.204	28755
804.346	28782
804.488	28668
804.63	28519
804.773	28668
804.915	28828
805.057	28850
805.199	28706
805.341	28801
805.483	28869
805.626	28778
805.768	28843
805.91	28904
806.052	28835
806.194	28930
806.336	29006
806.478	28919
806.62	29018
806.762	28976
806.904	29121
807.046	29474
807.188	29322
807.33	29299
807.472	29433
807.614	29220
807.756	29311
807.898	29204
808.04	29227
808.182	29124
808.324	29216
808.465	29227
808.607	29509
808.749	29745
808.891	29764
809.033	29897
809.174	29767
809.316	29520
809.458	29581
809.6	29585
809.741	29691
809.883	29756
810.025	29824
810.166	29862
810.308	29836
810.45	29817
810.591	29786
810.733	29570
810.875	29661
811.016	29566
811.158	29531
811.299	29718
811.441	29752
811.582	29790
811.724	29699
811.865	29703
812.007	29699
812.148	29752
812.29	29524
812.431	29790
812.573	30064
812.714	30041
812.855	30197
812.997	30209
813.138	30422
813.279	30376
813.421	30087
813.562	30053
813.703	29946
813.845	29942
813.986	29722
814.127	29486
814.268	29433
814.41	29360
814.551	29318
814.692	29258
814.833	29277
814.974	29326
815.115	29535
815.256	29311
815.397	29170
815.539	29143
815.68	29159
815.821	29151
815.962	29227
816.103	29079
816.244	29083
816.385	28972
816.526	28949
816.666	28744
816.807	28725
816.948	28649
817.089	28630
817.23	28687
817.371	28569
817.512	28725
817.653	28744
817.793	28550
817.934	28809
818.075	28584
818.216	28653
818.356	28679
818.497	28630
818.638	28485
818.778	28341
818.919	28588
819.06	28599
819.2	28519
819.341	28634
819.481	28736
819.622	28854
819.762	29102
819.903	28850
820.043	28904
820.184	28725
820.324	28816
820.465	28968
820.605	28866
820.746	28866
820.886	28653
821.026	28786
821.167	28778
821.307	28869
821.447	28710
821.588	28611
821.728	28447
821.868	28432
822.008	28249
822.149	28055
822.289	28124
822.429	27899
822.569	27880
822.709	27823
822.849	27671
822.99	27774
823.13	27663
823.27	27591
823.41	27538
823.55	27401
823.69	27496
823.83	27488
823.97	27466
824.11	27329
824.25	27237
824.389	27329
824.529	27439
824.669	27408
824.809	27587
824.949	27412
825.089	27344
825.228	27450
825.368	27142
825.508	27218
825.648	27268
825.787	27241
825.927	27370
826.067	27226
826.206	27222
826.346	27169
826.485	27291
826.625	27268
826.765	27443
826.904	27363
827.044	26998
827.183	27051
827.323	26982
827.462	26940
827.601	26971
827.741	26826
827.88	26929
828.02	26849
828.159	26902
828.298	26883
828.437	27142
828.577	26868
828.716	26975
828.855	26876
828.994	26613
829.134	26720
829.273	26674
829.412	26609
829.551	26598
829.69	26686
829.829	26815
829.968	26781
830.107	26705
830.246	26686
830.385	26640
830.524	26568
830.663	26370
830.802	26347
830.941	26221
831.08	26153
831.219	26309
831.357	26252
831.496	26396
831.635	26305
831.774	26183
831.913	26073
832.051	26054
832.19	25993
832.329	25944
832.467	26020
832.606	25898
832.744	25887
832.883	25849
833.022	25799
833.16	25944
833.299	25909
833.437	25871
833.576	26043
833.714	25978
833.852	25944
833.991	26084
834.129	26031
834.267	25989
834.406	25902
834.544	25917
834.682	25970
834.821	25883
834.959	26119
835.097	25940
835.235	26005
835.373	25970
835.511	25791
835.65	25795
835.788	25845
835.926	25685
836.064	25795
836.202	25670
836.34	25788
836.478	25890
836.615	25750
836.753	25769
836.891	25841
837.029	25742
837.167	25685
837.305	25693
837.443	25655
837.58	25571
837.718	25613
837.856	25700
837.993	25479
838.131	25628
838.269	25400
838.406	25521
838.544	25502
838.681	25194
838.819	25126
838.956	24939
839.094	25004
839.231	25148
839.369	25187
839.506	25407
839.643	25293
839.781	25133
839.918	25000
840.055	25031
840.193	24951
840.33	24935
840.467	24859
840.604	25057
840.742	25244
840.879	24798
841.016	24966
841.153	24802
841.29	25084
841.427	24932
841.564	24992
841.701	24894
841.838	24852
841.975	25008
842.112	24958
842.249	24722
842.385	24795
842.522	24947
842.659	24681
842.796	24749
842.933	24745
843.069	24722
843.206	24593
843.343	24741
843.479	24646
843.616	24688
843.752	24467
843.889	24505
844.025	24570
844.162	24547
844.298	24597
844.435	24494
844.571	24502
844.708	24589
844.844	24692
844.98	24627
845.117	24563
845.253	24513
845.389	24327
845.525	24388
845.661	24330
845.798	24319
845.934	24220
846.07	24152
846.206	24121
846.342	24213
846.478	24148
846.614	24064
846.75	23901
846.886	23779
847.022	23870
847.158	24022
847.294	24015
847.429	23965
847.565	23885
847.701	24178
847.837	23756
847.972	23699
848.108	23718
848.244	23809
848.379	23638
848.515	23543
848.65	23414
848.786	23467
848.921	23531
849.057	23661
849.192	23627
849.328	23615
849.463	23482
849.598	23482
849.734	23353
849.869	23391
850.004	23292
850.14	23417
850.275	23277
850.41	23117
850.545	23273
850.68	23322
850.815	23372
850.95	23303
851.085	23326
851.22	23414
851.355	23239
851.49	23277
851.625	23303
851.76	23239
851.895	23311
852.03	23258
852.165	23315
852.299	23299
852.434	23474
852.569	23273
852.703	23227
852.838	23379
852.973	23467
853.107	23429
853.242	23174
853.376	23140
853.511	23071
853.645	23029
853.78	23303
853.914	23151
854.048	23048
854.183	23056
854.317	23227
854.451	23356
854.585	23056
854.72	23018
854.854	23334
854.988	23044
855.122	23102
855.256	23006
855.39	23132
855.524	23174
855.658	23124
855.792	23105
855.926	23109
856.06	23208
856.194	23181
856.327	23102
856.461	23109
856.595	22999
856.729	23147
856.862	23121
856.996	23041
857.13	23098
857.263	23269
857.397	23117
857.53	23022
857.664	23185
857.797	23140
857.931	23094
858.064	23140
858.197	23242
858.331	23185
858.464	22995
858.597	22995
858.731	23022
858.864	23037
858.997	22968
859.13	23018
859.263	23166
859.396	23197
859.529	23041
859.662	23056
859.795	23094
859.928	23098
860.061	23315
860.194	23376
860.327	23242
860.46	23086
860.592	23254
860.725	23197
860.858	23273
860.99	23044
861.123	23018
861.256	22938
861.388	23044
861.521	23646
861.653	22984
861.786	22915
861.918	22942
862.05	23037
862.183	22980
862.315	23014
862.447	23052
862.58	22976
862.712	22805
862.844	22679
862.976	22828
863.108	22793
863.24	23223
863.372	22637
863.504	22812
863.636	22790
863.768	22778
863.9	22835
864.032	22618
864.164	22740
864.296	22782
864.428	22797
864.559	22862
864.691	22816
864.823	22786
864.954	22759
865.086	22679
865.217	22790
865.349	22630
865.48	22713
865.612	22713
865.743	22771
865.875	22618
866.006	22721
866.137	22656
866.269	22519
866.4	22630
866.531	22626
866.662	22573
866.793	22546
866.924	22588
867.055	22656
867.186	22569
867.317	22546
867.448	22394
867.579	22512
867.71	22550
867.841	22394
867.972	22508
868.103	22527
868.233	22656
868.364	22542
868.495	22596
868.625	22816
868.756	22961
868.886	22729
869.017	22869
869.147	22957
869.278	22972
869.408	22801
869.539	22805
869.669	22968
869.799	22820
869.929	22934
870.06	22915
870.19	23140
870.32	23151
870.45	23166
870.58	23223
870.71	23379
870.84	23216
870.97	23151
871.1	23220
871.23	23368
871.36	23436
871.489	23322
871.619	23284
871.749	23280
871.879	23387
872.008	23554
872.138	23402
872.267	23467
872.397	23189
872.526	23292
872.656	23235
872.785	23181
872.915	23398
873.044	23535
873.173	23455
873.303	23531
873.432	23512
873.561	23589
873.69	23364
873.819	23391
873.948	23410
874.077	23425
874.206	23440
874.335	23383
874.464	23452
874.593	23608
874.722	23581
874.851	23653
874.979	23642
875.108	23767
875.237	23623
875.365	23501
875.494	23657
875.623	23695
875.751	23573
875.88	23528
876.008	23691
876.136	23707
876.265	24022
876.393	24155
876.521	24076
876.65	23980
876.778	24003
876.906	23942
877.034	23958
877.162	24018
877.29	23908
877.418	24129
877.546	23984
877.674	24057
877.802	23904
877.93	23843
878.058	23817
878.185	23783
878.313	23847
878.441	23992
878.568	23809
878.696	23901
878.824	24064
878.951	24102
879.079	24098
879.206	24190
879.333	24129
879.461	23958
879.588	24064
879.715	24079
879.842	24277
879.97	23988
880.097	23840
880.224	23653
880.351	23836
880.478	23859
880.605	23661
880.732	23824
880.859	24049
880.986	23695
881.112	23809
881.239	23638
881.366	23589
881.493	23433
881.619	23349
881.746	23299
881.872	23398
881.999	23242
882.125	23330
882.252	23307
882.378	23235
882.505	23433
882.631	23250
882.757	23075
882.883	23086
883.01	22904
883.136	22942
883.262	22919
883.388	22930
883.514	22938
883.64	23102
883.766	22885
883.892	22763
884.018	22869
884.143	22831
884.269	23075
884.395	22713
884.52	22577
884.646	22656
884.772	22645
884.897	22504
885.023	22523
885.148	22797
885.274	22767
885.399	22691
885.524	22584
885.65	22588
885.775	22618
885.9	22577
886.025	22683
886.15	22577
886.275	22611
886.4	22573
886.525	22626
886.65	22485
886.775	22622
886.9	22649
887.025	22934
887.149	22592
887.274	22398
887.399	22500
887.523	22314
887.648	22314
887.773	22177
887.897	22557
888.021	22390
888.146	22360
888.27	22443
888.395	22367
888.519	22257
888.643	22390
888.767	22474
888.891	22356
889.015	22257
889.139	22287
889.263	22120
889.387	22196
889.511	22409
889.635	22261
889.759	22105
889.883	22238
890.006	22120
890.13	22211
890.254	22032
890.377	22055
890.501	21991
890.624	21918
890.748	21915
890.871	21793
890.995	21648
891.118	21717
891.241	21770
891.364	21568
891.488	21751
891.611	21671
891.734	21663
891.857	21797
891.98	21717
892.103	21759
892.226	21652
892.349	21553
892.471	21424
892.594	21530
892.717	21671
892.839	21561
892.962	21618
893.085	21644
893.207	21656
893.33	21523
893.452	21504
893.575	21515
893.697	21424
893.819	21595
893.941	21736
894.064	21728
894.186	21557
894.308	21542
894.43	21564
894.552	21679
894.674	21660
894.796	21496
894.918	21587
895.04	21473
895.161	21778
895.283	21641
895.405	21488
895.526	21599
895.648	21492
895.769	21523
895.891	21549
896.012	21724
896.134	21557
896.255	21720
896.376	21473
896.498	21652
896.619	21538
896.74	21553
896.861	21564
896.982	21903
897.103	21903
897.224	21816
897.345	21743
897.466	21793
897.587	21717
897.708	21736
897.828	21781
897.949	21762
898.07	21485
898.19	21797
898.311	21838
898.431	21572
898.552	21850
898.672	21789
898.792	21747
898.913	21804
899.033	21515
899.153	21603
899.273	21515
899.393	21545
899.513	21450
899.633	21412
899.753	21412
899.873	21363
899.993	21408
900.113	21287
900.232	21424
900.352	21310
900.472	21100
900.591	21180
900.711	21291
900.83	21165
900.95	21203
901.069	21329
901.189	21104
901.308	21028
901.427	20815
901.546	20815
901.665	20853
901.784	20788
901.904	20590
902.023	20545
902.141	20248
902.26	20396
902.379	20427
902.498	20320
902.617	20176
902.735	20336
902.854	20164
902.973	20244
903.091	19913
903.21	19921
903.328	20012
903.446	19894
903.565	19719
903.683	19811
903.801	19510
903.919	19639
904.038	19635
904.156	19396
904.274	19464
904.392	19407
904.51	19339
904.627	19392
904.745	19510
904.863	19453
904.981	19266
905.098	19274
905.216	19213
905.334	19285
905.451	19122
905.569	19206
905.686	19187
905.803	19015
905.921	18966
906.038	18989
906.155	19065
906.272	18867
906.389	18772
906.506	18593
906.623	18661
906.74	18658
906.857	18525
906.974	18513
907.091	18757
907.208	18783
907.324	18479
907.441	18570
907.557	18445
907.674	18418
907.79	18376
907.907	18369
908.023	18391
908.139	18410
908.256	18258
908.372	18209
908.488	18224
908.604	18155
908.72	18038
908.836	18068
908.952	17996
909.068	18045
909.184	18220
909.3	18060
909.415	18148
909.531	18106
909.647	17855
909.762	17813
909.878	17748
909.993	17657
910.108	17752
910.224	17779
910.339	17748
910.454	17611
910.57	17486
910.685	17471
910.8	17699
910.915	17699
911.03	17661
911.145	17414
911.259	17372
911.374	17440
911.489	17345
911.604	17090
911.718	17041
911.833	17102
911.947	16991
912.062	16873
912.176	17075
912.291	17147
912.405	16976
912.519	17220
912.633	17200
912.748	17105
912.862	17045
912.976	16885
913.09	16755
913.204	16850
913.318	16900
913.431	16850
913.545	17048
913.659	16946
913.772	16858
913.886	16702
914	16774
914.113	16801
914.226	16759
914.34	16839
914.453	16504
914.566	16687
914.68	16516
914.793	16481
914.906	16382
915.019	16265
915.132	16192
915.245	16169
915.358	16344
915.47	16291
915.583	16215
915.696	16192
915.809	16363
915.921	16230
916.034	16185
916.146	16112
916.259	16025
916.371	16261
916.483	16010
916.595	15937
916.708	16044
916.82	15987
916.932	15994
917.044	15953
917.156	15991
917.268	15842
917.38	15884
917.491	15778
917.603	15865
917.715	15979
917.826	15865
917.938	15774
918.049	15652
918.161	15789
918.272	15956
918.384	15781
918.495	15808
918.606	15603
918.717	15568
918.828	15599
918.939	15587
919.05	15519
919.161	15549
919.272	15310
919.383	15416
919.494	15606
919.604	15728
919.715	15576
919.826	15374
919.936	15454
920.047	15584
920.157	15424
920.267	15701
920.378	15526
920.488	15443
920.598	15713
920.708	15831
920.818	15682
920.928	15557
921.038	15812
921.148	15717
921.258	15526
921.368	15344
921.477	15306
921.587	15256
921.697	15142
921.806	15211
921.916	15116
922.025	14902
922.134	14807
922.244	14823
922.353	14849
922.462	14697
922.571	14640
922.68	14522
922.789	14564
922.898	14404
923.007	14446
923.116	14575
923.224	14454
923.333	14461
923.442	14298
923.55	14298
923.659	14355
923.767	14286
923.876	14176
923.984	14305
924.092	14195
924.201	14157
924.309	14282
924.417	14115
924.525	14069
924.633	14126
924.741	14929
924.849	13906
924.956	14069
925.064	13883
925.172	13887
925.279	13940
925.387	13936
925.494	13921
925.602	14039
925.709	13852
925.816	13776
925.924	13776
926.031	13852
926.138	13742
926.245	13780
926.352	13784
926.459	13723
926.566	13837
926.673	13662
926.779	13605
926.886	13620
926.993	13506
927.099	13407
927.206	13335
927.312	13346
927.419	13362
927.525	13464
927.631	13331
927.737	13282
927.843	13225
927.95	13080
928.056	13206
928.162	13190
928.267	13209
928.373	13890
928.479	13278
928.585	12977
928.69	13213
928.796	13133
928.901	12989
929.007	12863
929.112	12996
929.218	13061
929.323	12886
929.428	12916
929.533	13034
929.638	12939
929.743	12856
929.848	12890
929.953	12791
930.058	12669
930.163	12525
930.267	12635
930.372	12684
930.477	12547
930.581	12719
930.685	12585
930.79	12513
930.894	12467
930.998	12311
931.103	12502
931.207	12072
931.311	12121
931.415	12102
931.519	11802
931.623	11790
