Data from test_V78500241_2527.txt Node
Date: Fri Mar 25 15:59:18 CST 2022
User: usil
Spectrometer: V785-0024
Trigger mode: 0
Integration Time (sec): 4.000000E-1
Scans to average: 1
Nonlinearity correction enabled: false
Boxcar width: 0
Storing dark spectrum: false
XAxis mode: Wavelengths
Number of Pixels in Spectrum: 1024
>>>>>Begin Spectral Data<<<<<
801.071	28824
801.214	28706
801.356	28344
801.499	28371
801.641	28352
801.783	28280
801.926	28276
802.068	28341
802.211	28265
802.353	28280
802.496	27979
802.638	28048
802.78	27873
802.923	27960
803.065	27835
803.208	27956
803.35	27956
803.492	28055
803.635	28261
803.777	28070
803.919	28234
804.061	28656
804.204	28257
804.346	28223
804.488	28215
804.63	28440
804.773	28238
804.915	28291
805.057	28447
805.199	28265
805.341	28356
805.483	28363
805.626	28314
805.768	28352
805.91	28398
806.052	28421
806.194	28234
806.336	28637
806.478	28470
806.62	28577
806.762	28516
806.904	28687
807.046	28835
807.188	28888
807.33	28759
807.472	28957
807.614	28797
807.756	28854
807.898	28790
808.04	28725
808.182	28626
808.324	28771
808.465	28694
808.607	28942
808.749	29094
808.891	29273
809.033	29280
809.174	29083
809.316	29143
809.458	29113
809.6	28934
809.741	29250
809.883	29132
810.025	29516
810.166	29360
810.308	29315
810.45	29311
810.591	29349
810.733	29109
810.875	29025
811.016	29098
811.158	28968
811.299	29269
811.441	29231
811.582	29197
811.724	29071
811.865	29075
812.007	29102
812.148	29185
812.29	29189
812.431	29204
812.573	29615
812.714	29600
812.855	29608
812.997	29752
813.138	29843
813.279	29687
813.421	29653
813.562	29570
813.703	29463
813.845	29269
813.986	29037
814.127	28927
814.268	28782
814.41	28835
814.551	28828
814.692	28896
814.833	28885
814.974	28782
815.115	28755
815.256	28755
815.397	28691
815.539	28698
815.68	28664
815.821	28588
815.962	28630
816.103	28649
816.244	28603
816.385	28421
816.526	28421
816.666	28143
816.807	28147
816.948	28150
817.089	28337
817.23	28234
817.371	28196
817.512	28143
817.653	28246
817.793	28109
817.934	28242
818.075	28074
818.216	28261
818.356	28086
818.497	28078
818.638	27846
818.778	27857
818.919	27991
819.06	27800
819.2	28029
819.341	28101
819.481	28109
819.622	28443
819.762	28504
819.903	28382
820.043	28356
820.184	28329
820.324	28116
820.465	28363
820.605	28310
820.746	28322
820.886	28242
821.026	28394
821.167	28211
821.307	28295
821.447	28166
821.588	28120
821.728	27926
821.868	27812
822.008	27603
822.149	27660
822.289	27542
822.429	27321
822.569	27367
822.709	27272
822.849	27188
822.99	27081
823.13	27127
823.27	27207
823.41	26796
823.55	26849
823.69	27005
823.83	26963
823.97	26868
824.11	26842
824.25	26788
824.389	26697
824.529	26914
824.669	26785
824.809	26975
824.949	26910
825.089	26929
825.228	26819
825.368	26606
825.508	26678
825.648	26682
825.787	26735
825.927	26800
826.067	26549
826.206	26708
826.346	26762
826.485	26804
826.625	26609
826.765	26682
826.904	26781
827.044	26495
827.183	26381
827.323	26347
827.462	26450
827.601	26457
827.741	26282
827.88	26499
828.02	26233
828.159	26404
828.298	26427
828.437	26518
828.577	26370
828.716	26290
828.855	26290
828.994	26214
829.134	26084
829.273	26054
829.412	26050
829.551	25966
829.69	26115
829.829	26096
829.968	26191
830.107	26073
830.246	26126
830.385	25970
830.524	26161
830.663	25966
830.802	25784
830.941	25655
831.08	25567
831.219	25674
831.357	25761
831.496	25864
831.635	25681
831.774	25632
831.913	25628
832.051	25403
832.19	25518
832.329	25613
832.467	25419
832.606	25384
832.744	25236
832.883	25282
833.022	25240
833.16	25377
833.299	25331
833.437	25343
833.576	25434
833.714	25369
833.852	25407
833.991	25369
834.129	25476
834.267	25320
834.406	25476
834.544	25388
834.682	25422
834.821	25468
834.959	25597
835.097	25464
835.235	25419
835.373	25392
835.511	25350
835.65	25179
835.788	25244
835.926	25145
836.064	25053
836.202	25110
836.34	25179
836.478	25209
836.615	25263
836.753	25282
836.891	25175
837.029	25312
837.167	25183
837.305	25091
837.443	25190
837.58	25114
837.718	25088
837.856	25000
837.993	25015
838.131	24943
838.269	25012
838.406	24939
838.544	24882
838.681	24620
838.819	24738
838.956	24509
839.094	24494
839.231	24551
839.369	24715
839.506	24844
839.643	24707
839.781	24475
839.918	24566
840.055	24585
840.193	24528
840.33	24498
840.467	24460
840.604	24494
840.742	24715
840.879	24289
841.016	24209
841.153	24292
841.29	24559
841.427	24403
841.564	24498
841.701	24388
841.838	24353
841.975	24460
842.112	24388
842.249	24228
842.385	24235
842.522	24350
842.659	24194
842.796	24228
842.933	24068
843.069	24060
843.206	24087
843.343	24194
843.479	24201
843.616	24190
843.752	23961
843.889	23931
844.025	24144
844.162	24030
844.298	24087
844.435	23931
844.571	23878
844.708	23984
844.844	24018
844.98	24038
845.117	24201
845.253	23874
845.389	23798
845.525	23920
845.661	23832
845.798	23775
845.934	23775
846.07	23657
846.206	23596
846.342	23627
846.478	23619
846.614	23421
846.75	23395
846.886	23433
847.022	23391
847.158	23467
847.294	23433
847.429	23410
847.565	23326
847.701	23611
847.837	23178
847.972	23136
848.108	23242
848.244	23159
848.379	23105
848.515	22908
848.65	23006
848.786	23025
848.921	23022
849.057	23109
849.192	23037
849.328	23022
849.463	22965
849.598	22873
849.734	22999
849.869	22908
850.004	22850
850.14	22866
850.275	22706
850.41	22702
850.545	22634
850.68	22797
850.815	22771
850.95	22744
851.085	22995
851.22	23033
851.355	22729
851.49	22805
851.625	22725
851.76	22771
851.895	22683
852.03	22664
852.165	22725
852.299	22736
852.434	22911
852.569	22881
852.703	22733
852.838	22729
852.973	22908
853.107	22858
853.242	22634
853.376	22550
853.511	22428
853.645	22451
853.78	22626
853.914	22626
854.048	22603
854.183	22550
854.317	22615
854.451	22828
854.585	22451
854.72	22470
854.854	22615
854.988	22569
855.122	22584
855.256	22478
855.39	22710
855.524	22588
855.658	22580
855.792	22561
855.926	22527
856.06	22645
856.194	22736
856.327	22508
856.461	22519
856.595	22531
856.729	22508
856.862	22637
856.996	22645
857.13	22592
857.263	22592
857.397	22683
857.53	22607
857.664	22603
857.797	22698
857.931	22557
858.064	22531
858.197	22740
858.331	22459
858.464	22634
858.597	22455
858.731	22455
858.864	22569
858.997	22630
859.13	22634
859.263	22626
859.396	22607
859.529	22596
859.662	22398
859.795	22535
859.928	22546
860.061	22767
860.194	22694
860.327	22656
860.46	22596
860.592	22668
860.725	22797
860.858	22698
860.99	22634
861.123	22535
861.256	22500
861.388	22478
861.521	23162
861.653	22538
861.786	22325
861.918	22375
862.05	22417
862.183	22451
862.315	22500
862.447	22527
862.58	22447
862.712	22226
862.844	22226
862.976	22447
863.108	22421
863.24	22649
863.372	22272
863.504	22253
863.636	22272
863.768	22322
863.9	22325
864.032	22211
864.164	22223
864.296	22306
864.428	22504
864.559	22314
864.691	22329
864.823	22344
864.954	22306
865.086	22325
865.217	22219
865.349	22097
865.48	22154
865.612	22120
865.743	22204
865.875	22158
866.006	22086
866.137	22166
866.269	22219
866.4	22150
866.531	22067
866.662	21968
866.793	22032
866.924	22112
867.055	22116
867.186	22109
867.317	22070
867.448	21964
867.579	22025
867.71	22002
867.841	22063
867.972	22032
868.103	22029
868.233	22036
868.364	22131
868.495	22112
868.625	22333
868.756	22440
868.886	22253
869.017	22299
869.147	22489
869.278	22375
869.408	22257
869.539	22295
869.669	22462
869.799	22371
869.929	22500
870.06	22386
870.19	22626
870.32	22569
870.45	22698
870.58	22717
870.71	22869
870.84	22873
870.97	22675
871.1	22675
871.23	22812
871.36	22889
871.489	22771
871.619	22831
871.749	22869
871.879	23044
872.008	23018
872.138	22919
872.267	22873
872.397	22755
872.526	22660
872.656	22820
872.785	22767
872.915	23044
873.044	23147
873.173	23060
873.303	22984
873.432	22968
873.561	23025
873.69	23003
873.819	22976
873.948	23075
874.077	23018
874.206	22953
874.335	22911
874.464	23052
874.593	23155
874.722	23132
874.851	23220
874.979	23273
875.108	23064
875.237	23090
875.365	23044
875.494	23189
875.623	23212
875.751	23117
875.88	23204
876.008	23227
876.136	23436
876.265	23554
876.393	23623
876.521	23687
876.65	23676
876.778	23680
876.906	23467
877.034	23573
877.162	23589
877.29	23376
877.418	23509
877.546	23402
877.674	23501
877.802	23611
877.93	23539
878.058	23406
878.185	23372
878.313	23512
878.441	23505
878.568	23223
878.696	23539
878.824	23528
878.951	23558
879.079	23524
879.206	23764
879.333	23592
879.461	23482
879.588	23474
879.715	23623
879.842	23771
879.97	23474
880.097	23322
880.224	23349
880.351	23391
880.478	23231
880.605	23178
880.732	23315
880.859	23573
880.986	23364
881.112	23452
881.239	23102
881.366	23052
881.493	22782
881.619	22904
881.746	22911
881.872	22915
881.999	22911
882.125	22854
882.252	22930
882.378	22820
882.505	23052
882.631	22653
882.757	22721
882.883	22618
883.01	22554
883.136	22531
883.262	22413
883.388	22291
883.514	22459
883.64	22554
883.766	22531
883.892	22284
884.018	22409
884.143	22451
884.269	22462
884.395	22177
884.52	22105
884.646	22234
884.772	22070
884.897	22124
885.023	22246
885.148	22295
885.274	22299
885.399	22333
885.524	22188
885.65	22265
885.775	22207
885.9	22158
886.025	22360
886.15	22211
886.275	22192
886.4	22109
886.525	22101
886.65	22090
886.775	22078
886.9	22207
887.025	22356
887.149	22196
887.274	21987
887.399	21922
887.523	21850
887.648	21857
887.773	21838
887.897	22044
888.021	21873
888.146	21819
888.27	21975
888.395	21922
888.519	21922
888.643	22029
888.767	21907
888.891	21747
889.015	21770
889.139	21827
889.263	21686
889.387	21781
889.511	21994
889.635	21747
889.759	21701
889.883	21591
890.006	21778
890.13	21713
890.254	21682
890.377	21625
890.501	21469
890.624	21420
890.748	21564
890.871	21382
890.995	21344
891.118	21123
891.241	21374
891.364	21283
891.488	21306
891.611	21249
891.734	21237
891.857	21439
891.98	21272
892.103	21268
892.226	21222
892.349	21138
892.471	21036
892.594	21214
892.717	21108
892.839	21180
892.962	21192
893.085	21306
893.207	21131
893.33	21077
893.452	21116
893.575	21214
893.697	21222
893.819	21283
893.941	21336
894.064	21298
894.186	21077
894.308	21176
894.43	21192
894.552	21260
894.674	21161
894.796	20982
894.918	21142
895.04	21093
895.161	21233
895.283	21192
895.405	21074
895.526	21203
895.648	21085
895.769	21165
895.891	21237
896.012	21211
896.134	21226
896.255	21135
896.376	20994
896.498	21070
896.619	21203
896.74	21146
896.861	21093
896.982	21466
897.103	21530
897.224	21542
897.345	21363
897.466	21298
897.587	21397
897.708	21454
897.828	21431
897.949	21222
898.07	21001
898.19	21287
898.311	21530
898.431	21192
898.552	21260
898.672	21439
898.792	21306
898.913	21344
899.033	21169
899.153	21165
899.273	21043
899.393	21096
899.513	21096
899.633	21161
899.753	21066
899.873	21112
899.993	21032
900.113	20902
900.232	21100
900.352	20967
900.472	20933
900.591	20834
900.711	20876
900.83	20811
900.95	20918
901.069	20944
901.189	20796
901.308	20499
901.427	20286
901.546	20454
901.665	20434
901.784	20339
901.904	20282
902.023	20180
902.141	19883
902.26	19856
902.379	20024
902.498	19947
902.617	19830
902.735	19887
902.854	19841
902.973	19959
903.091	19575
903.21	19635
903.328	19628
903.446	19571
903.565	19350
903.683	19419
903.801	19225
903.919	19194
904.038	19236
904.156	19137
904.274	19114
904.392	19114
904.51	19156
904.627	19050
904.745	19072
904.863	19175
904.981	18943
905.098	18852
905.216	18753
905.334	18817
905.451	18840
905.569	18745
905.686	18681
905.803	18745
905.921	18540
906.038	18696
906.155	18570
906.272	18460
906.389	18353
906.506	18308
906.623	18422
906.74	18311
906.857	18338
906.974	18281
907.091	18388
907.208	18407
907.324	18281
907.441	18171
907.557	17996
907.674	18060
907.79	17984
907.907	17977
908.023	17950
908.139	18095
908.256	17931
908.372	17958
908.488	17893
908.604	17828
908.72	17676
908.836	17775
908.952	17718
909.068	17741
909.184	17748
909.3	17767
909.415	17733
909.531	17707
909.647	17554
909.762	17474
909.878	17478
909.993	17296
910.108	17509
910.224	17467
910.339	17383
910.454	17345
910.57	17315
910.685	17178
910.8	17368
910.915	17200
911.03	17170
911.145	17060
911.259	16972
911.374	17071
911.489	16828
911.604	16915
911.718	16866
911.833	16710
911.947	16634
912.062	16493
912.176	16786
912.291	16713
912.405	16748
912.519	16938
912.633	16793
912.748	16748
912.862	16721
912.976	16546
913.09	16443
913.204	16478
913.318	16512
913.431	16717
913.545	16577
913.659	16599
913.772	16402
913.886	16390
914	16341
914.113	16356
914.226	16470
914.34	16390
914.453	16185
914.566	16291
914.68	16169
914.793	16162
914.906	16010
915.019	15983
915.132	15915
915.245	15880
915.358	15968
915.47	16010
915.583	15972
915.696	16006
915.809	15972
915.921	16010
916.034	15937
916.146	15876
916.259	15804
916.371	15842
916.483	15816
916.595	15717
916.708	15724
916.82	15778
916.932	15747
917.044	15667
917.156	15618
917.268	15477
917.38	15549
917.491	15568
917.603	15603
917.715	15690
917.826	15614
917.938	15584
918.049	15393
918.161	15580
918.272	15644
918.384	15652
918.495	15485
918.606	15348
918.717	15275
918.828	15393
918.939	15367
919.05	15218
919.161	15306
919.272	15097
919.383	15165
919.494	15313
919.604	15492
919.715	15355
919.826	15184
919.936	15264
920.047	15355
920.157	15310
920.267	15450
920.378	15218
920.488	15268
920.598	15534
920.708	15561
920.818	15317
920.928	15397
921.038	15511
921.148	15477
921.258	15184
921.368	15100
921.477	14861
921.587	14952
921.697	14910
921.806	15013
921.916	14838
922.025	14629
922.134	14621
922.244	14575
922.353	14648
922.462	14457
922.571	14518
922.68	14332
922.789	14244
922.898	14305
923.007	14256
923.116	14336
923.224	14187
923.333	14286
923.442	14092
923.55	14107
923.659	14172
923.767	14081
923.876	14050
923.984	14130
924.092	13932
924.201	13993
924.309	13997
924.417	13970
924.525	13860
924.633	13944
924.741	14602
924.849	13662
924.956	13856
925.064	13643
925.172	13537
925.279	13666
925.387	13651
925.494	13666
925.602	13700
925.709	13685
925.816	13525
925.924	13590
926.031	13772
926.138	13506
926.245	13670
926.352	13514
926.459	13521
926.566	13586
926.673	13400
926.779	13403
926.886	13346
926.993	13198
927.099	13251
927.206	13194
927.312	13065
927.419	13129
927.525	13129
927.631	13171
927.737	13118
927.843	12985
927.95	12989
928.056	12943
928.162	12985
928.267	13046
928.373	13605
928.479	12989
928.585	12764
928.69	12966
928.796	12985
928.901	12882
929.007	12673
929.112	12882
929.218	12833
929.323	12753
929.428	12692
929.533	12863
929.638	12662
929.743	12604
929.848	12802
929.953	12681
930.058	12483
930.163	12388
930.267	12334
930.372	12498
930.477	12262
930.581	12502
930.685	12395
930.79	12262
930.894	12292
930.998	12197
931.103	12281
931.207	12057
931.311	12011
931.415	11897
931.519	11604
931.623	11623
