Data from test_V78500241_1983.txt Node
Date: Fri Mar 25 15:55:32 CST 2022
User: usil
Spectrometer: V785-0024
Trigger mode: 0
Integration Time (sec): 4.000000E-1
Scans to average: 1
Nonlinearity correction enabled: false
Boxcar width: 0
Storing dark spectrum: false
XAxis mode: Wavelengths
Number of Pixels in Spectrum: 1024
>>>>>Begin Spectral Data<<<<<
801.071	28226
801.214	28128
801.356	28029
801.499	28059
801.641	27873
801.783	27717
801.926	27835
802.068	27823
802.211	27857
802.353	27599
802.496	27408
802.638	27473
802.78	27416
802.923	27351
803.065	27386
803.208	27237
803.35	27564
803.492	27424
803.635	27629
803.777	27603
803.919	27705
804.061	27861
804.204	27770
804.346	27637
804.488	27644
804.63	27736
804.773	27568
804.915	27694
805.057	27797
805.199	27675
805.341	27618
805.483	27823
805.626	27800
805.768	27781
805.91	27663
806.052	27869
806.194	27564
806.336	28112
806.478	27751
806.62	27838
806.762	28029
806.904	28181
807.046	28344
807.188	28166
807.33	28219
807.472	28341
807.614	28105
807.756	28280
807.898	28158
808.04	28093
808.182	28116
808.324	28082
808.465	28219
808.607	28401
808.749	28538
808.891	28508
809.033	28656
809.174	28656
809.316	28379
809.458	28371
809.6	28421
809.741	28649
809.883	28641
810.025	28698
810.166	28645
810.308	28771
810.45	28588
810.591	28698
810.733	28634
810.875	28554
811.016	28432
811.158	28440
811.299	28474
811.441	28672
811.582	28626
811.724	28497
811.865	28466
812.007	28557
812.148	28637
812.29	28497
812.431	28725
812.573	28858
812.714	28949
812.855	29029
812.997	29208
813.138	29235
813.279	29124
813.421	29044
813.562	28961
813.703	28812
813.845	28729
813.986	28516
814.127	28265
814.268	28196
814.41	28135
814.551	28196
814.692	28268
814.833	28063
814.974	28246
815.115	28188
815.256	27926
815.397	27987
815.539	28017
815.68	27922
815.821	27983
815.962	28105
816.103	28006
816.244	27850
816.385	27644
816.526	27709
816.666	27561
816.807	27507
816.948	27526
817.089	27545
817.23	27405
817.371	27519
817.512	27644
817.653	27329
817.793	27416
817.934	27458
818.075	27469
818.216	27439
818.356	27447
818.497	27298
818.638	27211
818.778	27275
818.919	27329
819.06	27256
819.2	27382
819.341	27507
819.481	27427
819.622	27694
819.762	27937
819.903	27675
820.043	27606
820.184	27709
820.324	27553
820.465	27644
820.605	27656
820.746	27610
820.886	27389
821.026	27500
821.167	27637
821.307	27698
821.447	27469
821.588	27359
821.728	27268
821.868	27252
822.008	26956
822.149	26986
822.289	26876
822.429	26678
822.569	26629
822.709	26549
822.849	26499
822.99	26465
823.13	26522
823.27	26461
823.41	26351
823.55	26202
823.69	26191
823.83	26210
823.97	26347
824.11	26069
824.25	25936
824.389	26130
824.529	26115
824.669	26130
824.809	26199
824.949	26100
825.089	26138
825.228	26115
825.368	25982
825.508	26062
825.648	26005
825.787	26008
825.927	25993
826.067	25936
826.206	25925
826.346	26031
826.485	26050
826.625	25989
826.765	26050
826.904	26035
827.044	25780
827.183	25822
827.323	25708
827.462	25776
827.601	25780
827.741	25712
827.88	25738
828.02	25693
828.159	25643
828.298	25670
828.437	25727
828.577	25518
828.716	25746
828.855	25628
828.994	25343
829.134	25479
829.273	25434
829.412	25327
829.551	25209
829.69	25358
829.829	25392
829.968	25457
830.107	25453
830.246	25301
830.385	25198
830.524	25213
830.663	25141
830.802	24951
830.941	25057
831.08	24992
831.219	24875
831.357	25084
831.496	25225
831.635	24943
831.774	24833
831.913	24852
832.051	24715
832.19	24798
832.329	24776
832.467	24677
832.606	24566
832.744	24589
832.883	24654
833.022	24471
833.16	24677
833.299	24719
833.437	24646
833.576	24688
833.714	24623
833.852	24783
833.991	24749
834.129	24798
834.267	24741
834.406	24726
834.544	24829
834.682	24848
834.821	24703
834.959	24867
835.097	24711
835.235	24753
835.373	24734
835.511	24707
835.65	24578
835.788	24639
835.926	24315
836.064	24289
836.202	24532
836.34	24570
836.478	24776
836.615	24475
836.753	24471
836.891	24616
837.029	24578
837.167	24521
837.305	24467
837.443	24429
837.58	24410
837.718	24547
837.856	24426
837.993	24281
838.131	24300
838.269	24129
838.406	24350
838.544	24338
838.681	23946
838.819	24057
838.956	23965
839.094	23813
839.231	23885
839.369	24091
839.506	24178
839.643	23965
839.781	23783
839.918	23771
840.055	23794
840.193	23817
840.33	23729
840.467	23855
840.604	23775
840.742	24038
840.879	23581
841.016	23745
841.153	23638
841.29	23843
841.427	23752
841.564	23783
841.701	23687
841.838	23672
841.975	23634
842.112	23581
842.249	23676
842.385	23543
842.522	23733
842.659	23646
842.796	23554
842.933	23467
843.069	23398
843.206	23467
843.343	23554
843.479	23474
843.616	23490
843.752	23273
843.889	23250
844.025	23341
844.162	23235
844.298	23242
844.435	23269
844.571	23200
844.708	23318
844.844	23417
844.98	23254
845.117	23242
845.253	23159
845.389	23193
845.525	23132
845.661	23181
845.798	23090
845.934	23067
846.07	22984
846.206	23022
846.342	23162
846.478	23018
846.614	22733
846.75	22801
846.886	22736
847.022	22911
847.158	22752
847.294	22801
847.429	22839
847.565	22683
847.701	22892
847.837	22466
847.972	22607
848.108	22516
848.244	22569
848.379	22386
848.515	22352
848.65	22363
848.786	22363
848.921	22348
849.057	22523
849.192	22405
849.328	22303
849.463	22367
849.598	22295
849.734	22265
849.869	22211
850.004	22261
850.14	22036
850.275	22150
850.41	22204
850.545	22067
850.68	22143
850.815	22143
850.95	22109
851.085	22230
851.22	22154
851.355	22166
851.49	22101
851.625	21987
851.76	22158
851.895	22044
852.03	21983
852.165	22147
852.299	22112
852.434	22242
852.569	22086
852.703	21975
852.838	22082
852.973	22211
853.107	22253
853.242	22013
853.376	21941
853.511	21720
853.645	21937
853.78	21934
853.914	21994
854.048	21865
854.183	21865
854.317	21953
854.451	22105
854.585	21857
854.72	21903
854.854	22017
854.988	21827
855.122	21892
855.256	21793
855.39	21918
855.524	21975
855.658	21869
855.792	21903
855.926	21953
856.06	21865
856.194	22013
856.327	21895
856.461	21846
856.595	21949
856.729	21888
856.862	22051
856.996	21991
857.13	21956
857.263	22044
857.397	22021
857.53	21854
857.664	22044
857.797	21922
857.931	21934
858.064	22017
858.197	22116
858.331	21827
858.464	21937
858.597	21694
858.731	21899
858.864	21842
858.997	21842
859.13	21911
859.263	21949
859.396	22112
859.529	22002
859.662	22032
859.795	21903
859.928	21949
860.061	22032
860.194	22166
860.327	21915
860.46	21873
860.592	22070
860.725	22185
860.858	22044
860.99	22025
861.123	21854
861.256	21937
861.388	21934
861.521	22630
861.653	21842
861.786	21652
861.918	21789
862.05	21903
862.183	21937
862.315	21903
862.447	21888
862.58	21732
862.712	21751
862.844	21660
862.976	21679
863.108	21667
863.24	22188
863.372	21526
863.504	21690
863.636	21679
863.768	21728
863.9	21549
864.032	21534
864.164	21622
864.296	21614
864.428	21724
864.559	21728
864.691	21747
864.823	21648
864.954	21564
865.086	21595
865.217	21644
865.349	21519
865.48	21443
865.612	21549
865.743	21599
865.875	21526
866.006	21408
866.137	21500
866.269	21428
866.4	21561
866.531	21507
866.662	21515
866.793	21557
866.924	21462
867.055	21549
867.186	21515
867.317	21462
867.448	21397
867.579	21408
867.71	21386
867.841	21382
867.972	21363
868.103	21378
868.233	21496
868.364	21408
868.495	21549
868.625	21648
868.756	21698
868.886	21587
869.017	21637
869.147	21720
869.278	21804
869.408	21663
869.539	21629
869.669	21759
869.799	21732
869.929	21789
870.06	21816
870.19	22040
870.32	21979
870.45	22074
870.58	21979
870.71	22181
870.84	22185
870.97	22215
871.1	22032
871.23	22173
871.36	22265
871.489	22078
871.619	22253
871.749	22295
871.879	22459
872.008	22409
872.138	22367
872.267	22226
872.397	22234
872.526	22078
872.656	22219
872.785	22166
872.915	22265
873.044	22413
873.173	22352
873.303	22284
873.432	22409
873.561	22417
873.69	22276
873.819	22329
873.948	22398
874.077	22333
874.206	22306
874.335	22306
874.464	22421
874.593	22500
874.722	22481
874.851	22519
874.979	22550
875.108	22626
875.237	22451
875.365	22512
875.494	22493
875.623	22531
875.751	22489
875.88	22546
876.008	22588
876.136	22675
876.265	22946
876.393	23083
876.521	23041
876.65	22968
876.778	22889
876.906	22946
877.034	22850
877.162	22748
877.29	22828
877.418	22930
877.546	22927
877.674	22892
877.802	22847
877.93	22957
878.058	22679
878.185	22835
878.313	22892
878.441	22866
878.568	22691
878.696	22759
878.824	22847
878.951	22980
879.079	22999
879.206	23231
879.333	22934
879.461	22790
879.588	23102
879.715	23071
879.842	23197
879.97	22991
880.097	22721
880.224	22683
880.351	22843
880.478	22812
880.605	22596
880.732	22679
880.859	22885
880.986	22702
881.112	22664
881.239	22622
881.366	22428
881.493	22382
881.619	22246
881.746	22303
881.872	22268
881.999	22238
882.125	22158
882.252	22325
882.378	22249
882.505	22291
882.631	22036
882.757	22013
882.883	21968
883.01	22006
883.136	22013
883.262	21861
883.388	21915
883.514	22013
883.64	22017
883.766	22002
883.892	21667
884.018	21774
884.143	21857
884.269	21968
884.395	21682
884.52	21606
884.646	21587
884.772	21530
884.897	21443
885.023	21564
885.148	21739
885.274	21770
885.399	21671
885.524	21671
885.65	21538
885.775	21660
885.9	21561
886.025	21686
886.15	21720
886.275	21576
886.4	21466
886.525	21545
886.65	21450
886.775	21401
886.9	21641
887.025	21899
887.149	21458
887.274	21329
887.399	21344
887.523	21306
887.648	21211
887.773	21359
887.897	21389
888.021	21481
888.146	21382
888.27	21405
888.395	21469
888.519	21519
888.643	21321
888.767	21344
888.891	21180
889.015	21207
889.139	21222
889.263	21089
889.387	21256
889.511	21264
889.635	21260
889.759	21161
889.883	21146
890.006	21195
890.13	21325
890.254	21089
890.377	20998
890.501	20929
890.624	20944
890.748	21047
890.871	20788
890.995	20720
891.118	20564
891.241	20693
891.364	20667
891.488	20876
891.611	20800
891.734	20765
891.857	20686
891.98	20754
892.103	20845
892.226	20762
892.349	20693
892.471	20389
892.594	20640
892.717	20556
892.839	20476
892.962	20583
893.085	20636
893.207	20480
893.33	20450
893.452	20549
893.575	20602
893.697	20469
893.819	20785
893.941	20720
894.064	20701
894.186	20560
894.308	20495
894.43	20689
894.552	20724
894.674	20670
894.796	20469
894.918	20663
895.04	20636
895.161	20648
895.283	20613
895.405	20545
895.526	20617
895.648	20682
895.769	20625
895.891	20689
896.012	20735
896.134	20655
896.255	20594
896.376	20583
896.498	20655
896.619	20735
896.74	20644
896.861	20575
896.982	20819
897.103	21074
897.224	20937
897.345	20876
897.466	20735
897.587	20861
897.708	20960
897.828	20975
897.949	20720
898.07	20705
898.19	20785
898.311	20735
898.431	20834
898.552	20864
898.672	20811
898.792	20891
898.913	20823
899.033	20727
899.153	20712
899.273	20541
899.393	20568
899.513	20594
899.633	20655
899.753	20621
899.873	20530
899.993	20590
900.113	20537
900.232	20507
900.352	20522
900.472	20404
900.591	20267
900.711	20275
900.83	20366
900.95	20404
901.069	20454
901.189	20187
901.308	20107
901.427	19936
901.546	19921
901.665	20058
901.784	19944
901.904	19784
902.023	19719
902.141	19556
902.26	19483
902.379	19601
902.498	19419
902.617	19400
902.735	19495
902.854	19464
902.973	19324
903.091	19160
903.21	19023
903.328	18993
903.446	18928
903.565	18977
903.683	18928
903.801	18730
903.919	18844
904.038	18821
904.156	18623
904.274	18734
904.392	18578
904.51	18620
904.627	18768
904.745	18684
904.863	18760
904.981	18376
905.098	18273
905.216	18323
905.334	18258
905.451	18308
905.569	18365
905.686	18403
905.803	18319
905.921	18072
906.038	18194
906.155	18038
906.272	17973
906.389	18064
906.506	17767
906.623	17893
906.74	17779
906.857	17790
906.974	17775
907.091	17893
907.208	17901
907.324	17805
907.441	17714
907.557	17535
907.674	17528
907.79	17311
907.907	17417
908.023	17543
908.139	17543
908.256	17433
908.372	17459
908.488	17402
908.604	17425
908.72	17212
908.836	17360
908.952	17292
909.068	17216
909.184	17372
909.3	17330
909.415	17307
909.531	17239
909.647	17010
909.762	16953
909.878	16991
909.993	16927
910.108	17048
910.224	16900
910.339	16961
910.454	16820
910.57	16778
910.685	16702
910.8	16968
910.915	16889
911.03	16740
911.145	16675
911.259	16546
911.374	16592
911.489	16466
911.604	16493
911.718	16265
911.833	16261
911.947	16166
912.062	16215
912.176	16356
912.291	16253
912.405	16268
912.519	16478
912.633	16443
912.748	16421
912.862	16306
912.976	16185
913.09	16010
913.204	16044
913.318	16120
913.431	16116
913.545	16116
913.659	16173
913.772	16044
913.886	15895
914	15968
914.113	15930
914.226	16029
914.34	15922
914.453	15793
914.566	15903
914.68	15819
914.793	15698
914.906	15469
915.019	15507
915.132	15507
915.245	15443
915.358	15587
915.47	15466
915.583	15515
915.696	15526
915.809	15568
915.921	15663
916.034	15488
916.146	15431
916.259	15336
916.371	15466
916.483	15458
916.595	15370
916.708	15317
916.82	15374
916.932	15233
917.044	15279
917.156	15180
917.268	15165
917.38	15184
917.491	15119
917.603	15077
917.715	15169
917.826	15283
917.938	15077
918.049	14948
918.161	15089
918.272	15207
918.384	15233
918.495	15108
918.606	15013
918.717	14845
918.828	14838
918.939	14986
919.05	14754
919.161	14895
919.272	14682
919.383	14712
919.494	14960
919.604	15161
919.715	14861
919.826	14739
919.936	14804
920.047	14861
920.157	14815
920.267	15009
920.378	14807
920.488	14864
920.598	15077
920.708	15112
920.818	15009
920.928	14937
921.038	15142
921.148	15108
921.258	14819
921.368	14670
921.477	14655
921.587	14484
921.697	14457
921.806	14621
921.916	14537
922.025	14183
922.134	14309
922.244	14202
922.353	14263
922.462	14077
922.571	14031
922.68	13822
922.789	13799
922.898	13871
923.007	13795
923.116	13913
923.224	13883
923.333	13791
923.442	13712
923.55	13719
923.659	13677
923.767	13738
923.876	13590
923.984	13734
924.092	13609
924.201	13677
924.309	13533
924.417	13582
924.525	13540
924.633	13472
924.741	14225
924.849	13259
924.956	13445
925.064	13339
925.172	13179
925.279	13263
925.387	13301
925.494	13202
925.602	13346
925.709	13244
925.816	13133
925.924	13236
926.031	13285
926.138	13255
926.245	13285
926.352	13061
926.459	13209
926.566	13324
926.673	13152
926.779	13069
926.886	12962
926.993	12894
927.099	12837
927.206	12715
927.312	12734
927.419	12852
927.525	12871
927.631	12768
927.737	12696
927.843	12642
927.95	12555
928.056	12578
928.162	12673
928.267	12684
928.373	13316
928.479	12673
928.585	12441
928.69	12547
928.796	12623
928.901	12452
929.007	12300
929.112	12494
929.218	12350
929.323	12403
929.428	12330
929.533	12540
929.638	12159
929.743	12270
929.848	12334
929.953	12235
930.058	12190
930.163	12076
930.267	12026
930.372	12102
930.477	11916
930.581	12091
930.685	12076
930.79	11965
930.894	11969
930.998	11859
931.103	12030
931.207	11741
931.311	11528
931.415	11433
931.519	11315
931.623	11318
