Data from test_V78500241_2682.txt Node
Date: Fri Mar 25 16:00:22 CST 2022
User: usil
Spectrometer: V785-0024
Trigger mode: 0
Integration Time (sec): 4.000000E-1
Scans to average: 1
Nonlinearity correction enabled: false
Boxcar width: 0
Storing dark spectrum: false
XAxis mode: Wavelengths
Number of Pixels in Spectrum: 1024
>>>>>Begin Spectral Data<<<<<
801.071	28713
801.214	28531
801.356	28417
801.499	28280
801.641	28318
801.783	28226
801.926	28284
802.068	28287
802.211	28215
802.353	28116
802.496	28109
802.638	27854
802.78	27964
802.923	27846
803.065	27747
803.208	27911
803.35	27918
803.492	28139
803.635	28211
803.777	28097
803.919	28207
804.061	28519
804.204	28181
804.346	28063
804.488	28112
804.63	28169
804.773	28154
804.915	28295
805.057	28223
805.199	28204
805.341	28333
805.483	28363
805.626	28432
805.768	28337
805.91	28363
806.052	28405
806.194	28291
806.336	28398
806.478	28382
806.62	28325
806.762	28523
806.904	28649
807.046	28793
807.188	28793
807.33	28866
807.472	28713
807.614	28812
807.756	28820
807.898	28615
808.04	28538
808.182	28557
808.324	28653
808.465	28733
808.607	28816
808.749	29022
808.891	29140
809.033	29121
809.174	29052
809.316	28999
809.458	29064
809.6	28953
809.741	29128
809.883	29372
810.025	29345
810.166	29197
810.308	29307
810.45	29200
810.591	29170
810.733	29094
810.875	29052
811.016	28930
811.158	28896
811.299	29185
811.441	29242
811.582	29269
811.724	29075
811.865	29006
812.007	28984
812.148	29060
812.29	29071
812.431	29132
812.573	29311
812.714	29505
812.855	29646
812.997	29634
813.138	29623
813.279	29840
813.421	29608
813.562	29638
813.703	29452
813.845	29463
813.986	29098
814.127	28740
814.268	28713
814.41	28850
814.551	28710
814.692	28839
814.833	28653
814.974	28706
815.115	28824
815.256	28630
815.397	28645
815.539	28588
815.68	28432
815.821	28508
815.962	28618
816.103	28596
816.244	28390
816.385	28314
816.526	28322
816.666	28238
816.807	28013
816.948	28135
817.089	28238
817.23	28055
817.371	28025
817.512	28086
817.653	28154
817.793	27956
817.934	28051
818.075	28032
818.216	27998
818.356	28051
818.497	28010
818.638	27873
818.778	27770
818.919	27922
819.06	27892
819.2	28059
819.341	28013
819.481	28040
819.622	28226
819.762	28523
819.903	28360
820.043	28291
820.184	28249
820.324	28086
820.465	28223
820.605	28173
820.746	28147
820.886	28070
821.026	28230
821.167	28135
821.307	28188
821.447	28150
821.588	28021
821.728	27903
821.868	27762
822.008	27519
822.149	27561
822.289	27534
822.429	27283
822.569	27230
822.709	27336
822.849	26952
822.99	27093
823.13	27058
823.27	26929
823.41	26861
823.55	26853
823.69	26952
823.83	26830
823.97	26781
824.11	26613
824.25	26648
824.389	26686
824.529	26712
824.669	26743
824.809	26883
824.949	26819
825.089	26758
825.228	26815
825.368	26659
825.508	26484
825.648	26590
825.787	26613
825.927	26648
826.067	26473
826.206	26659
826.346	26689
826.485	26674
826.625	26541
826.765	26667
826.904	26727
827.044	26438
827.183	26434
827.323	26278
827.462	26355
827.601	26278
827.741	26248
827.88	26320
828.02	26065
828.159	26415
828.298	26233
828.437	26275
828.577	26237
828.716	26309
828.855	26195
828.994	25993
829.134	26031
829.273	26062
829.412	25932
829.551	25955
829.69	26008
829.829	26081
829.968	26058
830.107	26122
830.246	25921
830.385	25982
830.524	25951
830.663	25719
830.802	25852
830.941	25548
831.08	25594
831.219	25586
831.357	25632
831.496	25822
831.635	25571
831.774	25544
831.913	25514
832.051	25441
832.19	25441
832.329	25400
832.467	25301
832.606	25217
832.744	25187
832.883	25308
833.022	25164
833.16	25301
833.299	25308
833.437	25213
833.576	25400
833.714	25301
833.852	25320
833.991	25343
834.129	25327
834.267	25301
834.406	25327
834.544	25411
834.682	25171
834.821	25324
834.959	25453
835.097	25228
835.235	25289
835.373	25285
835.511	25324
835.65	25266
835.788	25152
835.926	25187
836.064	24886
836.202	24958
836.34	25236
836.478	25343
836.615	25053
836.753	25190
836.891	25255
837.029	25171
837.167	25038
837.305	25129
837.443	24935
837.58	25004
837.718	25053
837.856	24989
837.993	25031
838.131	24954
838.269	24806
838.406	24897
838.544	24753
838.681	24597
838.819	24589
838.956	24414
839.094	24395
839.231	24498
839.369	24532
839.506	24757
839.643	24772
839.781	24414
839.918	24407
840.055	24521
840.193	24426
840.33	24308
840.467	24350
840.604	24456
840.742	24604
840.879	24346
841.016	24353
841.153	24266
841.29	24441
841.427	24334
841.564	24243
841.701	24224
841.838	24308
841.975	24220
842.112	24270
842.249	24197
842.385	24091
842.522	24315
842.659	24247
842.796	24144
842.933	23935
843.069	23980
843.206	24083
843.343	24194
843.479	24228
843.616	24110
843.752	23882
843.889	23756
844.025	24110
844.162	23630
844.298	24011
844.435	23954
844.571	23882
844.708	23779
844.844	24045
844.98	23874
845.117	24018
845.253	23885
845.389	23764
845.525	23786
845.661	23779
845.798	23638
845.934	23623
846.07	23562
846.206	23619
846.342	23699
846.478	23577
846.614	23383
846.75	23220
846.886	23410
847.022	23436
847.158	23322
847.294	23341
847.429	23520
847.565	23387
847.701	23531
847.837	23010
847.972	23052
848.108	23242
848.244	23086
848.379	22881
848.515	22881
848.65	22812
848.786	22858
848.921	22942
849.057	22949
849.192	23018
849.328	22995
849.463	22896
849.598	22812
849.734	22908
849.869	22755
850.004	22683
850.14	22645
850.275	22725
850.41	22577
850.545	22622
850.68	22664
850.815	22645
850.95	22816
851.085	22820
851.22	22778
851.355	22717
851.49	22611
851.625	22634
851.76	22641
851.895	22603
852.03	22641
852.165	22615
852.299	22767
852.434	22694
852.569	22656
852.703	22656
852.838	22759
852.973	22904
853.107	22801
853.242	22626
853.376	22504
853.511	22402
853.645	22493
853.78	22554
853.914	22569
854.048	22512
854.183	22516
854.317	22622
854.451	22698
854.585	22512
854.72	22474
854.854	22546
854.988	22402
855.122	22500
855.256	22455
855.39	22443
855.524	22527
855.658	22538
855.792	22440
855.926	22535
856.06	22398
856.194	22603
856.327	22504
856.461	22413
856.595	22402
856.729	22565
856.862	22637
856.996	22542
857.13	22626
857.263	22626
857.397	22542
857.53	22523
857.664	22546
857.797	22641
857.931	22668
858.064	22447
858.197	22603
858.331	22443
858.464	22485
858.597	22360
858.731	22466
858.864	22550
858.997	22497
859.13	22538
859.263	22497
859.396	22603
859.529	22478
859.662	22417
859.795	22478
859.928	22504
860.061	22653
860.194	22771
860.327	22466
860.46	22447
860.592	22641
860.725	22717
860.858	22721
860.99	22516
861.123	22405
861.256	22493
861.388	22481
861.521	23174
861.653	22344
861.786	22173
861.918	22253
862.05	22424
862.183	22409
862.315	22337
862.447	22516
862.58	22489
862.712	22238
862.844	22196
862.976	22173
863.108	22215
863.24	22755
863.372	22101
863.504	22128
863.636	22242
863.768	22261
863.9	22230
864.032	22143
864.164	22230
864.296	22204
864.428	22402
864.559	22329
864.691	22314
864.823	22204
864.954	22166
865.086	22284
865.217	22048
865.349	21975
865.48	22154
865.612	22131
865.743	22253
865.875	22139
866.006	22025
866.137	22196
866.269	22067
866.4	21987
866.531	22059
866.662	21968
866.793	22070
866.924	22029
867.055	22055
867.186	22086
867.317	21918
867.448	21888
867.579	22067
867.71	22002
867.841	21960
867.972	21941
868.103	21903
868.233	22082
868.364	22105
868.495	22070
868.625	22223
868.756	22314
868.886	22219
869.017	22181
869.147	22375
869.278	22325
869.408	22207
869.539	22215
869.669	22402
869.799	22348
869.929	22348
870.06	22246
870.19	22618
870.32	22622
870.45	22584
870.58	22618
870.71	22664
870.84	22767
870.97	22653
871.1	22698
871.23	22961
871.36	22877
871.489	22908
871.619	22824
871.749	22786
871.879	22843
872.008	22953
872.138	22885
872.267	22847
872.397	22755
872.526	22596
872.656	22778
872.785	22660
872.915	22900
873.044	22881
873.173	22889
873.303	22801
873.432	22911
873.561	23033
873.69	22930
873.819	22984
873.948	22862
874.077	22801
874.206	22831
874.335	23037
874.464	22995
874.593	23079
874.722	22927
874.851	23124
874.979	23162
875.108	23067
875.237	22984
875.365	23022
875.494	23060
875.623	23121
875.751	23022
875.88	22980
876.008	23246
876.136	23368
876.265	23551
876.393	23604
876.521	23554
876.65	23623
876.778	23444
876.906	23509
877.034	23379
877.162	23497
877.29	23360
877.418	23501
877.546	23452
877.674	23326
877.802	23299
877.93	23402
878.058	23360
878.185	23356
878.313	23410
878.441	23417
878.568	23284
878.696	23299
878.824	23562
878.951	23592
879.079	23570
879.206	23756
879.333	23554
879.461	23558
879.588	23615
879.715	23672
879.842	23794
879.97	23463
880.097	23197
880.224	23334
880.351	23258
880.478	23185
880.605	23212
880.732	23239
880.859	23516
880.986	23159
881.112	23341
881.239	23060
881.366	23006
881.493	22831
881.619	22736
881.746	22866
881.872	22816
881.999	22771
882.125	22668
882.252	22862
882.378	22771
882.505	22850
882.631	22729
882.757	22504
882.883	22607
883.01	22592
883.136	22535
883.262	22356
883.388	22390
883.514	22508
883.64	22481
883.766	22462
883.892	22204
884.018	22272
884.143	22459
884.269	22436
884.395	22192
884.52	21987
884.646	22051
884.772	22040
884.897	22090
885.023	22097
885.148	22215
885.274	22246
885.399	22143
885.524	22120
885.65	22215
885.775	22063
885.9	22120
886.025	22139
886.15	22204
886.275	22059
886.4	22055
886.525	22135
886.65	21979
886.775	21964
886.9	22185
887.025	22230
887.149	22112
887.274	21857
887.399	21922
887.523	21975
887.648	21781
887.773	21762
887.897	21857
888.021	21892
888.146	21781
888.27	21953
888.395	22090
888.519	21857
888.643	21956
888.767	21869
888.891	21728
889.015	21614
889.139	21682
889.263	21583
889.387	21778
889.511	21838
889.635	21850
889.759	21523
889.883	21694
890.006	21656
890.13	21709
890.254	21530
890.377	21515
890.501	21412
890.624	21496
890.748	21538
890.871	21405
890.995	21252
891.118	21310
891.241	21184
891.364	21237
891.488	21306
891.611	21222
891.734	21237
891.857	21302
891.98	21222
892.103	21184
892.226	21195
892.349	21138
892.471	21024
892.594	21116
892.717	21150
892.839	21142
892.962	21108
893.085	21123
893.207	21233
893.33	20925
893.452	21043
893.575	21119
893.697	21043
893.819	21116
893.941	21260
894.064	21313
894.186	21032
894.308	20921
894.43	21119
894.552	21264
894.674	21222
894.796	20941
894.918	20994
895.04	21077
895.161	21199
895.283	21169
895.405	20956
895.526	21089
895.648	20963
895.769	21081
895.891	21058
896.012	21173
896.134	21154
896.255	21009
896.376	21036
896.498	21268
896.619	21192
896.74	21112
896.861	21165
896.982	21504
897.103	21660
897.224	21378
897.345	21207
897.466	21252
897.587	21310
897.708	21393
897.828	21389
897.949	21214
898.07	21150
898.19	21176
898.311	21233
898.431	21256
898.552	21306
898.672	21412
898.792	21355
898.913	21344
899.033	21275
899.153	20986
899.273	21058
899.393	21047
899.513	20918
899.633	20994
899.753	21104
899.873	20845
899.993	21047
900.113	20960
900.232	20902
900.352	20975
900.472	20807
900.591	20746
900.711	20746
900.83	20720
900.95	20895
901.069	20800
901.189	20644
901.308	20427
901.427	20290
901.546	20244
901.665	20389
901.784	20370
901.904	20096
902.023	20187
902.141	19928
902.26	19822
902.379	19898
902.498	19860
902.617	19769
902.735	19909
902.854	19776
902.973	19830
903.091	19457
903.21	19502
903.328	19480
903.446	19415
903.565	19312
903.683	19263
903.801	19145
903.919	19289
904.038	19304
904.156	19072
904.274	19091
904.392	19004
904.51	19000
904.627	19069
904.745	19050
904.863	19107
904.981	18894
905.098	18779
905.216	18772
905.334	18749
905.451	18722
905.569	18791
905.686	18639
905.803	18616
905.921	18486
906.038	18517
906.155	18540
906.272	18407
906.389	18437
906.506	18292
906.623	18224
906.74	18186
906.857	18174
906.974	18152
907.091	18235
907.208	18384
907.324	18194
907.441	18163
907.557	17942
907.674	17904
907.79	17889
907.907	17885
908.023	17969
908.139	17977
908.256	17805
908.372	17882
908.488	17745
908.604	17634
908.72	17726
908.836	17668
908.952	17630
909.068	17676
909.184	17859
909.3	17657
909.415	17741
909.531	17661
909.647	17398
909.762	17322
909.878	17334
909.993	17356
910.108	17208
910.224	17277
910.339	17379
910.454	17318
910.57	17239
910.685	17140
910.8	17376
910.915	17273
911.03	17147
911.145	17045
911.259	16881
911.374	17045
911.489	16987
911.604	16862
911.718	16694
911.833	16626
911.947	16508
912.062	16493
912.176	16637
912.291	16702
912.405	16725
912.519	16911
912.633	16793
912.748	16626
912.862	16679
912.976	16538
913.09	16344
913.204	16424
913.318	16493
913.431	16531
913.545	16546
913.659	16546
913.772	16466
913.886	16284
914	16219
914.113	16428
914.226	16405
914.34	16394
914.453	16291
914.566	16303
914.68	16238
914.793	16128
914.906	16006
915.019	15953
915.132	15819
915.245	15922
915.358	15907
915.47	15827
915.583	15876
915.696	15838
915.809	15968
915.921	15941
916.034	15747
916.146	15739
916.259	15732
916.371	15823
916.483	15720
916.595	15648
916.708	15686
916.82	15610
916.932	15656
917.044	15694
917.156	15671
917.268	15618
917.38	15542
917.491	15538
917.603	15416
917.715	15545
917.826	15511
917.938	15507
918.049	15291
918.161	15367
918.272	15580
918.384	15542
918.495	15435
918.606	15317
918.717	15260
918.828	15249
918.939	15264
919.05	15074
919.161	15287
919.272	14994
919.383	15081
919.494	15195
919.604	15420
919.715	15294
919.826	15207
919.936	15195
920.047	15291
920.157	15218
920.267	15405
920.378	15211
920.488	15116
920.598	15363
920.708	15477
920.818	15306
920.928	15321
921.038	15336
921.148	15412
921.258	15074
921.368	15070
921.477	14876
921.587	14864
921.697	14807
921.806	14910
921.916	14746
922.025	14564
922.134	14492
922.244	14575
922.353	14636
922.462	14374
922.571	14377
922.68	14218
922.789	14199
922.898	14214
923.007	14100
923.116	14145
923.224	14123
923.333	14142
923.442	14031
923.55	13974
923.659	14020
923.767	14050
923.876	13967
923.984	13997
924.092	13849
924.201	13944
924.309	13928
924.417	14020
924.525	13811
924.633	13864
924.741	14659
924.849	13624
924.956	13746
925.064	13544
925.172	13441
925.279	13559
925.387	13636
925.494	13422
925.602	13643
925.709	13559
925.816	13403
925.924	13499
926.031	13597
926.138	13422
926.245	13533
926.352	13460
926.459	13540
926.566	13575
926.673	13430
926.779	13270
926.886	13324
926.993	13137
927.099	13152
927.206	13057
927.312	13031
927.419	13099
927.525	13091
927.631	13107
927.737	13023
927.843	12993
927.95	12802
928.056	12920
928.162	12882
928.267	13004
928.373	13331
928.479	13072
928.585	12631
928.69	12875
928.796	12951
928.901	12711
929.007	12559
929.112	12757
929.218	12646
929.323	12631
929.428	12578
929.533	12722
929.638	12544
929.743	12585
929.848	12692
929.953	12570
930.058	12544
930.163	12327
930.267	12281
930.372	12399
930.477	12140
930.581	12498
930.685	12384
930.79	12148
930.894	12148
930.998	12133
931.103	12205
931.207	11988
931.311	11870
931.415	11630
931.519	11554
931.623	11482
