Data from test_V78500241_112.txt Node
Date: Fri Mar 25 15:42:34 CST 2022
User: usil
Spectrometer: V785-0024
Trigger mode: 0
Integration Time (sec): 4.000000E-1
Scans to average: 1
Nonlinearity correction enabled: false
Boxcar width: 0
Storing dark spectrum: false
XAxis mode: Wavelengths
Number of Pixels in Spectrum: 1024
>>>>>Begin Spectral Data<<<<<
801.071	30095
801.214	30038
801.356	29672
801.499	29775
801.641	29452
801.783	29509
801.926	29558
802.068	29520
802.211	29425
802.353	29353
802.496	29155
802.638	29242
802.78	29086
802.923	29022
803.065	28923
803.208	29086
803.35	29220
803.492	29341
803.635	29353
803.777	29151
803.919	29277
804.061	29558
804.204	29395
804.346	29132
804.488	29162
804.63	29254
804.773	29181
804.915	29307
805.057	29360
805.199	29250
805.341	29296
805.483	29395
805.626	29315
805.768	29280
805.91	29406
806.052	29406
806.194	29353
806.336	29535
806.478	29551
806.62	29433
806.762	29543
806.904	29528
807.046	29836
807.188	29859
807.33	29733
807.472	29809
807.614	29672
807.756	29741
807.898	29619
808.04	29551
808.182	29585
808.324	29516
808.465	29448
808.607	29847
808.749	29821
808.891	30034
809.033	30182
809.174	29904
809.316	29843
809.458	30209
809.6	29783
809.741	30011
809.883	29923
810.025	30125
810.166	30038
810.308	30110
810.45	30155
810.591	30148
810.733	29973
810.875	29893
811.016	29916
811.158	29714
811.299	29999
811.441	29973
811.582	30007
811.724	29999
811.865	29847
812.007	29923
812.148	29840
812.29	29931
812.431	29999
812.573	30254
812.714	30281
812.855	30243
812.997	30570
813.138	30547
813.279	30403
813.421	30441
813.562	30304
813.703	30270
813.845	29923
813.986	29745
814.127	29649
814.268	29531
814.41	29414
814.551	29417
814.692	29570
814.833	29562
814.974	29353
815.115	29375
815.256	29277
815.397	29383
815.539	29239
815.68	29140
815.821	29102
815.962	29273
816.103	29193
816.244	28968
816.385	28938
816.526	28885
816.666	28744
816.807	28816
816.948	28793
817.089	28930
817.23	28550
817.371	28573
817.512	28485
817.653	28557
817.793	28516
817.934	28599
818.075	28504
818.216	28630
818.356	28592
818.497	28333
818.638	28230
818.778	28226
818.919	28432
819.06	28276
819.2	28390
819.341	28443
819.481	28421
819.622	28698
819.762	28923
819.903	28812
820.043	28622
820.184	28557
820.324	28599
820.465	28626
820.605	28535
820.746	28679
820.886	28519
821.026	28523
821.167	28512
821.307	28683
821.447	28413
821.588	28485
821.728	28249
821.868	28120
822.008	27956
822.149	27899
822.289	28067
822.429	27747
822.569	27504
822.709	27511
822.849	27412
822.99	27340
823.13	27359
823.27	27332
823.41	27104
823.55	27195
823.69	27108
823.83	27157
823.97	27093
824.11	26902
824.25	26952
824.389	26986
824.529	26960
824.669	26956
824.809	26994
824.949	27024
825.089	26960
825.228	27055
825.368	26849
825.508	26807
825.648	26777
825.787	26800
825.927	26785
826.067	26720
826.206	26590
826.346	26861
826.485	26899
826.625	26788
826.765	26910
826.904	26617
827.044	26530
827.183	26473
827.323	26434
827.462	26469
827.601	26545
827.741	26385
827.88	26556
828.02	26298
828.159	26320
828.298	26408
828.437	26427
828.577	26366
828.716	26446
828.855	26301
828.994	26225
829.134	25959
829.273	26134
829.412	26096
829.551	26100
829.69	26039
829.829	26024
829.968	26096
830.107	25997
830.246	26065
830.385	26020
830.524	25860
830.663	25807
830.802	25643
830.941	25662
831.08	25559
831.219	25738
831.357	25643
831.496	25822
831.635	25559
831.774	25559
831.913	25407
832.051	25403
832.19	25339
832.329	25335
832.467	25400
832.606	25232
832.744	25175
832.883	25247
833.022	25236
833.16	25137
833.299	25168
833.437	25110
833.576	25251
833.714	25183
833.852	25369
833.991	25251
834.129	25384
834.267	25335
834.406	25209
834.544	25202
834.682	25225
834.821	25175
834.959	25301
835.097	25000
835.235	25221
835.373	25091
835.511	25217
835.65	25057
835.788	24916
835.926	24875
836.064	24825
836.202	24806
836.34	24878
836.478	25217
836.615	25019
836.753	24966
836.891	25141
837.029	24909
837.167	24913
837.305	24837
837.443	24909
837.58	24764
837.718	24924
837.856	24863
837.993	24817
838.131	24867
838.269	24658
838.406	24798
838.544	24578
838.681	24422
838.819	24334
838.956	24445
839.094	24209
839.231	24262
839.369	24350
839.506	24654
839.643	24460
839.781	24224
839.918	24125
840.055	24136
840.193	24155
840.33	23999
840.467	24213
840.604	24235
840.742	24410
840.879	23954
841.016	24026
841.153	23992
841.29	24194
841.427	23923
841.564	24076
841.701	24060
841.838	24003
841.975	23950
842.112	23935
842.249	24064
842.385	23916
842.522	23977
842.659	23878
842.796	23805
842.933	23691
843.069	23729
843.206	23676
843.343	23786
843.479	23756
843.616	23726
843.752	23531
843.889	23570
844.025	23691
844.162	23497
844.298	23455
844.435	23528
844.571	23425
844.708	23505
844.844	23627
844.98	23558
845.117	23630
845.253	23406
845.389	23337
845.525	23402
845.661	23322
845.798	23277
845.934	23360
846.07	23086
846.206	23223
846.342	23406
846.478	23223
846.614	22976
846.75	22873
846.886	22892
847.022	23003
847.158	22843
847.294	22999
847.429	23060
847.565	22896
847.701	23185
847.837	22603
847.972	22637
848.108	22782
848.244	22710
848.379	22519
848.515	22489
848.65	22440
848.786	22382
848.921	22428
849.057	22611
849.192	22470
849.328	22508
849.463	22405
849.598	22421
849.734	22421
849.869	22242
850.004	22150
850.14	22284
850.275	22188
850.41	22211
850.545	22207
850.68	22078
850.815	22188
850.95	22101
851.085	22394
851.22	22333
851.355	22223
851.49	22185
851.625	22063
851.76	22120
851.895	22078
852.03	22013
852.165	22192
852.299	22150
852.434	22230
852.569	22154
852.703	22032
852.838	22223
852.973	22223
853.107	22211
853.242	22177
853.376	22036
853.511	22002
853.645	21941
853.78	22124
853.914	21892
854.048	22021
854.183	21926
854.317	21857
854.451	22143
854.585	21888
854.72	21937
854.854	21922
854.988	21819
855.122	21926
855.256	21895
855.39	21972
855.524	21964
855.658	22010
855.792	21838
855.926	21994
856.06	22036
856.194	21983
856.327	22002
856.461	21838
856.595	21880
856.729	21972
856.862	22021
856.996	21956
857.13	21968
857.263	22025
857.397	22078
857.53	21835
857.664	21907
857.797	21991
857.931	21991
858.064	21797
858.197	21979
858.331	21873
858.464	21656
858.597	21682
858.731	21835
858.864	21964
858.997	21747
859.13	21888
859.263	21899
859.396	21968
859.529	21694
859.662	21698
859.795	21759
859.928	21937
860.061	21964
860.194	22074
860.327	21838
860.46	21953
860.592	21949
860.725	21979
860.858	21907
860.99	21835
861.123	21732
861.256	21717
861.388	21922
861.521	22478
861.653	21686
861.786	21713
861.918	21743
862.05	21808
862.183	21770
862.315	21854
862.447	21922
862.58	21842
862.712	21599
862.844	21610
862.976	21656
863.108	21644
863.24	21911
863.372	21736
863.504	21458
863.636	21542
863.768	21553
863.9	21526
864.032	21641
864.164	21466
864.296	21553
864.428	21644
864.559	21564
864.691	21572
864.823	21530
864.954	21625
865.086	21386
865.217	21504
865.349	21332
865.48	21405
865.612	21485
865.743	21580
865.875	21389
866.006	21355
866.137	21279
866.269	21370
866.4	21397
866.531	21389
866.662	21504
866.793	21416
866.924	21408
867.055	21378
867.186	21412
867.317	21306
867.448	21237
867.579	21325
867.71	21317
867.841	21218
867.972	21306
868.103	21252
868.233	21424
868.364	21340
868.495	21488
868.625	21549
868.756	21614
868.886	21367
869.017	21454
869.147	21671
869.278	21679
869.408	21549
869.539	21515
869.669	21682
869.799	21591
869.929	21622
870.06	21682
870.19	21918
870.32	21911
870.45	22010
870.58	21968
870.71	22112
870.84	22070
870.97	21968
871.1	21953
871.23	22128
871.36	22097
871.489	22029
871.619	22223
871.749	22135
871.879	22246
872.008	22280
872.138	22090
872.267	22230
872.397	22021
872.526	21937
872.656	22135
872.785	22078
872.915	22154
873.044	22249
873.173	22280
873.303	22188
873.432	22268
873.561	22268
873.69	22246
873.819	22154
873.948	22219
874.077	22162
874.206	22120
874.335	22150
874.464	22280
874.593	22478
874.722	22341
874.851	22481
874.979	22398
875.108	22557
875.237	22474
875.365	22329
875.494	22341
875.623	22554
875.751	22352
875.88	22398
876.008	22538
876.136	22554
876.265	22885
876.393	22892
876.521	22911
876.65	22934
876.778	22896
876.906	22778
877.034	22645
877.162	22710
877.29	22729
877.418	22763
877.546	22752
877.674	22702
877.802	22866
877.93	22850
878.058	22679
878.185	22599
878.313	22767
878.441	22816
878.568	22645
878.696	22717
878.824	22752
878.951	22782
879.079	22980
879.206	22984
879.333	22942
879.461	22797
879.588	22831
879.715	22999
879.842	22930
879.97	22847
880.097	22531
880.224	22538
880.351	22546
880.478	22546
880.605	22584
880.732	22546
880.859	22767
880.986	22577
881.112	22542
881.239	22478
881.366	22478
881.493	22154
881.619	22109
881.746	22238
881.872	22181
881.999	22090
882.125	22078
882.252	22238
882.378	22044
882.505	22230
882.631	22143
882.757	21899
882.883	22010
883.01	21911
883.136	21895
883.262	21816
883.388	21759
883.514	21823
883.64	22021
883.766	21797
883.892	21656
884.018	21675
884.143	21800
884.269	21895
884.395	21686
884.52	21603
884.646	21633
884.772	21386
884.897	21420
885.023	21549
885.148	21644
885.274	21694
885.399	21599
885.524	21545
885.65	21416
885.775	21538
885.9	21481
886.025	21663
886.15	21614
886.275	21408
886.4	21367
886.525	21393
886.65	21454
886.775	21412
886.9	21545
887.025	21728
887.149	21466
887.274	21302
887.399	21306
887.523	21386
887.648	21192
887.773	21169
887.897	21378
888.021	21245
888.146	21116
888.27	21321
888.395	21302
888.519	21302
888.643	21310
888.767	21344
888.891	21135
889.015	21066
889.139	20990
889.263	20967
889.387	21032
889.511	21260
889.635	21005
889.759	21013
889.883	21032
890.006	21020
890.13	21024
890.254	20872
890.377	20956
890.501	20834
890.624	20712
890.748	20765
890.871	20606
890.995	20507
891.118	20629
891.241	20640
891.364	20716
891.488	20621
891.611	20701
891.734	20484
891.857	20533
891.98	20625
892.103	20518
892.226	20560
892.349	20602
892.471	20278
892.594	20503
892.717	20613
892.839	20450
892.962	20552
893.085	20552
893.207	20446
893.33	20374
893.452	20347
893.575	20454
893.697	20385
893.819	20674
893.941	20735
894.064	20568
894.186	20404
894.308	20381
894.43	20511
894.552	20579
894.674	20541
894.796	20370
894.918	20446
895.04	20568
895.161	20560
895.283	20495
895.405	20415
895.526	20469
895.648	20351
895.769	20434
895.891	20522
896.012	20533
896.134	20499
896.255	20412
896.376	20393
896.498	20514
896.619	20598
896.74	20621
896.861	20606
896.982	20781
897.103	21020
897.224	20788
897.345	20750
897.466	20758
897.587	20724
897.708	20807
897.828	20765
897.949	20693
898.07	20579
898.19	20686
898.311	20746
898.431	20693
898.552	20655
898.672	20712
898.792	20705
898.913	20746
899.033	20537
899.153	20450
899.273	20294
899.393	20328
899.513	20355
899.633	20446
899.753	20389
899.873	20324
899.993	20317
900.113	20366
900.232	20431
900.352	20320
900.472	20221
900.591	20084
900.711	20134
900.83	20096
900.95	20206
901.069	20343
901.189	20027
901.308	19978
901.427	19727
901.546	19780
901.665	19811
901.784	19795
901.904	19594
902.023	19422
902.141	19293
902.26	19278
902.379	19228
902.498	19312
902.617	19232
902.735	19301
902.854	19133
902.973	19122
903.091	18806
903.21	18897
903.328	18829
903.446	18852
903.565	18700
903.683	18665
903.801	18445
903.919	18703
904.038	18608
904.156	18483
904.274	18570
904.392	18441
904.51	18456
904.627	18357
904.745	18498
904.863	18441
904.981	18209
905.098	18117
905.216	18125
905.334	18064
905.451	18159
905.569	18068
905.686	18038
905.803	18163
905.921	17847
906.038	17939
906.155	17855
906.272	17824
906.389	17737
906.506	17512
906.623	17600
906.74	17646
906.857	17615
906.974	17611
907.091	17691
907.208	17695
907.324	17760
907.441	17589
907.557	17337
907.674	17315
907.79	17269
907.907	17235
908.023	17292
908.139	17269
908.256	17140
908.372	17162
908.488	17151
908.604	17006
908.72	16987
908.836	17022
908.952	16877
909.068	16961
909.184	17041
909.3	16896
909.415	17022
909.531	16850
909.647	16725
909.762	16740
909.878	16649
909.993	16554
910.108	16672
910.224	16653
910.339	16588
910.454	16519
910.57	16451
910.685	16314
910.8	16580
910.915	16577
911.03	16386
911.145	16200
911.259	16196
911.374	16200
911.489	16196
911.604	16101
911.718	15926
911.833	15972
911.947	15930
912.062	15907
912.176	15949
912.291	15960
912.405	15975
912.519	16185
912.633	16158
912.748	15888
912.862	15922
912.976	15759
913.09	15671
913.204	15679
913.318	15698
913.431	15857
913.545	15808
913.659	15846
913.772	15599
913.886	15542
914	15595
914.113	15599
914.226	15682
914.34	15679
914.453	15496
914.566	15523
914.68	15488
914.793	15420
914.906	15233
915.019	15233
915.132	15119
915.245	15127
915.358	15241
915.47	15127
915.583	15108
915.696	15157
915.809	15302
915.921	15359
916.034	15028
916.146	15032
916.259	15036
916.371	15123
916.483	15169
916.595	15028
916.708	15036
916.82	14960
916.932	15024
917.044	15039
917.156	14963
917.268	14876
917.38	14853
917.491	14849
917.603	14811
917.715	14876
917.826	14830
917.938	14686
918.049	14621
918.161	14754
918.272	14861
918.384	14845
918.495	14743
918.606	14659
918.717	14552
918.828	14648
918.939	14629
919.05	14434
919.161	14579
919.272	14309
919.383	14362
919.494	14537
919.604	14788
919.715	14552
919.826	14404
919.936	14499
920.047	14575
920.157	14514
920.267	14610
920.378	14488
920.488	14396
920.598	14693
920.708	14815
920.818	14579
920.928	14625
921.038	14689
921.148	14754
921.258	14370
921.368	14317
921.477	14153
921.587	14240
921.697	14145
921.806	14233
921.916	14054
922.025	13928
922.134	13879
922.244	13742
922.353	13947
922.462	13719
922.571	13693
922.68	13518
922.789	13476
922.898	13483
923.007	13304
923.116	13445
923.224	13480
923.333	13392
923.442	13320
923.55	13285
923.659	13373
923.767	13381
923.876	13183
923.984	13263
924.092	13164
924.201	13232
924.309	13217
924.417	13088
924.525	13141
924.633	13251
924.741	13871
924.849	12958
924.956	13084
925.064	12951
925.172	12829
925.279	12821
925.387	12985
925.494	12878
925.602	13050
925.709	12951
925.816	12890
925.924	12901
926.031	12935
926.138	12878
926.245	12848
926.352	12817
926.459	12802
926.566	12909
926.673	12772
926.779	12589
926.886	12692
926.993	12563
927.099	12494
927.206	12445
927.312	12357
927.419	12471
927.525	12441
927.631	12422
927.737	12350
927.843	12407
927.95	12197
928.056	12254
928.162	12247
928.267	12311
928.373	12943
928.479	12319
928.585	12114
928.69	12213
928.796	12209
928.901	12140
929.007	11992
929.112	12121
929.218	12064
929.323	12053
929.428	11958
929.533	12049
929.638	11973
929.743	12019
929.848	12030
929.953	11977
930.058	11893
930.163	11733
930.267	11672
930.372	11821
930.477	11668
930.581	11840
930.685	11707
930.79	11528
930.894	11646
930.998	11459
931.103	11661
931.207	11299
931.311	11201
931.415	11098
931.519	10847
931.623	10965
