Data from test_V78500241_2289.txt Node
Date: Fri Mar 25 15:57:39 CST 2022
User: usil
Spectrometer: V785-0024
Trigger mode: 0
Integration Time (sec): 4.000000E-1
Scans to average: 1
Nonlinearity correction enabled: false
Boxcar width: 0
Storing dark spectrum: false
XAxis mode: Wavelengths
Number of Pixels in Spectrum: 1024
>>>>>Begin Spectral Data<<<<<
801.071	28873
801.214	28782
801.356	28573
801.499	28531
801.641	28561
801.783	28363
801.926	28390
802.068	28337
802.211	28382
802.353	28272
802.496	28166
802.638	28029
802.78	28048
802.923	28120
803.065	28036
803.208	28006
803.35	28124
803.492	28287
803.635	28394
803.777	28078
803.919	28204
804.061	28664
804.204	28318
804.346	28249
804.488	28230
804.63	28371
804.773	28158
804.915	28360
805.057	28588
805.199	28344
805.341	28436
805.483	28379
805.626	28557
805.768	28523
805.91	28519
806.052	28577
806.194	28348
806.336	28797
806.478	28603
806.62	28538
806.762	28675
806.904	28790
807.046	29075
807.188	28942
807.33	28767
807.472	29079
807.614	28923
807.756	29064
807.898	28843
808.04	28653
808.182	28866
808.324	28740
808.465	28877
808.607	29067
808.749	29140
808.891	29383
809.033	29387
809.174	29326
809.316	29136
809.458	29220
809.6	29094
809.741	29311
809.883	29372
810.025	29440
810.166	29467
810.308	29372
810.45	29501
810.591	29360
810.733	29140
810.875	29185
811.016	29189
811.158	29155
811.299	29151
811.441	29402
811.582	29440
811.724	29387
811.865	29269
812.007	29071
812.148	29315
812.29	29337
812.431	29417
812.573	29600
812.714	29623
812.855	29798
812.997	29805
813.138	30022
813.279	29786
813.421	29798
813.562	29695
813.703	29539
813.845	29421
813.986	29246
814.127	29216
814.268	28908
814.41	28911
814.551	28877
814.692	28927
814.833	28896
814.974	28991
815.115	28858
815.256	28938
815.397	28900
815.539	28820
815.68	28782
815.821	28691
815.962	28664
816.103	28725
816.244	28542
816.385	28497
816.526	28500
816.666	28291
816.807	28268
816.948	28409
817.089	28409
817.23	28303
817.371	28314
817.512	28356
817.653	28242
817.793	28105
817.934	28166
818.075	28303
818.216	28291
818.356	28219
818.497	28135
818.638	28017
818.778	28032
818.919	27945
819.06	28154
819.2	28082
819.341	28158
819.481	28215
819.622	28508
819.762	28641
819.903	28375
820.043	28440
820.184	28379
820.324	28318
820.465	28447
820.605	28401
820.746	28386
820.886	28261
821.026	28401
821.167	28348
821.307	28386
821.447	28303
821.588	28215
821.728	27930
821.868	27869
822.008	27865
822.149	27739
822.289	27739
822.429	27587
822.569	27454
822.709	27435
822.849	27412
822.99	27218
823.13	27252
823.27	27211
823.41	27062
823.55	26971
823.69	27123
823.83	27085
823.97	27001
824.11	26986
824.25	26849
824.389	26906
824.529	27066
824.669	26876
824.809	26986
824.949	26971
825.089	27043
825.228	26895
825.368	26750
825.508	26758
825.648	26762
825.787	26804
825.927	26750
826.067	26872
826.206	26777
826.346	26842
826.485	26868
826.625	26891
826.765	26864
826.904	26815
827.044	26606
827.183	26606
827.323	26507
827.462	26530
827.601	26522
827.741	26507
827.88	26412
828.02	26328
828.159	26476
828.298	26473
828.437	26503
828.577	26423
828.716	26537
828.855	26488
828.994	26187
829.134	26248
829.273	26237
829.412	26176
829.551	26119
829.69	25997
829.829	26183
829.968	26225
830.107	26259
830.246	26256
830.385	26088
830.524	26115
830.663	25795
830.802	25776
830.941	25807
831.08	25856
831.219	25852
831.357	25887
831.496	25871
831.635	25791
831.774	25708
831.913	25670
832.051	25567
832.19	25753
832.329	25464
832.467	25445
832.606	25339
832.744	25362
832.883	25407
833.022	25331
833.16	25411
833.299	25464
833.437	25499
833.576	25441
833.714	25529
833.852	25464
833.991	25689
834.129	25578
834.267	25594
834.406	25613
834.544	25590
834.682	25575
834.821	25426
834.959	25620
835.097	25518
835.235	25502
835.373	25426
835.511	25449
835.65	25362
835.788	25457
835.926	25183
836.064	25118
836.202	25156
836.34	25324
836.478	25422
836.615	25312
836.753	25282
836.891	25422
837.029	25316
837.167	25255
837.305	25274
837.443	25282
837.58	25187
837.718	25285
837.856	25152
837.993	25099
838.131	25160
838.269	25019
838.406	25080
838.544	24996
838.681	24875
838.819	24764
838.956	24757
839.094	24639
839.231	24684
839.369	24897
839.506	24977
839.643	24958
839.781	24745
839.918	24517
840.055	24601
840.193	24616
840.33	24505
840.467	24593
840.604	24623
840.742	24894
840.879	24285
841.016	24422
841.153	24399
841.29	24722
841.427	24456
841.564	24547
841.701	24441
841.838	24460
841.975	24414
842.112	24369
842.249	24361
842.385	24304
842.522	24665
842.659	24300
842.796	24243
842.933	24300
843.069	24311
843.206	24319
843.343	24376
843.479	24372
843.616	24243
843.752	24121
843.889	24140
844.025	24273
844.162	23973
844.298	24216
844.435	24102
844.571	23961
844.708	24133
844.844	24277
844.98	24117
845.117	24064
845.253	24057
845.389	23832
845.525	23954
845.661	23817
845.798	23710
845.934	23885
846.07	23680
846.206	23783
846.342	23843
846.478	23649
846.614	23627
846.75	23554
846.886	23421
847.022	23501
847.158	23497
847.294	23516
847.429	23395
847.565	23509
847.701	23756
847.837	23296
847.972	23147
848.108	23292
848.244	23242
848.379	23132
848.515	23102
848.65	23044
848.786	23086
848.921	23105
849.057	23170
849.192	23208
849.328	23128
849.463	23003
849.598	23025
849.734	23071
849.869	22911
850.004	22843
850.14	22843
850.275	22892
850.41	22767
850.545	22824
850.68	22736
850.815	22938
850.95	22839
851.085	23044
851.22	22782
851.355	22862
851.49	22809
851.625	22786
851.76	22771
851.895	22805
852.03	22748
852.165	22812
852.299	22946
852.434	23014
852.569	22881
852.703	22873
852.838	22980
852.973	22923
853.107	22942
853.242	22740
853.376	22672
853.511	22478
853.645	22641
853.78	22759
853.914	22733
854.048	22596
854.183	22641
854.317	22767
854.451	22904
854.585	22702
854.72	22656
854.854	22713
854.988	22679
855.122	22694
855.256	22546
855.39	22626
855.524	22816
855.658	22713
855.792	22637
855.926	22759
856.06	22710
856.194	22656
856.327	22763
856.461	22656
856.595	22615
856.729	22691
856.862	22691
856.996	22557
857.13	22641
857.263	22634
857.397	22675
857.53	22706
857.664	22645
857.797	22752
857.931	22767
858.064	22797
858.197	22790
858.331	22584
858.464	22672
858.597	22577
858.731	22519
858.864	22531
858.997	22653
859.13	22546
859.263	22626
859.396	22774
859.529	22675
859.662	22615
859.795	22550
859.928	22740
860.061	22824
860.194	22873
860.327	22706
860.46	22611
860.592	22729
860.725	22721
860.858	22805
860.99	22603
861.123	22535
861.256	22698
861.388	22584
861.521	23341
861.653	22512
861.786	22363
861.918	22447
862.05	22497
862.183	22634
862.315	22637
862.447	22664
862.58	22512
862.712	22409
862.844	22181
862.976	22451
863.108	22440
863.24	22805
863.372	22253
863.504	22398
863.636	22333
863.768	22432
863.9	22329
864.032	22215
864.164	22344
864.296	22371
864.428	22402
864.559	22367
864.691	22322
864.823	22356
864.954	22485
865.086	22360
865.217	22204
865.349	22120
865.48	22265
865.612	22238
865.743	22360
865.875	22249
866.006	22242
866.137	22150
866.269	22272
866.4	22215
866.531	22150
866.662	22192
866.793	22128
866.924	22032
867.055	22131
867.186	22249
867.317	22196
867.448	22006
867.579	22139
867.71	22185
867.841	21994
867.972	22139
868.103	22249
868.233	22181
868.364	22036
868.495	22192
868.625	22386
868.756	22527
868.886	22318
869.017	22375
869.147	22447
869.278	22504
869.408	22421
869.539	22440
869.669	22455
869.799	22428
869.929	22481
870.06	22485
870.19	22725
870.32	22710
870.45	22869
870.58	22725
870.71	22934
870.84	22881
870.97	22850
871.1	22778
871.23	22946
871.36	23010
871.489	22953
871.619	22976
871.749	22908
871.879	23003
872.008	23094
872.138	23067
872.267	23029
872.397	22965
872.526	22744
872.656	22854
872.785	22805
872.915	22942
873.044	23147
873.173	22980
873.303	23121
873.432	23117
873.561	23128
873.69	23079
873.819	23022
873.948	23041
874.077	23083
874.206	22999
874.335	23029
874.464	23033
874.593	23254
874.722	23254
874.851	23326
874.979	23147
875.108	23239
875.237	23208
875.365	23075
875.494	23197
875.623	23246
875.751	23140
875.88	23200
876.008	23391
876.136	23467
876.265	23661
876.393	23684
876.521	23676
876.65	23756
876.778	23543
876.906	23596
877.034	23566
877.162	23672
877.29	23646
877.418	23611
877.546	23665
877.674	23516
877.802	23623
877.93	23459
878.058	23486
878.185	23406
878.313	23387
878.441	23452
878.568	23379
878.696	23566
878.824	23589
878.951	23577
879.079	23790
879.206	23931
879.333	23638
879.461	23566
879.588	23680
879.715	23581
879.842	23828
879.97	23672
880.097	23433
880.224	23398
880.351	23406
880.478	23284
880.605	23296
880.732	23402
880.859	23608
880.986	23509
881.112	23501
881.239	23322
881.366	23147
881.493	23067
881.619	22953
881.746	23018
881.872	22953
881.999	22908
882.125	22889
882.252	23060
882.378	22862
882.505	23064
882.631	22755
882.757	22599
882.883	22729
883.01	22569
883.136	22542
883.262	22512
883.388	22573
883.514	22565
883.64	22664
883.766	22561
883.892	22363
884.018	22276
884.143	22588
884.269	22626
884.395	22291
884.52	22234
884.646	22261
884.772	22196
884.897	22181
885.023	22192
885.148	22261
885.274	22261
885.399	22379
885.524	22200
885.65	22150
885.775	22223
885.9	22226
886.025	22333
886.15	22329
886.275	22318
886.4	22246
886.525	22135
886.65	22143
886.775	22086
886.9	22322
887.025	22360
887.149	22150
887.274	22032
887.399	21968
887.523	21915
887.648	21915
887.773	21979
887.897	22093
888.021	21983
888.146	21922
888.27	22070
888.395	22154
888.519	22010
888.643	22059
888.767	21998
888.891	21926
889.015	21804
889.139	21888
889.263	21751
889.387	21816
889.511	21953
889.635	21991
889.759	21759
889.883	21876
890.006	21724
890.13	21823
890.254	21656
890.377	21656
890.501	21519
890.624	21538
890.748	21553
890.871	21431
890.995	21443
891.118	21268
891.241	21439
891.364	21393
891.488	21412
891.611	21264
891.734	21428
891.857	21557
891.98	21416
892.103	21336
892.226	21298
892.349	21268
892.471	21169
892.594	21188
892.717	21249
892.839	21214
892.962	21230
893.085	21332
893.207	21184
893.33	21192
893.452	21165
893.575	21199
893.697	21199
893.819	21408
893.941	21382
894.064	21321
894.186	21199
894.308	21043
894.43	21321
894.552	21378
894.674	21275
894.796	21173
894.918	21214
895.04	21142
895.161	21161
895.283	21351
895.405	21058
895.526	21310
895.648	21222
895.769	21157
895.891	21203
896.012	21405
896.134	21249
896.255	21272
896.376	21165
896.498	21214
896.619	21249
896.74	21249
896.861	21279
896.982	21462
897.103	21496
897.224	21389
897.345	21401
897.466	21294
897.587	21435
897.708	21572
897.828	21370
897.949	21332
898.07	21237
898.19	21287
898.311	21405
898.431	21393
898.552	21367
898.672	21348
898.792	21477
898.913	21237
899.033	21268
899.153	21233
899.273	21013
899.393	21245
899.513	21211
899.633	21154
899.753	21131
899.873	21017
899.993	21195
900.113	21112
900.232	20994
900.352	21051
900.472	20979
900.591	20914
900.711	20899
900.83	20811
900.95	20937
901.069	20998
901.189	20811
901.308	20545
901.427	20533
901.546	20385
901.665	20522
901.784	20514
901.904	20343
902.023	20259
902.141	19928
902.26	20100
902.379	20183
902.498	19936
902.617	19883
902.735	20039
902.854	19883
902.973	19887
903.091	19601
903.21	19677
903.328	19715
903.446	19510
903.565	19453
903.683	19460
903.801	19285
903.919	19293
904.038	19289
904.156	19225
904.274	19232
904.392	19168
904.51	19145
904.627	19206
904.745	19225
904.863	19206
904.981	18962
905.098	18856
905.216	18856
905.334	18886
905.451	18856
905.569	18814
905.686	18882
905.803	18650
905.921	18532
906.038	18646
906.155	18513
906.272	18620
906.389	18608
906.506	18216
906.623	18452
906.74	18380
906.857	18342
906.974	18273
907.091	18369
907.208	18441
907.324	18350
907.441	18281
907.557	18121
907.674	18095
907.79	18102
907.907	18091
908.023	18072
908.139	18019
908.256	18041
908.372	17958
908.488	17977
908.604	17805
908.72	17783
908.836	17748
908.952	17767
909.068	17920
909.184	17843
909.3	17703
909.415	17714
909.531	17756
909.647	17547
909.762	17554
909.878	17532
909.993	17482
910.108	17482
910.224	17452
910.339	17448
910.454	17376
910.57	17337
910.685	17178
910.8	17452
910.915	17379
911.03	17143
911.145	17090
911.259	17033
911.374	17105
911.489	16938
911.604	17033
911.718	16755
911.833	16771
911.947	16721
912.062	16531
912.176	16812
912.291	16771
912.405	16755
912.519	16869
912.633	16980
912.748	16847
912.862	16691
912.976	16599
913.09	16436
913.204	16550
913.318	16538
913.431	16713
913.545	16588
913.659	16679
913.772	16607
913.886	16363
914	16413
914.113	16466
914.226	16474
914.34	16451
914.453	16166
914.566	16459
914.68	16226
914.793	16246
914.906	15975
915.019	15994
915.132	15873
915.245	15911
915.358	16040
915.47	15972
915.583	15975
915.696	15960
915.809	16032
915.921	16139
916.034	15850
916.146	15888
916.259	15793
916.371	15941
916.483	15873
916.595	15850
916.708	15698
916.82	15797
916.932	15774
917.044	15770
917.156	15724
917.268	15564
917.38	15553
917.491	15690
917.603	15603
917.715	15686
917.826	15667
917.938	15511
918.049	15443
918.161	15481
918.272	15713
918.384	15637
918.495	15553
918.606	15386
918.717	15283
918.828	15439
918.939	15454
919.05	15211
919.161	15374
919.272	15062
919.383	15108
919.494	15241
919.604	15549
919.715	15241
919.826	15165
919.936	15287
920.047	15389
920.157	15165
920.267	15545
920.378	15306
920.488	15230
920.598	15469
920.708	15568
920.818	15389
920.928	15363
921.038	15523
921.148	15584
921.258	15142
921.368	15116
921.477	15051
921.587	15058
921.697	14895
921.806	14986
921.916	14849
922.025	14705
922.134	14590
922.244	14606
922.353	14640
922.462	14450
922.571	14469
922.68	14278
922.789	14286
922.898	14298
923.007	14126
923.116	14362
923.224	14233
923.333	14191
923.442	14161
923.55	14088
923.659	14183
923.767	14119
923.876	14027
923.984	14058
924.092	13986
924.201	13970
924.309	13955
924.417	13963
924.525	13826
924.633	13921
924.741	14868
924.849	13693
924.956	13852
925.064	13639
925.172	13597
925.279	13632
925.387	13651
925.494	13677
925.602	13788
925.709	13582
925.816	13449
925.924	13594
926.031	13677
926.138	13567
926.245	13624
926.352	13468
926.459	13559
926.566	13616
926.673	13392
926.779	13293
926.886	13392
926.993	13236
927.099	13221
927.206	13080
927.312	13202
927.419	13149
927.525	13137
927.631	13198
927.737	13057
927.843	13004
927.95	12932
928.056	12958
928.162	12996
928.267	13072
928.373	13639
928.479	12996
928.585	12856
928.69	12875
928.796	12856
928.901	12821
929.007	12711
929.112	12863
929.218	12753
929.323	12688
929.428	12726
929.533	12798
929.638	12681
929.743	12684
929.848	12692
929.953	12635
930.058	12582
930.163	12502
930.267	12414
930.372	12437
930.477	12361
930.581	12555
930.685	12429
930.79	12292
930.894	12277
930.998	12273
931.103	12330
931.207	11965
931.311	12057
931.415	11863
931.519	11600
931.623	11627
