Data from test_V78500241_3726.txt Node
Date: Fri Mar 25 16:07:36 CST 2022
User: usil
Spectrometer: V785-0024
Trigger mode: 0
Integration Time (sec): 4.000000E-1
Scans to average: 1
Nonlinearity correction enabled: false
Boxcar width: 0
Storing dark spectrum: false
XAxis mode: Wavelengths
Number of Pixels in Spectrum: 1024
>>>>>Begin Spectral Data<<<<<
801.071	28337
801.214	28268
801.356	27949
801.499	27968
801.641	27751
801.783	27732
801.926	27892
802.068	27739
802.211	27682
802.353	27679
802.496	27603
802.638	27595
802.78	27610
802.923	27378
803.065	27416
803.208	27477
803.35	27519
803.492	27625
803.635	27633
803.777	27606
803.919	27736
804.061	28032
804.204	27797
804.346	27587
804.488	27500
804.63	27705
804.773	27675
804.915	27823
805.057	27819
805.199	27694
805.341	27835
805.483	27854
805.626	27747
805.768	27739
805.91	27797
806.052	27876
806.194	27823
806.336	27941
806.478	27827
806.62	27918
806.762	28116
806.904	28082
807.046	28356
807.188	28375
807.33	28261
807.472	28386
807.614	28223
807.756	28078
807.898	28147
808.04	28032
808.182	28021
808.324	28082
808.465	28181
808.607	28318
808.749	28546
808.891	28653
809.033	28740
809.174	28557
809.316	28611
809.458	28512
809.6	28580
809.741	28550
809.883	28683
810.025	28801
810.166	28839
810.308	28812
810.45	28535
810.591	28755
810.733	28516
810.875	28428
811.016	28485
811.158	28436
811.299	28653
811.441	28694
811.582	28596
811.724	28557
811.865	28333
812.007	28546
812.148	28474
812.29	28527
812.431	28736
812.573	28729
812.714	29003
812.855	29189
812.997	29067
813.138	29299
813.279	29223
813.421	29193
813.562	28946
813.703	28763
813.845	28706
813.986	28447
814.127	28325
814.268	28173
814.41	28386
814.551	28333
814.692	28249
814.833	28181
814.974	28124
815.115	28162
815.256	28090
815.397	28162
815.539	28143
815.68	27934
815.821	27960
815.962	28055
816.103	28021
816.244	27835
816.385	27819
816.526	27827
816.666	27606
816.807	27496
816.948	27595
817.089	27603
817.23	27572
817.371	27515
817.512	27416
817.653	27443
817.793	27481
817.934	27504
818.075	27462
818.216	27492
818.356	27473
818.497	27397
818.638	27310
818.778	27241
818.919	27085
819.06	27435
819.2	27397
819.341	27587
819.481	27466
819.622	27583
819.762	27930
819.903	27808
820.043	27717
820.184	27648
820.324	27717
820.465	27705
820.605	27545
820.746	27618
820.886	27568
821.026	27736
821.167	27648
821.307	27587
821.447	27652
821.588	27382
821.728	27329
821.868	27070
822.008	27024
822.149	26963
822.289	27070
822.429	26785
822.569	26575
822.709	26640
822.849	26545
822.99	26457
823.13	26385
823.27	26412
823.41	26332
823.55	26153
823.69	26347
823.83	26282
823.97	26267
824.11	26240
824.25	26092
824.389	26294
824.529	26161
824.669	26126
824.809	26145
824.949	26100
825.089	26168
825.228	26084
825.368	26073
825.508	25936
825.648	26008
825.787	26020
825.927	26096
826.067	25925
826.206	26069
826.346	26043
826.485	26130
826.625	25947
826.765	26111
826.904	26206
827.044	25917
827.183	25750
827.323	25738
827.462	25776
827.601	25731
827.741	25845
827.88	25864
828.02	25746
828.159	25727
828.298	25700
828.437	25830
828.577	25769
828.716	25719
828.855	25597
828.994	25460
829.134	25460
829.273	25525
829.412	25499
829.551	25301
829.69	25449
829.829	25529
829.968	25419
830.107	25537
830.246	25510
830.385	25324
830.524	25255
830.663	25331
830.802	25251
830.941	25114
831.08	25183
831.219	25065
831.357	25213
831.496	25266
831.635	25057
831.774	24977
831.913	24996
832.051	24924
832.19	24821
832.329	24776
832.467	24825
832.606	24639
832.744	24703
832.883	24681
833.022	24757
833.16	24642
833.299	24696
833.437	24764
833.576	24719
833.714	24749
833.852	24825
833.991	24837
834.129	24738
834.267	24935
834.406	24882
834.544	24817
834.682	24760
834.821	24757
834.959	24958
835.097	24722
835.235	24852
835.373	24852
835.511	24760
835.65	24677
835.788	24601
835.926	24467
836.064	24220
836.202	24467
836.34	24570
836.478	24711
836.615	24517
836.753	24639
836.891	24715
837.029	24650
837.167	24574
837.305	24456
837.443	24422
837.58	24528
837.718	24452
837.856	24536
837.993	24418
838.131	24456
838.269	24289
838.406	24285
838.544	24171
838.681	24216
838.819	24007
838.956	23870
839.094	23874
839.231	23958
839.369	24110
839.506	24429
839.643	24194
839.781	23912
839.918	23786
840.055	23965
840.193	23870
840.33	23729
840.467	23802
840.604	23889
840.742	24110
840.879	23547
841.016	23695
841.153	23729
841.29	23870
841.427	23794
841.564	23790
841.701	23836
841.838	23840
841.975	23615
842.112	23729
842.249	23634
842.385	23627
842.522	23718
842.659	23687
842.796	23585
842.933	23623
843.069	23589
843.206	23558
843.343	23630
843.479	23425
843.616	23551
843.752	23330
843.889	23414
844.025	23543
844.162	23376
844.298	23493
844.435	23356
844.571	23368
844.708	23322
844.844	23531
844.98	23459
845.117	23455
845.253	23368
845.389	23303
845.525	23261
845.661	23147
845.798	23014
845.934	23265
846.07	23014
846.206	23121
846.342	23174
846.478	23147
846.614	22965
846.75	22831
846.886	22755
847.022	22824
847.158	22809
847.294	22824
847.429	22927
847.565	22816
847.701	23033
847.837	22561
847.972	22683
848.108	22584
848.244	22569
848.379	22356
848.515	22333
848.65	22375
848.786	22436
848.921	22356
849.057	22500
849.192	22443
849.328	22474
849.463	22314
849.598	22363
849.734	22253
849.869	22261
850.004	22181
850.14	22154
850.275	22158
850.41	22112
850.545	22162
850.68	22246
850.815	22181
850.95	22196
851.085	22329
851.22	22287
851.355	22211
851.49	22177
851.625	22124
851.76	22086
851.895	22090
852.03	22162
852.165	22143
852.299	22230
852.434	22314
852.569	22158
852.703	22169
852.838	22188
852.973	22234
853.107	22223
853.242	22173
853.376	21964
853.511	22025
853.645	21945
853.78	22192
853.914	21953
854.048	22166
854.183	22021
854.317	22013
854.451	22150
854.585	22017
854.72	21998
854.854	22093
854.988	21991
855.122	22032
855.256	21850
855.39	21922
855.524	22143
855.658	21979
855.792	21975
855.926	22067
856.06	22002
856.194	21991
856.327	22021
856.461	21918
856.595	22010
856.729	21949
856.862	21960
856.996	22013
857.13	21960
857.263	22143
857.397	22070
857.53	21991
857.664	22010
857.797	22078
857.931	22040
858.064	22055
858.197	22055
858.331	22021
858.464	21994
858.597	21953
858.731	22010
858.864	21873
858.997	21941
859.13	21968
859.263	21926
859.396	22067
859.529	21987
859.662	21998
859.795	21937
859.928	21987
860.061	22078
860.194	22150
860.327	22032
860.46	22025
860.592	22116
860.725	22105
860.858	22177
860.99	22051
861.123	21975
861.256	21949
861.388	22063
861.521	22733
861.653	21827
861.786	21850
861.918	21823
862.05	21842
862.183	21949
862.315	21991
862.447	22029
862.58	21895
862.712	21854
862.844	21698
862.976	21778
863.108	21766
863.24	22223
863.372	21705
863.504	21679
863.636	21686
863.768	21736
863.9	21701
864.032	21618
864.164	21633
864.296	21690
864.428	21819
864.559	21770
864.691	21785
864.823	21865
864.954	21660
865.086	21663
865.217	21523
865.349	21549
865.48	21618
865.612	21606
865.743	21793
865.875	21736
866.006	21591
866.137	21618
866.269	21568
866.4	21545
866.531	21610
866.662	21439
866.793	21526
866.924	21606
867.055	21591
867.186	21488
867.317	21523
867.448	21473
867.579	21488
867.71	21367
867.841	21416
867.972	21511
868.103	21488
868.233	21504
868.364	21526
868.495	21496
868.625	21808
868.756	21880
868.886	21663
869.017	21823
869.147	21823
869.278	21880
869.408	21720
869.539	21808
869.669	21797
869.799	21785
869.929	21953
870.06	21789
870.19	22032
870.32	22021
870.45	22032
870.58	22188
870.71	22344
870.84	22318
870.97	22158
871.1	22135
871.23	22390
871.36	22246
871.489	22287
871.619	22371
871.749	22417
871.879	22424
872.008	22500
872.138	22268
872.267	22280
872.397	22242
872.526	22158
872.656	22131
872.785	22238
872.915	22440
873.044	22447
873.173	22310
873.303	22405
873.432	22474
873.561	22512
873.69	22417
873.819	22402
873.948	22424
874.077	22314
874.206	22394
874.335	22382
874.464	22500
874.593	22580
874.722	22470
874.851	22641
874.979	22508
875.108	22649
875.237	22607
875.365	22641
875.494	22649
875.623	22721
875.751	22542
875.88	22660
876.008	22755
876.136	22797
876.265	23064
876.393	23189
876.521	23159
876.65	23147
876.778	23056
876.906	22911
877.034	22911
877.162	22927
877.29	22892
877.418	22984
877.546	23014
877.674	22999
877.802	23109
877.93	22812
878.058	23105
878.185	22923
878.313	22927
878.441	22953
878.568	22740
878.696	22850
878.824	22946
878.951	23056
879.079	23052
879.206	23220
879.333	23102
879.461	23083
879.588	23113
879.715	23102
879.842	23269
879.97	23075
880.097	22839
880.224	22771
880.351	22881
880.478	22752
880.605	22626
880.732	22668
880.859	23041
880.986	22740
881.112	22908
881.239	22778
881.366	22382
881.493	22599
881.619	22344
881.746	22405
881.872	22348
881.999	22371
882.125	22306
882.252	22375
882.378	22325
882.505	22382
882.631	22181
882.757	22010
882.883	22074
883.01	22086
883.136	21960
883.262	21819
883.388	21819
883.514	22017
883.64	21991
883.766	21869
883.892	21751
884.018	21789
884.143	21972
884.269	21987
884.395	21770
884.52	21637
884.646	21720
884.772	21606
884.897	21572
885.023	21705
885.148	21739
885.274	21865
885.399	21781
885.524	21614
885.65	21682
885.775	21671
885.9	21739
886.025	21789
886.15	21728
886.275	21660
886.4	21477
886.525	21591
886.65	21523
886.775	21671
886.9	21816
887.025	21812
887.149	21587
887.274	21397
887.399	21431
887.523	21435
887.648	21378
887.773	21359
887.897	21454
888.021	21500
888.146	21268
888.27	21450
888.395	21477
888.519	21374
888.643	21523
888.767	21382
888.891	21256
889.015	21237
889.139	21256
889.263	21237
889.387	21260
889.511	21252
889.635	21294
889.759	21260
889.883	21173
890.006	21233
890.13	21207
890.254	21085
890.377	21184
890.501	20979
890.624	20971
890.748	20998
890.871	20861
890.995	20746
891.118	20659
891.241	20857
891.364	20823
891.488	20895
891.611	20918
891.734	20861
891.857	20758
891.98	20716
892.103	20716
892.226	20758
892.349	20720
892.471	20560
892.594	20655
892.717	20807
892.839	20678
892.962	20629
893.085	20788
893.207	20583
893.33	20537
893.452	20518
893.575	20861
893.697	20689
893.819	20796
893.941	20788
894.064	20811
894.186	20705
894.308	20552
894.43	20712
894.552	20758
894.674	20701
894.796	20537
894.918	20514
895.04	20640
895.161	20655
895.283	20739
895.405	20495
895.526	20465
895.648	20644
895.769	20651
895.891	20636
896.012	20743
896.134	20659
896.255	20659
896.376	20579
896.498	20629
896.619	20735
896.74	20621
896.861	20792
896.982	20979
897.103	21222
897.224	20956
897.345	20853
897.466	20697
897.587	20937
897.708	20948
897.828	20876
897.949	20739
898.07	20739
898.19	20887
898.311	20906
898.431	20796
898.552	20849
898.672	20990
898.792	20963
898.913	20823
899.033	20739
899.153	20682
899.273	20571
899.393	20613
899.513	20533
899.633	20705
899.753	20727
899.873	20568
899.993	20636
900.113	20412
900.232	20571
900.352	20629
900.472	20461
900.591	20366
900.711	20473
900.83	20347
900.95	20495
901.069	20427
901.189	20237
901.308	20077
901.427	19932
901.546	19997
901.665	20043
901.784	19932
901.904	19795
902.023	19693
902.141	19502
902.26	19377
902.379	19628
902.498	19415
902.617	19419
902.735	19480
902.854	19480
902.973	19377
903.091	19164
903.21	19076
903.328	19046
903.446	19103
903.565	18966
903.683	19069
903.801	18871
903.919	18878
904.038	18897
904.156	18673
904.274	18661
904.392	18658
904.51	18677
904.627	18639
904.745	18658
904.863	18597
904.981	18429
905.098	18319
905.216	18384
905.334	18483
905.451	18456
905.569	18285
905.686	18319
905.803	18311
905.921	18186
906.038	18235
906.155	18117
906.272	18057
906.389	18106
906.506	17946
906.623	17965
906.74	17889
906.857	17878
906.974	17745
907.091	18019
907.208	17996
907.324	17992
907.441	17851
907.557	17611
907.674	17638
907.79	17524
907.907	17600
908.023	17611
908.139	17627
908.256	17524
908.372	17509
908.488	17493
908.604	17273
908.72	17269
908.836	17269
908.952	17235
909.068	17307
909.184	17364
909.3	17368
909.415	17360
909.531	17258
909.647	17079
909.762	17022
909.878	16877
909.993	17003
910.108	16927
910.224	16892
910.339	16968
910.454	16831
910.57	16744
910.685	16717
910.8	16980
910.915	16885
911.03	16862
911.145	16702
911.259	16592
911.374	16565
911.489	16478
911.604	16455
911.718	16428
911.833	16352
911.947	16177
912.062	16166
912.176	16299
912.291	16424
912.405	16272
912.519	16485
912.633	16512
912.748	16276
912.862	16329
912.976	16238
913.09	16090
913.204	16112
913.318	16280
913.431	16196
913.545	16261
913.659	16181
913.772	16204
913.886	15960
914	15873
914.113	16029
914.226	16029
914.34	16059
914.453	15926
914.566	16025
914.68	15804
914.793	15751
914.906	15610
915.019	15515
915.132	15428
915.245	15458
915.358	15610
915.47	15545
915.583	15526
915.696	15515
915.809	15660
915.921	15633
916.034	15481
916.146	15496
916.259	15351
916.371	15477
916.483	15469
916.595	15355
916.708	15378
916.82	15363
916.932	15370
917.044	15272
917.156	15340
917.268	15214
917.38	15176
917.491	15097
917.603	15184
917.715	15218
917.826	15249
917.938	15066
918.049	15081
918.161	15055
918.272	15302
918.384	15195
918.495	15112
918.606	14929
918.717	14834
918.828	14872
918.939	14929
919.05	14765
919.161	14899
919.272	14682
919.383	14758
919.494	14941
919.604	15116
919.715	14895
919.826	14857
919.936	14842
920.047	15017
920.157	14883
920.267	14979
920.378	14891
920.488	14925
920.598	14990
920.708	15169
920.818	14967
920.928	14986
921.038	15150
921.148	15077
921.258	14773
921.368	14830
921.477	14682
921.587	14655
921.697	14488
921.806	14575
921.916	14427
922.025	14343
922.134	14240
922.244	14298
922.353	14336
922.462	14134
922.571	14103
922.68	13902
922.789	13970
922.898	13967
923.007	13784
923.116	13978
923.224	13837
923.333	13852
923.442	13841
923.55	13632
923.659	13746
923.767	13841
923.876	13662
923.984	13746
924.092	13605
924.201	13670
924.309	13727
924.417	13636
924.525	13582
924.633	13590
924.741	14324
924.849	13343
924.956	13518
925.064	13369
925.172	13198
925.279	13217
925.387	13297
925.494	13266
925.602	13415
925.709	13339
925.816	13240
925.924	13187
926.031	13194
926.138	13274
926.245	13415
926.352	13168
926.459	13308
926.566	13225
926.673	13145
926.779	13103
926.886	13069
926.993	12935
927.099	12970
927.206	12757
927.312	12700
927.419	12909
927.525	12825
927.631	12821
927.737	12802
927.843	12642
927.95	12593
928.056	12662
928.162	12688
928.267	12719
928.373	13320
928.479	12726
928.585	12517
928.69	12593
928.796	12601
928.901	12517
929.007	12399
929.112	12490
929.218	12448
929.323	12353
929.428	12376
929.533	12460
929.638	12338
929.743	12273
929.848	12361
929.953	12319
930.058	12216
930.163	12045
930.267	12095
930.372	12163
930.477	12057
930.581	12281
930.685	12155
930.79	11904
930.894	11939
930.998	11870
931.103	11999
931.207	11672
931.311	11585
931.415	11570
931.519	11376
931.623	11398
