Data from test_V78500241_804.txt Node
Date: Fri Mar 25 15:47:22 CST 2022
User: usil
Spectrometer: V785-0024
Trigger mode: 0
Integration Time (sec): 4.000000E-1
Scans to average: 1
Nonlinearity correction enabled: false
Boxcar width: 0
Storing dark spectrum: false
XAxis mode: Wavelengths
Number of Pixels in Spectrum: 1024
>>>>>Begin Spectral Data<<<<<
801.071	27755
801.214	27747
801.356	27454
801.499	27359
801.641	27447
801.783	27485
801.926	27587
802.068	27291
802.211	27279
802.353	27298
802.496	27043
802.638	26960
802.78	27116
802.923	27066
803.065	26948
803.208	27104
803.35	27055
803.492	26948
803.635	27104
803.777	27070
803.919	27119
804.061	27576
804.204	27260
804.346	27108
804.488	27005
804.63	27119
804.773	27085
804.915	27325
805.057	27256
805.199	27112
805.341	27214
805.483	27287
805.626	27363
805.768	27431
805.91	27389
806.052	27272
806.194	27188
806.336	27534
806.478	27538
806.62	27374
806.762	27507
806.904	27641
807.046	27675
807.188	27759
807.33	27778
807.472	27876
807.614	27641
807.756	27603
807.898	27595
808.04	27679
808.182	27496
808.324	27545
808.465	27641
808.607	27793
808.749	28017
808.891	28109
809.033	28128
809.174	28002
809.316	28021
809.458	28063
809.6	28013
809.741	28234
809.883	28238
810.025	28261
810.166	28337
810.308	28367
810.45	28432
810.591	28147
810.733	27979
810.875	27854
811.016	27865
811.158	27941
811.299	28143
811.441	28280
811.582	28166
811.724	28097
811.865	27922
812.007	27956
812.148	27892
812.29	28135
812.431	28109
812.573	28394
812.714	28371
812.855	28516
812.997	28584
813.138	28744
813.279	28679
813.421	28637
813.562	28596
813.703	28379
813.845	28249
813.986	27960
814.127	27667
814.268	27800
814.41	27720
814.551	27762
814.692	27595
814.833	27648
814.974	27717
815.115	27641
815.256	27561
815.397	27557
815.539	27553
815.68	27523
815.821	27374
815.962	27416
816.103	27458
816.244	27249
816.385	27344
816.526	27340
816.666	27074
816.807	26929
816.948	26975
817.089	27222
817.23	27089
817.371	27154
817.512	26906
817.653	26944
817.793	26857
817.934	26956
818.075	26910
818.216	27028
818.356	26960
818.497	26861
818.638	26750
818.778	26727
818.919	26819
819.06	26796
819.2	26834
819.341	27017
819.481	27009
819.622	27074
819.762	27367
819.903	27207
820.043	27032
820.184	27131
820.324	27039
820.465	27058
820.605	27077
820.746	26998
820.886	26861
821.026	27081
821.167	26918
821.307	27074
821.447	27070
821.588	26838
821.728	26746
821.868	26621
822.008	26514
822.149	26427
822.289	26423
822.429	26267
822.569	25955
822.709	26142
822.849	26039
822.99	25928
823.13	26050
823.27	25906
823.41	25761
823.55	25700
823.69	25822
823.83	25723
823.97	25719
824.11	25540
824.25	25689
824.389	25700
824.529	25674
824.669	25616
824.809	25693
824.949	25696
825.089	25750
825.228	25753
825.368	25533
825.508	25487
825.648	25388
825.787	25529
825.927	25620
826.067	25460
826.206	25445
826.346	25525
826.485	25616
826.625	25460
826.765	25529
826.904	25575
827.044	25145
827.183	25232
827.323	25110
827.462	25377
827.601	25190
827.741	25255
827.88	25289
828.02	25050
828.159	24947
828.298	25247
828.437	25274
828.577	25057
828.716	25297
828.855	25091
828.994	24867
829.134	24890
829.273	24882
829.412	24745
829.551	24852
829.69	24783
829.829	24939
829.968	24905
830.107	25004
830.246	24886
830.385	24764
830.524	24806
830.663	24707
830.802	24627
830.941	24505
831.08	24555
831.219	24574
831.357	24528
831.496	24844
831.635	24525
831.774	24509
831.913	24365
832.051	24304
832.19	24220
832.329	24304
832.467	24247
832.606	23977
832.744	24110
832.883	24152
833.022	24194
833.16	24182
833.299	24129
833.437	24148
833.576	24270
833.714	24190
833.852	24167
833.991	24346
834.129	24441
834.267	24262
834.406	24174
834.544	24338
834.682	24243
834.821	24133
834.959	24315
835.097	24091
835.235	24327
835.373	24091
835.511	24224
835.65	24197
835.788	24076
835.926	23920
836.064	23980
836.202	23847
836.34	24011
836.478	24064
836.615	24114
836.753	24121
836.891	24114
837.029	24121
837.167	24011
837.305	23927
837.443	23950
837.58	23916
837.718	23843
837.856	23912
837.993	23813
838.131	23901
838.269	23813
838.406	23695
838.544	23630
838.681	23585
838.819	23436
838.956	23387
839.094	23364
839.231	23406
839.369	23573
839.506	23726
839.643	23573
839.781	23436
839.918	23227
840.055	23368
840.193	23292
840.33	23334
840.467	23239
840.604	23379
840.742	23554
840.879	23060
841.016	23197
841.153	23212
841.29	23429
841.427	23239
841.564	23265
841.701	23261
841.838	23235
841.975	23117
842.112	23216
842.249	23090
842.385	23018
842.522	23254
842.659	23029
842.796	23033
842.933	22862
843.069	22987
843.206	22972
843.343	23071
843.479	22995
843.616	23041
843.752	22786
843.889	22729
844.025	22980
844.162	22771
844.298	22850
844.435	22771
844.571	22797
844.708	22805
844.844	22889
844.98	22946
845.117	22885
845.253	22771
845.389	22565
845.525	22683
845.661	22687
845.798	22599
845.934	22565
846.07	22481
846.206	22428
846.342	22752
846.478	22573
846.614	22280
846.75	22230
846.886	22329
847.022	22318
847.158	22375
847.294	22314
847.429	22341
847.565	22253
847.701	22409
847.837	22051
847.972	21827
848.108	21945
848.244	21960
848.379	21899
848.515	21812
848.65	21816
848.786	21880
848.921	21983
849.057	22025
849.192	21907
849.328	21903
849.463	21857
849.598	21770
849.734	21743
849.869	21713
850.004	21652
850.14	21614
850.275	21572
850.41	21481
850.545	21515
850.68	21477
850.815	21709
850.95	21629
851.085	21743
851.22	21713
851.355	21637
851.49	21717
851.625	21648
851.76	21663
851.895	21625
852.03	21568
852.165	21644
852.299	21583
852.434	21644
852.569	21652
852.703	21595
852.838	21888
852.973	21789
853.107	21641
853.242	21492
853.376	21500
853.511	21382
853.645	21355
853.78	21530
853.914	21408
854.048	21447
854.183	21397
854.317	21526
854.451	21614
854.585	21393
854.72	21488
854.854	21542
854.988	21363
855.122	21564
855.256	21359
855.39	21507
855.524	21583
855.658	21355
855.792	21511
855.926	21504
856.06	21458
856.194	21557
856.327	21462
856.461	21435
856.595	21393
856.729	21317
856.862	21542
856.996	21393
857.13	21538
857.263	21526
857.397	21663
857.53	21424
857.664	21469
857.797	21515
857.931	21496
858.064	21583
858.197	21587
858.331	21443
858.464	21515
858.597	21351
858.731	21545
858.864	21424
858.997	21428
859.13	21599
859.263	21466
859.396	21519
859.529	21416
859.662	21462
859.795	21386
859.928	21363
860.061	21686
860.194	21538
860.327	21477
860.46	21454
860.592	21625
860.725	21633
860.858	21660
860.99	21511
861.123	21439
861.256	21332
861.388	21405
861.521	22070
861.653	21329
861.786	21306
861.918	21252
862.05	21367
862.183	21450
862.315	21332
862.447	21310
862.58	21393
862.712	21150
862.844	21131
862.976	21252
863.108	21325
863.24	21633
863.372	21089
863.504	21096
863.636	21142
863.768	21131
863.9	21218
864.032	21123
864.164	21135
864.296	21310
864.428	21173
864.559	21222
864.691	21256
864.823	21192
864.954	21203
865.086	21173
865.217	21066
865.349	20994
865.48	21062
865.612	21024
865.743	21230
865.875	21104
866.006	20994
866.137	21017
866.269	21100
866.4	21074
866.531	20929
866.662	20956
866.793	20929
866.924	21039
867.055	21005
867.186	20986
867.317	20960
867.448	20914
867.579	21028
867.71	20910
867.841	21013
867.972	21028
868.103	20960
868.233	21108
868.364	21081
868.495	21093
868.625	21344
868.756	21408
868.886	21233
869.017	21268
869.147	21344
869.278	21420
869.408	21252
869.539	21123
869.669	21252
869.799	21222
869.929	21332
870.06	21397
870.19	21500
870.32	21557
870.45	21549
870.58	21572
870.71	21762
870.84	21595
870.97	21561
871.1	21633
871.23	21797
871.36	21831
871.489	21846
871.619	21812
871.749	21739
871.879	21854
872.008	21838
872.138	21747
872.267	21861
872.397	21576
872.526	21606
872.656	21682
872.785	21595
872.915	21888
873.044	21869
873.173	21800
873.303	21975
873.432	22006
873.561	21907
873.69	21774
873.819	21751
873.948	21911
874.077	21930
874.206	21808
874.335	21842
874.464	22002
874.593	22150
874.722	21953
874.851	22059
874.979	22135
875.108	22169
875.237	22120
875.365	22021
875.494	22063
875.623	22097
875.751	22093
875.88	22032
876.008	22150
876.136	22303
876.265	22379
876.393	22641
876.521	22489
876.65	22630
876.778	22573
876.906	22405
877.034	22440
877.162	22516
877.29	22405
877.418	22516
877.546	22341
877.674	22341
877.802	22409
877.93	22466
878.058	22352
878.185	22295
878.313	22421
878.441	22341
878.568	22211
878.696	22390
878.824	22641
878.951	22474
879.079	22698
879.206	22694
879.333	22527
879.461	22413
879.588	22500
879.715	22565
879.842	22755
879.97	22455
880.097	22207
880.224	22192
880.351	22223
880.478	22325
880.605	22154
880.732	22196
880.859	22470
880.986	22223
881.112	22337
881.239	22070
881.366	21903
881.493	21956
881.619	21835
881.746	21869
881.872	21743
881.999	21876
882.125	21751
882.252	21903
882.378	21770
882.505	21964
882.631	21720
882.757	21496
882.883	21587
883.01	21557
883.136	21485
883.262	21336
883.388	21298
883.514	21496
883.64	21534
883.766	21447
883.892	21260
884.018	21306
884.143	21507
884.269	21530
884.395	21203
884.52	21058
884.646	21230
884.772	21096
884.897	21058
885.023	21256
885.148	21230
885.274	21321
885.399	21332
885.524	21123
885.65	21207
885.775	21230
885.9	21085
886.025	21203
886.15	21188
886.275	21142
886.4	21077
886.525	21222
886.65	20982
886.775	21085
886.9	21264
887.025	21317
887.149	21055
887.274	20918
887.399	20982
887.523	20849
887.648	20830
887.773	20746
887.897	21127
888.021	20986
888.146	20872
888.27	21032
888.395	21005
888.519	20883
888.643	20979
888.767	20838
888.891	20838
889.015	20651
889.139	20804
889.263	20632
889.387	20834
889.511	20956
889.635	20800
889.759	20754
889.883	20594
890.006	20754
890.13	20826
890.254	20640
890.377	20651
890.501	20537
890.624	20419
890.748	20438
890.871	20389
890.995	20332
891.118	20351
891.241	20294
891.364	20252
891.488	20366
891.611	20366
891.734	20240
891.857	20286
891.98	20362
892.103	20305
892.226	20259
892.349	20130
892.471	20058
892.594	20164
892.717	20237
892.839	20244
892.962	20172
893.085	20153
893.207	20191
893.33	20081
893.452	20145
893.575	20286
893.697	20233
893.819	20275
893.941	20404
894.064	20362
894.186	20119
894.308	19997
894.43	20221
894.552	20256
894.674	20351
894.796	19951
894.918	20180
895.04	20138
895.161	20237
895.283	20221
895.405	20202
895.526	20103
895.648	20149
895.769	20214
895.891	20214
896.012	20408
896.134	20229
896.255	20309
896.376	20187
896.498	20248
896.619	20278
896.74	20202
896.861	20313
896.982	20522
897.103	20739
897.224	20412
897.345	20438
897.466	20248
897.587	20313
897.708	20514
897.828	20514
897.949	20301
898.07	20355
898.19	20282
898.311	20434
898.431	20328
898.552	20358
898.672	20457
898.792	20442
898.913	20461
899.033	20271
899.153	20263
899.273	20081
899.393	20180
899.513	20225
899.633	20142
899.753	20107
899.873	20103
899.993	20214
900.113	20043
900.232	20081
900.352	20027
900.472	20069
900.591	19967
900.711	19986
900.83	19875
900.95	20005
901.069	20103
901.189	19830
901.308	19609
901.427	19502
901.546	19430
901.665	19567
901.784	19582
901.904	19457
902.023	19324
902.141	19050
902.26	19141
902.379	19133
902.498	19004
902.617	19118
902.735	19091
902.854	19038
902.973	18916
903.091	18757
903.21	18688
903.328	18787
903.446	18540
903.565	18612
903.683	18486
903.801	18445
903.919	18582
904.038	18555
904.156	18323
904.274	18380
904.392	18167
904.51	18277
904.627	18213
904.745	18433
904.863	18403
904.981	18057
905.098	17885
905.216	17927
905.334	18030
905.451	17992
905.569	17817
905.686	18019
905.803	17885
905.921	17764
906.038	17843
906.155	17680
906.272	17649
906.389	17634
906.506	17505
906.623	17448
906.74	17440
906.857	17334
906.974	17452
907.091	17577
907.208	17657
907.324	17463
907.441	17353
907.557	17216
907.674	17212
907.79	17193
907.907	17189
908.023	17098
908.139	17185
908.256	17143
908.372	17025
908.488	17006
908.604	16915
908.72	16805
908.836	16942
908.952	16923
909.068	16923
909.184	17052
909.3	16949
909.415	16858
909.531	16904
909.647	16721
909.762	16584
909.878	16656
909.993	16664
910.108	16607
910.224	16615
910.339	16664
910.454	16516
910.57	16371
910.685	16348
910.8	16637
910.915	16508
911.03	16402
911.145	16280
911.259	16147
911.374	16143
911.489	16128
911.604	16017
911.718	16006
911.833	15934
911.947	15915
912.062	15846
912.176	16017
912.291	15972
912.405	15937
912.519	16112
912.633	16071
912.748	15979
912.862	15880
912.976	15713
913.09	15686
913.204	15690
913.318	15778
913.431	15842
913.545	15850
913.659	15778
913.772	15720
913.886	15606
914	15507
914.113	15671
914.226	15671
914.34	15641
914.453	15488
914.566	15523
914.68	15458
914.793	15424
914.906	15233
915.019	15214
915.132	15116
915.245	15112
915.358	15199
915.47	15291
915.583	15184
915.696	15233
915.809	15298
915.921	15291
916.034	15108
916.146	15089
916.259	15036
916.371	15173
916.483	15150
916.595	14967
916.708	15051
916.82	14929
916.932	14937
917.044	14986
917.156	14849
917.268	14785
917.38	14887
917.491	14823
917.603	14899
917.715	14788
917.826	14842
917.938	14800
918.049	14693
918.161	14762
918.272	14944
918.384	14838
918.495	14834
918.606	14610
918.717	14564
918.828	14579
918.939	14549
919.05	14571
919.161	14469
919.272	14339
919.383	14374
919.494	14708
919.604	14792
919.715	14594
919.826	14442
919.936	14571
920.047	14625
920.157	14549
920.267	14754
920.378	14598
920.488	14507
920.598	14667
920.708	14811
920.818	14689
920.928	14689
921.038	14864
921.148	14902
921.258	14473
921.368	14362
921.477	14263
921.587	14252
921.697	14111
921.806	14317
921.916	14157
922.025	13986
922.134	13978
922.244	13811
922.353	14031
922.462	13795
922.571	13666
922.68	13620
922.789	13533
922.898	13613
923.007	13438
923.116	13632
923.224	13552
923.333	13502
923.442	13460
923.55	13381
923.659	13384
923.767	13480
923.876	13339
923.984	13388
924.092	13266
924.201	13251
924.309	13270
924.417	13339
924.525	13110
924.633	13304
924.741	14145
924.849	13061
924.956	13133
925.064	13057
925.172	12875
925.279	12935
925.387	13015
925.494	12981
925.602	13027
925.709	13034
925.816	12878
925.924	12951
926.031	13019
926.138	12901
926.245	12905
926.352	12863
926.459	12962
926.566	13000
926.673	12791
926.779	12783
926.886	12677
926.993	12547
927.099	12483
927.206	12513
927.312	12437
927.419	12650
927.525	12532
927.631	12525
927.737	12407
927.843	12353
927.95	12365
928.056	12365
928.162	12330
928.267	12441
928.373	13004
928.479	12456
928.585	12175
928.69	12304
928.796	12361
928.901	12311
929.007	12064
929.112	12247
929.218	12163
929.323	12114
929.428	12079
929.533	12315
929.638	12045
929.743	11984
929.848	12057
929.953	12041
930.058	11916
930.163	11874
930.267	11756
930.372	11920
930.477	11695
930.581	11999
930.685	11779
930.79	11718
930.894	11695
930.998	11619
931.103	11745
931.207	11452
931.311	11368
931.415	11334
931.519	11052
931.623	11079
