Data from test_V78500241_3331.txt Node
Date: Fri Mar 25 16:04:52 CST 2022
User: usil
Spectrometer: V785-0024
Trigger mode: 0
Integration Time (sec): 4.000000E-1
Scans to average: 1
Nonlinearity correction enabled: false
Boxcar width: 0
Storing dark spectrum: false
XAxis mode: Wavelengths
Number of Pixels in Spectrum: 1024
>>>>>Begin Spectral Data<<<<<
801.071	28721
801.214	28592
801.356	28314
801.499	28538
801.641	28394
801.783	28337
801.926	28500
802.068	28409
802.211	28287
802.353	28291
802.496	28116
802.638	28036
802.78	27945
802.923	28021
803.065	27983
803.208	27926
803.35	28063
803.492	28185
803.635	28249
803.777	28310
803.919	28280
804.061	28710
804.204	28230
804.346	28249
804.488	28253
804.63	28424
804.773	28287
804.915	28329
805.057	28440
805.199	28154
805.341	28363
805.483	28417
805.626	28356
805.768	28401
805.91	28489
806.052	28481
806.194	28322
806.336	28569
806.478	28390
806.62	28413
806.762	28565
806.904	28679
807.046	29102
807.188	28961
807.33	28949
807.472	28915
807.614	28824
807.756	28725
807.898	28862
808.04	28687
808.182	28656
808.324	28896
808.465	28809
808.607	29022
808.749	29132
808.891	29178
809.033	29288
809.174	29277
809.316	29121
809.458	29223
809.6	29113
809.741	29246
809.883	29284
810.025	29459
810.166	29577
810.308	29406
810.45	29425
810.591	29372
810.733	29197
810.875	29083
811.016	29208
811.158	29166
811.299	29250
811.441	29284
811.582	29353
811.724	29216
811.865	29185
812.007	29048
812.148	29159
812.29	29151
812.431	29250
812.573	29668
812.714	29676
812.855	29604
812.997	29824
813.138	29927
813.279	29939
813.421	29729
813.562	29531
813.703	29417
813.845	29410
813.986	29048
814.127	28976
814.268	29048
814.41	28934
814.551	28706
814.692	28938
814.833	28885
814.974	28866
815.115	28949
815.256	28858
815.397	28835
815.539	28873
815.68	28698
815.821	28611
815.962	28694
816.103	28733
816.244	28615
816.385	28516
816.526	28470
816.666	28211
816.807	28105
816.948	28249
817.089	28295
817.23	28356
817.371	28169
817.512	28276
817.653	28337
817.793	27899
817.934	28249
818.075	28162
818.216	28154
818.356	28173
818.497	28131
818.638	27873
818.778	27838
818.919	28017
819.06	28082
819.2	28097
819.341	28124
819.481	28249
819.622	28318
819.762	28527
819.903	28592
820.043	28405
820.184	28394
820.324	28280
820.465	28512
820.605	28310
820.746	28356
820.886	28162
821.026	28424
821.167	28158
821.307	28295
821.447	28291
821.588	28101
821.728	28040
821.868	27888
822.008	27675
822.149	27618
822.289	27747
822.429	27313
822.569	27420
822.709	27462
822.849	27195
822.99	27214
823.13	27203
823.27	27165
823.41	27001
823.55	26906
823.69	27135
823.83	27062
823.97	26902
824.11	26800
824.25	26746
824.389	26826
824.529	26872
824.669	26967
824.809	26937
824.949	26963
825.089	26899
825.228	26853
825.368	26686
825.508	26838
825.648	26655
825.787	26648
825.927	26670
826.067	26792
826.206	26720
826.346	26792
826.485	26823
826.625	26739
826.765	26765
826.904	26750
827.044	26621
827.183	26514
827.323	26377
827.462	26587
827.601	26377
827.741	26465
827.88	26530
828.02	26275
828.159	26309
828.298	26533
828.437	26415
828.577	26404
828.716	26560
828.855	26488
828.994	26164
829.134	26092
829.273	26035
829.412	26008
829.551	26035
829.69	26126
829.829	26092
829.968	26298
830.107	26229
830.246	26229
830.385	26145
830.524	26096
830.663	25963
830.802	25909
830.941	25620
831.08	25731
831.219	25826
831.357	25894
831.496	25925
831.635	25761
831.774	25499
831.913	25514
832.051	25605
832.19	25533
832.329	25578
832.467	25358
832.606	25381
832.744	25422
832.883	25415
833.022	25358
833.16	25407
833.299	25472
833.437	25316
833.576	25464
833.714	25472
833.852	25559
833.991	25529
834.129	25605
834.267	25491
834.406	25468
834.544	25556
834.682	25346
834.821	25377
834.959	25715
835.097	25362
835.235	25571
835.373	25464
835.511	25453
835.65	25308
835.788	25400
835.926	25270
836.064	25042
836.202	25114
836.34	25320
836.478	25407
836.615	25304
836.753	25194
836.891	25343
837.029	25282
837.167	25217
837.305	25053
837.443	25164
837.58	25072
837.718	25228
837.856	25175
837.993	25122
838.131	25103
838.269	24989
838.406	25069
838.544	24966
838.681	24757
838.819	24715
838.956	24669
839.094	24570
839.231	24810
839.369	24749
839.506	24905
839.643	24867
839.781	24623
839.918	24566
840.055	24616
840.193	24677
840.33	24464
840.467	24422
840.604	24536
840.742	24806
840.879	24254
841.016	24547
841.153	24350
841.29	24513
841.427	24433
841.564	24563
841.701	24559
841.838	24391
841.975	24311
842.112	24399
842.249	24388
842.385	24205
842.522	24547
842.659	24315
842.796	24239
842.933	24270
843.069	24232
843.206	24178
843.343	24186
843.479	24342
843.616	24121
843.752	24068
843.889	24018
844.025	24232
844.162	24041
844.298	24057
844.435	23996
844.571	23965
844.708	24072
844.844	24182
844.98	24152
845.117	24133
845.253	23988
845.389	23790
845.525	23901
845.661	23878
845.798	23783
845.934	23699
846.07	23790
846.206	23874
846.342	23855
846.478	23676
846.614	23642
846.75	23334
846.886	23395
847.022	23585
847.158	23509
847.294	23467
847.429	23467
847.565	23448
847.701	23729
847.837	23178
847.972	23288
848.108	23204
848.244	23368
848.379	23159
848.515	23075
848.65	23083
848.786	23193
848.921	23113
849.057	23212
849.192	23117
849.328	23075
849.463	23048
849.598	23079
849.734	22828
849.869	22919
850.004	22923
850.14	22957
850.275	22869
850.41	22710
850.545	22672
850.68	22843
850.815	22911
850.95	22889
851.085	22915
851.22	23071
851.355	22930
851.49	22805
851.625	22831
851.76	22816
851.895	22626
852.03	22725
852.165	22843
852.299	22953
852.434	22862
852.569	22793
852.703	22801
852.838	22869
852.973	23006
853.107	22965
853.242	22740
853.376	22615
853.511	22565
853.645	22664
853.78	22778
853.914	22664
854.048	22691
854.183	22649
854.317	22820
854.451	22828
854.585	22626
854.72	22710
854.854	22710
854.988	22618
855.122	22702
855.256	22641
855.39	22599
855.524	22740
855.658	22763
855.792	22721
855.926	22679
856.06	22733
856.194	22862
856.327	22577
856.461	22443
856.595	22702
856.729	22550
856.862	22824
856.996	22820
857.13	22641
857.263	22778
857.397	22858
857.53	22615
857.664	22622
857.797	22679
857.931	22790
858.064	22725
858.197	22740
858.331	22733
858.464	22596
858.597	22436
858.731	22584
858.864	22580
858.997	22683
859.13	22679
859.263	22717
859.396	22797
859.529	22618
859.662	22683
859.795	22599
859.928	22721
860.061	22812
860.194	22736
860.327	22873
860.46	22710
860.592	22877
860.725	22729
860.858	22824
860.99	22733
861.123	22512
861.256	22634
861.388	22634
861.521	23368
861.653	22523
861.786	22462
861.918	22428
862.05	22527
862.183	22577
862.315	22675
862.447	22717
862.58	22512
862.712	22462
862.844	22322
862.976	22360
863.108	22493
863.24	22850
863.372	22417
863.504	22272
863.636	22379
863.768	22462
863.9	22375
864.032	22329
864.164	22337
864.296	22424
864.428	22535
864.559	22413
864.691	22493
864.823	22459
864.954	22341
865.086	22295
865.217	22215
865.349	22238
865.48	22230
865.612	22211
865.743	22371
865.875	22333
866.006	22284
866.137	22287
866.269	22181
866.4	22272
866.531	22196
866.662	22154
866.793	22219
866.924	22067
867.055	22166
867.186	22230
867.317	22143
867.448	22116
867.579	22219
867.71	22124
867.841	22139
867.972	22135
868.103	22192
868.233	22188
868.364	22101
868.495	22318
868.625	22409
868.756	22474
868.886	22284
869.017	22417
869.147	22428
869.278	22538
869.408	22459
869.539	22371
869.669	22421
869.799	22417
869.929	22508
870.06	22569
870.19	22694
870.32	22672
870.45	22691
870.58	22835
870.71	22915
870.84	23025
870.97	22725
871.1	22850
871.23	22991
871.36	22946
871.489	22980
871.619	22915
871.749	23064
871.879	22972
872.008	23071
872.138	23029
872.267	22949
872.397	22911
872.526	22904
872.656	22885
872.785	22683
872.915	23044
873.044	23098
873.173	22957
873.303	23109
873.432	23075
873.561	23086
873.69	23014
873.819	23014
873.948	23094
874.077	23056
874.206	22892
874.335	22976
874.464	23204
874.593	23250
874.722	23185
874.851	23280
874.979	23136
875.108	23288
875.237	23307
875.365	23208
875.494	23124
875.623	23261
875.751	23277
875.88	23326
876.008	23326
876.136	23471
876.265	23611
876.393	23691
876.521	23680
876.65	23718
876.778	23608
876.906	23554
877.034	23528
877.162	23589
877.29	23604
877.418	23490
877.546	23623
877.674	23543
877.802	23528
877.93	23638
878.058	23600
878.185	23615
878.313	23471
878.441	23535
878.568	23383
878.696	23524
878.824	23581
878.951	23672
879.079	23805
879.206	23882
879.333	23665
879.461	23638
879.588	23653
879.715	23756
879.842	23893
879.97	23581
880.097	23421
880.224	23474
880.351	23345
880.478	23326
880.605	23356
880.732	23318
880.859	23657
880.986	23410
881.112	23429
881.239	23254
881.366	23094
881.493	22968
881.619	23113
881.746	23033
881.872	23010
881.999	22938
882.125	22824
882.252	23025
882.378	22885
882.505	23071
882.631	22854
882.757	22725
882.883	22862
883.01	22702
883.136	22550
883.262	22474
883.388	22432
883.514	22607
883.64	22569
883.766	22538
883.892	22443
884.018	22409
884.143	22542
884.269	22626
884.395	22322
884.52	22207
884.646	22265
884.772	22230
884.897	22204
885.023	22356
885.148	22428
885.274	22455
885.399	22276
885.524	22177
885.65	22207
885.775	22234
885.9	22261
886.025	22363
886.15	22341
886.275	22344
886.4	22124
886.525	22200
886.65	22147
886.775	22280
886.9	22428
887.025	22497
887.149	22215
887.274	22044
887.399	22067
887.523	21987
887.648	21934
887.773	21918
887.897	21987
888.021	21983
888.146	21956
888.27	22150
888.395	22059
888.519	22029
888.643	22006
888.767	22101
888.891	21903
889.015	21785
889.139	21876
889.263	21800
889.387	21930
889.511	21960
889.635	21846
889.759	21694
889.883	21717
890.006	21675
890.13	21915
890.254	21816
890.377	21713
890.501	21599
890.624	21564
890.748	21690
890.871	21564
890.995	21222
891.118	21249
891.241	21412
891.364	21275
891.488	21549
891.611	21412
891.734	21332
891.857	21393
891.98	21454
892.103	21401
892.226	21401
892.349	21287
892.471	21150
892.594	21302
892.717	21252
892.839	21389
892.962	21283
893.085	21283
893.207	21306
893.33	21169
893.452	21123
893.575	21313
893.697	21161
893.819	21435
893.941	21450
894.064	21393
894.186	21146
894.308	21058
894.43	21268
894.552	21443
894.674	21260
894.796	21131
894.918	21310
895.04	21089
895.161	21344
895.283	21218
895.405	21104
895.526	21176
895.648	21173
895.769	21237
895.891	21275
896.012	21268
896.134	21310
896.255	21218
896.376	21195
896.498	21332
896.619	21408
896.74	21237
896.861	21325
896.982	21519
897.103	21637
897.224	21496
897.345	21477
897.466	21344
897.587	21431
897.708	21469
897.828	21416
897.949	21378
898.07	21264
898.19	21325
898.311	21557
898.431	21351
898.552	21367
898.672	21435
898.792	21557
898.913	21488
899.033	21233
899.153	21214
899.273	21085
899.393	21077
899.513	21203
899.633	21123
899.753	21119
899.873	21070
899.993	21192
900.113	21119
900.232	21009
900.352	21062
900.472	20990
900.591	20849
900.711	20948
900.83	20872
900.95	20979
901.069	21032
901.189	20872
901.308	20484
901.427	20522
901.546	20579
901.665	20530
901.784	20461
901.904	20415
902.023	20233
902.141	19997
902.26	20020
902.379	19997
902.498	19940
902.617	20096
902.735	20149
902.854	20008
902.973	19989
903.091	19597
903.21	19567
903.328	19609
903.446	19567
903.565	19491
903.683	19502
903.801	19308
903.919	19392
904.038	19377
904.156	19148
904.274	19301
904.392	19069
904.51	19282
904.627	19183
904.745	19209
904.863	19259
904.981	18962
905.098	18852
905.216	18817
905.334	18840
905.451	18905
905.569	18798
905.686	18954
905.803	18768
905.921	18650
906.038	18646
906.155	18745
906.272	18570
906.389	18490
906.506	18471
906.623	18403
906.74	18365
906.857	18182
906.974	18350
907.091	18490
907.208	18452
907.324	18338
907.441	18201
907.557	18038
907.674	18083
907.79	18053
907.907	18091
908.023	18213
908.139	18095
908.256	17984
908.372	18022
908.488	18060
908.604	17870
908.72	17767
908.836	17783
908.952	17764
909.068	17847
909.184	17908
909.3	17726
909.415	17737
909.531	17741
909.647	17520
909.762	17554
909.878	17474
909.993	17512
910.108	17482
910.224	17471
910.339	17535
910.454	17235
910.57	17334
910.685	17178
910.8	17589
910.915	17376
911.03	17155
911.145	17258
911.259	17102
911.374	17014
911.489	16968
911.604	16904
911.718	16847
911.833	16809
911.947	16755
912.062	16630
912.176	16790
912.291	16831
912.405	16710
912.519	17041
912.633	16961
912.748	16786
912.862	16771
912.976	16717
913.09	16455
913.204	16561
913.318	16675
913.431	16664
913.545	16691
913.659	16752
913.772	16683
913.886	16550
914	16344
914.113	16417
914.226	16493
914.34	16386
914.453	16295
914.566	16325
914.68	16276
914.793	16215
914.906	16074
915.019	15918
915.132	16002
915.245	15941
915.358	16063
915.47	16051
915.583	15953
915.696	15960
915.809	16067
915.921	16124
916.034	15854
916.146	15876
916.259	15926
916.371	15861
916.483	15895
916.595	15766
916.708	15778
916.82	15823
916.932	15781
917.044	15717
917.156	15698
917.268	15580
917.38	15728
917.491	15641
917.603	15770
917.715	15568
917.826	15705
917.938	15515
918.049	15458
918.161	15591
918.272	15629
918.384	15542
918.495	15466
918.606	15405
918.717	15329
918.828	15439
918.939	15386
919.05	15298
919.161	15367
919.272	15173
919.383	15188
919.494	15416
919.604	15435
919.715	15256
919.826	15230
919.936	15245
920.047	15317
920.157	15344
920.267	15458
920.378	15344
920.488	15291
920.598	15405
920.708	15561
920.818	15477
920.928	15374
921.038	15564
921.148	15542
921.258	15344
921.368	15268
921.477	15074
921.587	14979
921.697	14925
921.806	15036
921.916	14876
922.025	14716
922.134	14644
922.244	14602
922.353	14651
922.462	14568
922.571	14480
922.68	14362
922.789	14320
922.898	14282
923.007	14100
923.116	14248
923.224	14202
923.333	14229
923.442	14069
923.55	14024
923.659	14164
923.767	14199
923.876	14046
923.984	14073
924.092	13967
924.201	13940
924.309	14050
924.417	13959
924.525	13970
924.633	14005
924.741	14792
924.849	13677
924.956	13860
925.064	13757
925.172	13548
925.279	13647
925.387	13731
925.494	13605
925.602	13757
925.709	13704
925.816	13556
925.924	13502
926.031	13643
926.138	13552
926.245	13624
926.352	13499
926.459	13639
926.566	13563
926.673	13499
926.779	13289
926.886	13377
926.993	13346
927.099	13145
927.206	13160
927.312	13187
927.419	13225
927.525	13217
927.631	13259
927.737	13187
927.843	13137
927.95	12909
928.056	13091
928.162	12993
928.267	13046
928.373	13605
928.479	12993
928.585	12791
928.69	12924
928.796	12962
928.901	12817
929.007	12753
929.112	12867
929.218	12840
929.323	12662
929.428	12711
929.533	12795
929.638	12608
929.743	12593
929.848	12681
929.953	12601
930.058	12578
930.163	12323
930.267	12391
930.372	12445
930.477	12388
930.581	12486
930.685	12376
930.79	12201
930.894	12285
930.998	12285
931.103	12407
931.207	11984
931.311	11950
931.415	11813
931.519	11577
931.623	11646
