Data from test_V78500241_467.txt Node
Date: Fri Mar 25 15:45:02 CST 2022
User: usil
Spectrometer: V785-0024
Trigger mode: 0
Integration Time (sec): 4.000000E-1
Scans to average: 1
Nonlinearity correction enabled: false
Boxcar width: 0
Storing dark spectrum: false
XAxis mode: Wavelengths
Number of Pixels in Spectrum: 1024
>>>>>Begin Spectral Data<<<<<
801.071	27648
801.214	27599
801.356	27207
801.499	27336
801.641	27340
801.783	27256
801.926	27245
802.068	27306
802.211	27188
802.353	27077
802.496	26887
802.638	26826
802.78	26735
802.923	26689
803.065	26826
803.208	26796
803.35	26849
803.492	27009
803.635	26982
803.777	26910
803.919	27066
804.061	27275
804.204	27051
804.346	27024
804.488	26895
804.63	27066
804.773	26975
804.915	27085
805.057	27142
805.199	26948
805.341	27138
805.483	27081
805.626	27135
805.768	26921
805.91	27112
806.052	27116
806.194	27066
806.336	27367
806.478	27230
806.62	27188
806.762	27233
806.904	27469
807.046	27641
807.188	27530
807.33	27663
807.472	27580
807.614	27408
807.756	27488
807.898	27386
808.04	27321
808.182	27416
808.324	27370
808.465	27275
808.607	27564
808.749	27641
808.891	27812
809.033	27838
809.174	27770
809.316	27861
809.458	27816
809.6	27854
809.741	27793
809.883	27854
810.025	28029
810.166	28128
810.308	27987
810.45	28021
810.591	27987
810.733	27850
810.875	27713
811.016	27667
811.158	27743
811.299	27793
811.441	27922
811.582	28017
811.724	27869
811.865	27648
812.007	27800
812.148	27759
812.29	27808
812.431	27861
812.573	28090
812.714	28048
812.855	28310
812.997	28455
813.138	28382
813.279	28428
813.421	28215
813.562	28226
813.703	28097
813.845	28013
813.986	27739
814.127	27469
814.268	27344
814.41	27454
814.551	27439
814.692	27500
814.833	27279
814.974	27408
815.115	27504
815.256	27332
815.397	27321
815.539	27252
815.68	27237
815.821	27089
815.962	27192
816.103	27230
816.244	27100
816.385	26918
816.526	26929
816.666	26823
816.807	26568
816.948	26712
817.089	26811
817.23	26659
817.371	26697
817.512	26625
817.653	26727
817.793	26613
817.934	26796
818.075	26746
818.216	26613
818.356	26712
818.497	26530
818.638	26317
818.778	26526
818.919	26537
819.06	26648
819.2	26507
819.341	26655
819.481	26716
819.622	26838
819.762	26918
819.903	26975
820.043	26861
820.184	26788
820.324	26823
820.465	26845
820.605	26682
820.746	26891
820.886	26716
821.026	26807
821.167	26644
821.307	26807
821.447	26636
821.588	26712
821.728	26469
821.868	26244
822.008	26225
822.149	26199
822.289	26134
822.429	25978
822.569	25841
822.709	25898
822.849	25704
822.99	25628
823.13	25597
823.27	25639
823.41	25388
823.55	25335
823.69	25430
823.83	25400
823.97	25430
824.11	25244
824.25	25312
824.389	25251
824.529	25346
824.669	25289
824.809	25460
824.949	25285
825.089	25350
825.228	25331
825.368	25057
825.508	25206
825.648	25202
825.787	25156
825.927	25183
826.067	25217
826.206	25175
826.346	25145
826.485	25202
826.625	25225
826.765	25293
826.904	25152
827.044	24833
827.183	24947
827.323	24856
827.462	24886
827.601	24840
827.741	24703
827.88	24966
828.02	24802
828.159	24871
828.298	24639
828.437	24886
828.577	24871
828.716	24954
828.855	24722
828.994	24479
829.134	24608
829.273	24448
829.412	24513
829.551	24483
829.69	24517
829.829	24589
829.968	24582
830.107	24540
830.246	24498
830.385	24528
830.524	24414
830.663	24342
830.802	24270
830.941	24144
831.08	24026
831.219	24273
831.357	24205
831.496	24315
831.635	24125
831.774	24121
831.913	23942
832.051	23920
832.19	23946
832.329	23961
832.467	23908
832.606	23699
832.744	23699
832.883	23809
833.022	23783
833.16	23691
833.299	23870
833.437	23805
833.576	23878
833.714	23923
833.852	23885
833.991	23878
834.129	23851
834.267	23942
834.406	23916
834.544	23885
834.682	23775
834.821	23824
834.959	23999
835.097	23878
835.235	23954
835.373	23851
835.511	23882
835.65	23680
835.788	23760
835.926	23452
836.064	23452
836.202	23623
836.34	23737
836.478	23684
836.615	23722
836.753	23866
836.891	23821
837.029	23714
837.167	23615
837.305	23665
837.443	23592
837.58	23684
837.718	23657
837.856	23566
837.993	23391
838.131	23490
838.269	23307
838.406	23360
838.544	23337
838.681	23261
838.819	23212
838.956	22961
839.094	22858
839.231	22995
839.369	23086
839.506	23379
839.643	23250
839.781	23014
839.918	22911
840.055	23022
840.193	23056
840.33	22938
840.467	23003
840.604	22968
840.742	23216
840.879	22820
841.016	22843
841.153	22854
841.29	22953
841.427	22900
841.564	22995
841.701	22889
841.838	22858
841.975	22850
842.112	22881
842.249	22835
842.385	22637
842.522	22965
842.659	22869
842.796	22630
842.933	22611
843.069	22634
843.206	22683
843.343	22713
843.479	22706
843.616	22668
843.752	22478
843.889	22402
844.025	22580
844.162	22329
844.298	22371
844.435	22428
844.571	22306
844.708	22478
844.844	22672
844.98	22592
845.117	22630
845.253	22413
845.389	22200
845.525	22428
845.661	22238
845.798	22124
845.934	22196
846.07	22257
846.206	22268
846.342	22291
846.478	22196
846.614	21960
846.75	21884
846.886	21842
847.022	22101
847.158	21937
847.294	21956
847.429	21937
847.565	21998
847.701	22299
847.837	21603
847.972	21652
848.108	21762
848.244	21778
848.379	21439
848.515	21591
848.65	21416
848.786	21572
848.921	21466
849.057	21485
849.192	21625
849.328	21492
849.463	21572
849.598	21370
849.734	21477
849.869	21389
850.004	21256
850.14	21252
850.275	21310
850.41	21123
850.545	21256
850.68	21294
850.815	21279
850.95	21252
851.085	21469
851.22	21401
851.355	21260
851.49	21093
851.625	21150
851.76	21218
851.895	21321
852.03	21131
852.165	21264
852.299	21279
852.434	21416
852.569	21233
852.703	21207
852.838	21260
852.973	21329
853.107	21367
853.242	21287
853.376	21104
853.511	21039
853.645	21032
853.78	21203
853.914	21093
854.048	21074
854.183	21116
854.317	21154
854.451	21241
854.585	21142
854.72	21157
854.854	21264
854.988	20979
855.122	21100
855.256	20849
855.39	21032
855.524	21214
855.658	21154
855.792	21077
855.926	21104
856.06	21112
856.194	21241
856.327	21089
856.461	21058
856.595	21074
856.729	20921
856.862	21085
856.996	21058
857.13	21142
857.263	21104
857.397	21062
857.53	21032
857.664	21119
857.797	21154
857.931	21058
858.064	21173
858.197	21169
858.331	21104
858.464	21009
858.597	21104
858.731	21112
858.864	21017
858.997	21161
859.13	21001
859.263	21135
859.396	21131
859.529	21005
859.662	21028
859.795	21093
859.928	21096
860.061	21222
860.194	21275
860.327	21089
860.46	21116
860.592	21104
860.725	21249
860.858	21260
860.99	21093
861.123	21138
861.256	21058
861.388	21085
861.521	21679
861.653	20975
861.786	20845
861.918	20971
862.05	21024
862.183	20967
862.315	20941
862.447	21036
862.58	20963
862.712	20800
862.844	20781
862.976	20815
863.108	20925
863.24	21279
863.372	20693
863.504	20887
863.636	20861
863.768	20815
863.9	20845
864.032	20716
864.164	20781
864.296	20792
864.428	20765
864.559	20864
864.691	20849
864.823	20883
864.954	20720
865.086	20765
865.217	20636
865.349	20651
865.48	20674
865.612	20705
865.743	20830
865.875	20743
866.006	20754
866.137	20716
866.269	20693
866.4	20629
866.531	20609
866.662	20541
866.793	20640
866.924	20571
867.055	20693
867.186	20716
867.317	20587
867.448	20720
867.579	20533
867.71	20526
867.841	20385
867.972	20636
868.103	20613
868.233	20617
868.364	20708
868.495	20739
868.625	20944
868.756	20963
868.886	20746
869.017	20777
869.147	20944
869.278	21009
869.408	20944
869.539	20861
869.669	20857
869.799	20998
869.929	21043
870.06	21039
870.19	21176
870.32	21142
870.45	21218
870.58	21264
870.71	21378
870.84	21431
870.97	21275
871.1	21397
871.23	21511
871.36	21507
871.489	21363
871.619	21412
871.749	21538
871.879	21462
872.008	21568
872.138	21515
872.267	21530
872.397	21317
872.526	21370
872.656	21279
872.785	21279
872.915	21595
873.044	21526
873.173	21500
873.303	21591
873.432	21481
873.561	21564
873.69	21572
873.819	21576
873.948	21629
874.077	21568
874.206	21458
874.335	21523
874.464	21583
874.593	21812
874.722	21762
874.851	21808
874.979	21762
875.108	21823
875.237	21660
875.365	21618
875.494	21663
875.623	21766
875.751	21747
875.88	21618
876.008	21759
876.136	21956
876.265	22166
876.393	22318
876.521	22238
876.65	22177
876.778	22070
876.906	22128
877.034	21991
877.162	22078
877.29	22040
877.418	21960
877.546	22105
877.674	22101
877.802	22086
877.93	22093
878.058	22029
878.185	21884
878.313	21949
878.441	22006
878.568	21831
878.696	21842
878.824	22051
878.951	22204
879.079	22120
879.206	22348
879.333	22219
879.461	22097
879.588	22154
879.715	22421
879.842	22276
879.97	22139
880.097	22006
880.224	21876
880.351	21911
880.478	21816
880.605	21739
880.732	21888
880.859	22150
880.986	21972
881.112	21880
881.239	21717
881.366	21629
881.493	21526
881.619	21500
881.746	21477
881.872	21405
881.999	21473
882.125	21492
882.252	21397
882.378	21511
882.505	21637
882.631	21351
882.757	21233
882.883	21325
883.01	21241
883.136	21119
883.262	21127
883.388	21104
883.514	21184
883.64	21207
883.766	21161
883.892	20861
884.018	20880
884.143	21089
884.269	21161
884.395	20948
884.52	20842
884.646	20834
884.772	20781
884.897	20720
885.023	20948
885.148	20910
885.274	20925
885.399	20960
885.524	20804
885.65	20861
885.775	20834
885.9	20773
886.025	20834
886.15	20929
886.275	20712
886.4	20792
886.525	20868
886.65	20826
886.775	20693
886.9	20880
887.025	21062
887.149	20811
887.274	20674
887.399	20617
887.523	20602
887.648	20495
887.773	20488
887.897	20682
888.021	20533
888.146	20530
888.27	20583
888.395	20629
888.519	20667
888.643	20613
888.767	20644
888.891	20434
889.015	20419
889.139	20457
889.263	20294
889.387	20526
889.511	20568
889.635	20469
889.759	20374
889.883	20358
890.006	20343
890.13	20526
890.254	20301
890.377	20374
890.501	20134
890.624	20176
890.748	20126
890.871	20073
890.995	19997
891.118	19894
891.241	19917
891.364	19822
891.488	20107
891.611	20092
891.734	19822
891.857	20008
891.98	19837
892.103	19955
892.226	19947
892.349	19814
892.471	19921
892.594	19890
892.717	20035
892.839	19925
892.962	19936
893.085	20039
893.207	19944
893.33	19902
893.452	19944
893.575	19925
893.697	19833
893.819	20016
893.941	19989
894.064	20111
894.186	19830
894.308	19742
894.43	19970
894.552	20005
894.674	20039
894.796	19833
894.918	19925
895.04	19772
895.161	20058
895.283	19967
895.405	19822
895.526	19864
895.648	19906
895.769	19932
895.891	19906
896.012	19944
896.134	19875
896.255	19940
896.376	19830
896.498	19837
896.619	19944
896.74	19776
896.861	19967
896.982	20286
897.103	20332
897.224	20183
897.345	20142
897.466	19951
897.587	20176
897.708	20214
897.828	20062
897.949	20073
898.07	20008
898.19	19989
898.311	20210
898.431	20073
898.552	20111
898.672	20187
898.792	20252
898.913	20107
899.033	20016
899.153	19928
899.273	19795
899.393	19731
899.513	19879
899.633	19928
899.753	19826
899.873	19818
899.993	19944
900.113	19811
900.232	19871
900.352	19791
900.472	19704
900.591	19662
900.711	19586
900.83	19586
900.95	19734
901.069	19700
901.189	19540
901.308	19449
901.427	19255
901.546	19270
901.665	19232
901.784	19282
901.904	19194
902.023	19034
902.141	18764
902.26	18745
902.379	18928
902.498	18760
902.617	18601
902.735	18840
902.854	18696
902.973	18639
903.091	18555
903.21	18441
903.328	18350
903.446	18281
903.565	18266
903.683	18247
903.801	18072
903.919	18251
904.038	18232
904.156	17950
904.274	18026
904.392	17946
904.51	17965
904.627	17988
904.745	17996
904.863	17923
904.981	17741
905.098	17634
905.216	17627
905.334	17714
905.451	17642
905.569	17634
905.686	17699
905.803	17767
905.921	17478
906.038	17581
906.155	17474
906.272	17349
906.389	17467
906.506	17246
906.623	17265
906.74	17102
906.857	17109
906.974	17155
907.091	17223
907.208	17258
907.324	17200
907.441	17098
907.557	16854
907.674	16987
907.79	16881
907.907	16900
908.023	16828
908.139	16869
908.256	16877
908.372	16793
908.488	16740
908.604	16641
908.72	16649
908.836	16679
908.952	16573
909.068	16672
909.184	16790
909.3	16656
909.415	16656
909.531	16679
909.647	16356
909.762	16402
909.878	16299
909.993	16371
910.108	16352
910.224	16333
910.339	16280
910.454	16207
910.57	16177
910.685	16013
910.8	16447
910.915	16223
911.03	16173
911.145	16010
911.259	15888
911.374	15949
911.489	16002
911.604	15842
911.718	15671
911.833	15720
911.947	15660
912.062	15488
912.176	15682
912.291	15720
912.405	15698
912.519	15857
912.633	15823
912.748	15736
912.862	15675
912.976	15500
913.09	15492
913.204	15462
913.318	15507
913.431	15622
913.545	15526
913.659	15488
913.772	15439
913.886	15348
914	15294
914.113	15393
914.226	15450
914.34	15367
914.453	15264
914.566	15252
914.68	15245
914.793	15150
914.906	14944
915.019	14918
915.132	14853
915.245	14902
915.358	14971
915.47	14956
915.583	14956
915.696	14921
915.809	15020
915.921	15089
916.034	14895
916.146	14845
916.259	14785
916.371	14899
916.483	14906
916.595	14796
916.708	14727
916.82	14731
916.932	14613
917.044	14769
917.156	14682
917.268	14568
917.38	14674
917.491	14587
917.603	14480
917.715	14724
917.826	14689
917.938	14495
918.049	14507
918.161	14556
918.272	14678
918.384	14636
918.495	14511
918.606	14362
918.717	14256
918.828	14339
918.939	14400
919.05	14271
919.161	14218
919.272	14126
919.383	14195
919.494	14347
919.604	14484
919.715	14282
919.826	14214
919.936	14317
920.047	14324
920.157	14415
920.267	14457
920.378	14218
920.488	14244
920.598	14450
920.708	14579
920.818	14488
920.928	14393
921.038	14617
921.148	14518
921.258	14237
921.368	14195
921.477	14065
921.587	14096
921.697	13890
921.806	14024
921.916	13917
922.025	13811
922.134	13723
922.244	13613
922.353	13788
922.462	13616
922.571	13552
922.68	13430
922.789	13312
922.898	13434
923.007	13293
923.116	13331
923.224	13327
923.333	13358
923.442	13206
923.55	13091
923.659	13236
923.767	13278
923.876	13080
923.984	13190
924.092	13031
924.201	13088
924.309	13110
924.417	13057
924.525	12989
924.633	13076
924.741	13727
924.849	12806
924.956	12878
925.064	12764
925.172	12760
925.279	12749
925.387	12715
925.494	12760
925.602	12901
925.709	12791
925.816	12658
925.924	12757
926.031	12730
926.138	12684
926.245	12745
926.352	12604
926.459	12700
926.566	12871
926.673	12623
926.779	12597
926.886	12490
926.993	12369
927.099	12304
927.206	12346
927.312	12239
927.419	12388
927.525	12319
927.631	12376
927.737	12270
927.843	12148
927.95	12041
928.056	12175
928.162	12201
928.267	12247
928.373	12817
928.479	12300
928.585	12064
928.69	12155
928.796	12106
928.901	12064
929.007	11904
929.112	12064
929.218	11969
929.323	11912
929.428	11897
929.533	12095
929.638	11764
929.743	11874
929.848	11977
929.953	11889
930.058	11718
930.163	11562
930.267	11585
930.372	11760
930.477	11539
930.581	11775
930.685	11676
930.79	11562
930.894	11524
930.998	11444
931.103	11570
931.207	11155
931.311	11109
931.415	11124
931.519	10961
931.623	10858
