Data from test_V78500241_1578.txt Node
Date: Fri Mar 25 15:52:43 CST 2022
User: usil
Spectrometer: V785-0024
Trigger mode: 0
Integration Time (sec): 4.000000E-1
Scans to average: 1
Nonlinearity correction enabled: false
Boxcar width: 0
Storing dark spectrum: false
XAxis mode: Wavelengths
Number of Pixels in Spectrum: 1024
>>>>>Begin Spectral Data<<<<<
801.071	27956
801.214	27979
801.356	27675
801.499	27739
801.641	27610
801.783	27652
801.926	27679
802.068	27488
802.211	27591
802.353	27469
802.496	27336
802.638	27348
802.78	27313
802.923	27176
803.065	27241
803.208	27169
803.35	27249
803.492	27306
803.635	27431
803.777	27291
803.919	27393
804.061	27785
804.204	27454
804.346	27408
804.488	27340
804.63	27325
804.773	27233
804.915	27568
805.057	27564
805.199	27302
805.341	27545
805.483	27679
805.626	27542
805.768	27542
805.91	27564
806.052	27686
806.194	27485
806.336	27682
806.478	27675
806.62	27595
806.762	27713
806.904	27816
807.046	27998
807.188	28120
807.33	28029
807.472	28074
807.614	28109
807.756	27945
807.898	27861
808.04	27861
808.182	27911
808.324	27873
808.465	27998
808.607	28063
808.749	28204
808.891	28352
809.033	28352
809.174	28276
809.316	28200
809.458	28246
809.6	28204
809.741	28329
809.883	28291
810.025	28603
810.166	28546
810.308	28561
810.45	28516
810.591	28497
810.733	28299
810.875	28192
811.016	28185
811.158	28147
811.299	28268
811.441	28535
811.582	28341
811.724	28162
811.865	28276
812.007	28268
812.148	28196
812.29	28333
812.431	28398
812.573	28622
812.714	28630
812.855	28713
812.997	28847
813.138	28927
813.279	28793
813.421	28698
813.562	28656
813.703	28500
813.845	28459
813.986	28238
814.127	28181
814.268	27865
814.41	28074
814.551	27869
814.692	28048
814.833	27873
814.974	27972
815.115	27854
815.256	27819
815.397	27842
815.539	27743
815.68	27694
815.821	27781
815.962	27656
816.103	27637
816.244	27572
816.385	27443
816.526	27378
816.666	27256
816.807	27279
816.948	27287
817.089	27260
817.23	27222
817.371	27165
817.512	27329
817.653	27135
817.793	27108
817.934	27131
818.075	27154
818.216	27195
818.356	27157
818.497	27211
818.638	27005
818.778	27039
818.919	26914
819.06	27070
819.2	27222
819.341	27165
819.481	27397
819.622	27359
819.762	27477
819.903	27462
820.043	27488
820.184	27386
820.324	27287
820.465	27511
820.605	27302
820.746	27329
820.886	27203
821.026	27272
821.167	27222
821.307	27462
821.447	27256
821.588	27142
821.728	27093
821.868	26952
822.008	26758
822.149	26514
822.289	26750
822.429	26362
822.569	26442
822.709	26248
822.849	26103
822.99	26210
823.13	26221
823.27	26092
823.41	26100
823.55	25906
823.69	26016
823.83	26031
823.97	25837
824.11	25894
824.25	25746
824.389	25791
824.529	25944
824.669	25814
824.809	25883
824.949	25913
825.089	25849
825.228	25871
825.368	25567
825.508	25567
825.648	25704
825.787	25731
825.927	25734
826.067	25727
826.206	25742
826.346	25856
826.485	25609
826.625	25651
826.765	25803
826.904	25750
827.044	25540
827.183	25594
827.323	25403
827.462	25453
827.601	25373
827.741	25495
827.88	25304
828.02	25377
828.159	25407
828.298	25453
828.437	25597
828.577	25362
828.716	25499
828.855	25392
828.994	25164
829.134	25084
829.273	25190
829.412	25019
829.551	25103
829.69	25050
829.829	25099
829.968	25187
830.107	25202
830.246	25061
830.385	25110
830.524	25023
830.663	24878
830.802	24741
830.941	24798
831.08	24608
831.219	24897
831.357	24878
831.496	24958
831.635	24661
831.774	24631
831.913	24608
832.051	24464
832.19	24544
832.329	24525
832.467	24399
832.606	24327
832.744	24277
832.883	24311
833.022	24391
833.16	24361
833.299	24502
833.437	24525
833.576	24532
833.714	24445
833.852	24490
833.991	24532
834.129	24418
834.267	24528
834.406	24429
834.544	24544
834.682	24342
834.821	24429
834.959	24414
835.097	24372
835.235	24467
835.373	24399
835.511	24525
835.65	24334
835.788	24228
835.926	24174
836.064	24030
836.202	24117
836.34	24308
836.478	24323
836.615	24273
836.753	24330
836.891	24521
837.029	24380
837.167	24251
837.305	24125
837.443	24125
837.58	23988
837.718	24129
837.856	24159
837.993	24049
838.131	24091
838.269	24110
838.406	24129
838.544	24060
838.681	23756
838.819	23851
838.956	23596
839.094	23668
839.231	23573
839.369	23771
839.506	24041
839.643	23840
839.781	23490
839.918	23554
840.055	23566
840.193	23596
840.33	23497
840.467	23642
840.604	23547
840.742	23824
840.879	23349
841.016	23501
841.153	23421
841.29	23562
841.427	23452
841.564	23486
841.701	23486
841.838	23452
841.975	23311
842.112	23436
842.249	23459
842.385	23345
842.522	23474
842.659	23284
842.796	23140
842.933	23258
843.069	23193
843.206	23326
843.343	23455
843.479	23197
843.616	23334
843.752	23025
843.889	22953
844.025	23147
844.162	22980
844.298	23185
844.435	22934
844.571	23029
844.708	22949
844.844	23162
844.98	23174
845.117	23014
845.253	22934
845.389	22896
845.525	22949
845.661	22828
845.798	22698
845.934	22733
846.07	22748
846.206	22744
846.342	22896
846.478	22580
846.614	22603
846.75	22485
846.886	22500
847.022	22478
847.158	22554
847.294	22451
847.429	22519
847.565	22440
847.701	22694
847.837	22238
847.972	22177
848.108	22360
848.244	22257
848.379	22044
848.515	22055
848.65	22074
848.786	22059
848.921	22158
849.057	22139
849.192	22101
849.328	22131
849.463	21983
849.598	22067
849.734	21994
849.869	21937
850.004	21846
850.14	21918
850.275	21861
850.41	21751
850.545	21930
850.68	21728
850.815	21926
850.95	21850
851.085	22006
851.22	21895
851.355	21964
851.49	21804
851.625	21759
851.76	21865
851.895	21686
852.03	21778
852.165	21755
852.299	21793
852.434	21964
852.569	21816
852.703	21899
852.838	21880
852.973	22055
853.107	21911
853.242	21823
853.376	21595
853.511	21542
853.645	21705
853.78	21766
853.914	21717
854.048	21644
854.183	21538
854.317	21816
854.451	21857
854.585	21618
854.72	21561
854.854	21728
854.988	21500
855.122	21648
855.256	21523
855.39	21663
855.524	21717
855.658	21618
855.792	21701
855.926	21675
856.06	21694
856.194	21789
856.327	21591
856.461	21595
856.595	21633
856.729	21538
856.862	21819
856.996	21675
857.13	21762
857.263	21663
857.397	21720
857.53	21629
857.664	21793
857.797	21622
857.931	21842
858.064	21736
858.197	21713
858.331	21599
858.464	21599
858.597	21568
858.731	21610
858.864	21572
858.997	21686
859.13	21648
859.263	21648
859.396	21701
859.529	21519
859.662	21701
859.795	21679
859.928	21705
860.061	21732
860.194	21865
860.327	21682
860.46	21694
860.592	21709
860.725	21827
860.858	21717
860.99	21698
861.123	21629
861.256	21511
861.388	21732
861.521	22177
861.653	21622
861.786	21428
861.918	21538
862.05	21545
862.183	21679
862.315	21572
862.447	21732
862.58	21637
862.712	21332
862.844	21321
862.976	21439
863.108	21420
863.24	21911
863.372	21332
863.504	21393
863.636	21367
863.768	21492
863.9	21405
864.032	21306
864.164	21302
864.296	21374
864.428	21576
864.559	21329
864.691	21408
864.823	21416
864.954	21351
865.086	21344
865.217	21230
865.349	21146
865.48	21359
865.612	21355
865.743	21435
865.875	21245
866.006	21252
866.137	21264
866.269	21241
866.4	21203
866.531	21237
866.662	21051
866.793	21154
866.924	21237
867.055	21119
867.186	21211
867.317	21291
867.448	21104
867.579	21233
867.71	21226
867.841	21226
867.972	21237
868.103	21138
868.233	21256
868.364	21176
868.495	21294
868.625	21340
868.756	21496
868.886	21359
869.017	21405
869.147	21519
869.278	21431
869.408	21374
869.539	21507
869.669	21450
869.799	21469
869.929	21587
870.06	21667
870.19	21793
870.32	21728
870.45	21888
870.58	21774
870.71	21998
870.84	21876
870.97	21797
871.1	21827
871.23	22090
871.36	21994
871.489	21911
871.619	21937
871.749	22044
871.879	22074
872.008	22131
872.138	22048
872.267	22120
872.397	21895
872.526	21907
872.656	21861
872.785	21854
872.915	22032
873.044	22135
873.173	22112
873.303	21979
873.432	22059
873.561	22112
873.69	22101
873.819	22204
873.948	22105
874.077	22063
874.206	22150
874.335	22177
874.464	22257
874.593	22169
874.722	22139
874.851	22257
874.979	22443
875.108	22303
875.237	22295
875.365	22207
875.494	22253
875.623	22344
875.751	22310
875.88	22276
876.008	22356
876.136	22432
876.265	22577
876.393	22824
876.521	22736
876.65	22698
876.778	22713
876.906	22596
877.034	22577
877.162	22687
877.29	22561
877.418	22694
877.546	22675
877.674	22603
877.802	22603
877.93	22538
878.058	22641
878.185	22519
878.313	22527
878.441	22668
878.568	22508
878.696	22550
878.824	22656
878.951	22733
879.079	22877
879.206	22961
879.333	22736
879.461	22554
879.588	22740
879.715	22679
879.842	22911
879.97	22645
880.097	22478
880.224	22508
880.351	22542
880.478	22382
880.605	22447
880.732	22538
880.859	22694
880.986	22405
881.112	22504
881.239	22169
881.366	22177
881.493	22070
881.619	22029
881.746	22078
881.872	21975
881.999	21998
882.125	21930
882.252	22055
882.378	21945
882.505	22097
882.631	21800
882.757	21774
882.883	21831
883.01	21755
883.136	21587
883.262	21519
883.388	21450
883.514	21671
883.64	21732
883.766	21587
883.892	21511
884.018	21477
884.143	21762
884.269	21732
884.395	21504
884.52	21279
884.646	21416
884.772	21249
884.897	21241
885.023	21351
885.148	21450
885.274	21530
885.399	21386
885.524	21416
885.65	21443
885.775	21370
885.9	21367
886.025	21340
886.15	21275
886.275	21374
886.4	21279
886.525	21397
886.65	21336
886.775	21245
886.9	21519
887.025	21572
887.149	21313
887.274	21150
887.399	21207
887.523	21104
887.648	21055
887.773	21093
887.897	21100
888.021	21161
888.146	20979
888.27	21298
888.395	21237
888.519	21211
888.643	21157
888.767	21176
888.891	21020
889.015	20796
889.139	20902
889.263	20963
889.387	21013
889.511	21142
889.635	21058
889.759	20796
889.883	20811
890.006	20857
890.13	21043
890.254	20769
890.377	20773
890.501	20720
890.624	20609
890.748	20781
890.871	20549
890.995	20476
891.118	20362
891.241	20438
891.364	20514
891.488	20560
891.611	20438
891.734	20476
891.857	20434
891.98	20530
892.103	20537
892.226	20507
892.349	20465
892.471	20313
892.594	20423
892.717	20374
892.839	20343
892.962	20492
893.085	20492
893.207	20431
893.33	20275
893.452	20336
893.575	20423
893.697	20366
893.819	20590
893.941	20575
894.064	20480
894.186	20400
894.308	20351
894.43	20423
894.552	20385
894.674	20526
894.796	20267
894.918	20259
895.04	20195
895.161	20415
895.283	20412
895.405	20385
895.526	20324
895.648	20370
895.769	20389
895.891	20484
896.012	20613
896.134	20423
896.255	20328
896.376	20301
896.498	20347
896.619	20317
896.74	20423
896.861	20408
896.982	20712
897.103	20842
897.224	20598
897.345	20651
897.466	20571
897.587	20575
897.708	20686
897.828	20644
897.949	20431
898.07	20362
898.19	20404
898.311	20667
898.431	20499
898.552	20552
898.672	20724
898.792	20636
898.913	20541
899.033	20476
899.153	20469
899.273	20317
899.393	20320
899.513	20351
899.633	20317
899.753	20400
899.873	20248
899.993	20404
900.113	20298
900.232	20301
900.352	20275
900.472	20092
900.591	20081
900.711	20096
900.83	20130
900.95	20168
901.069	20138
901.189	20065
901.308	19757
901.427	19685
901.546	19712
901.665	19750
901.784	19731
901.904	19495
902.023	19407
902.141	19289
902.26	19266
902.379	19236
902.498	19168
902.617	19129
902.735	19266
902.854	19152
902.973	19027
903.091	18859
903.21	18802
903.328	18905
903.446	18757
903.565	18642
903.683	18806
903.801	18623
903.919	18563
904.038	18578
904.156	18395
904.274	18513
904.392	18399
904.51	18395
904.627	18372
904.745	18490
904.863	18464
904.981	18174
905.098	18163
905.216	18015
905.334	18098
905.451	18235
905.569	18091
905.686	18114
905.803	18026
905.921	17931
906.038	18083
906.155	17901
906.272	17805
906.389	17855
906.506	17695
906.623	17608
906.74	17714
906.857	17482
906.974	17585
907.091	17623
907.208	17805
907.324	17672
907.441	17520
907.557	17410
907.674	17452
907.79	17189
907.907	17292
908.023	17356
908.139	17372
908.256	17280
908.372	17124
908.488	17185
908.604	17155
908.72	17006
908.836	17124
908.952	17056
909.068	17098
909.184	17143
909.3	17064
909.415	17124
909.531	17136
909.647	16824
909.762	16767
909.878	16774
909.993	16847
910.108	16656
910.224	16733
910.339	16599
910.454	16603
910.57	16550
910.685	16489
910.8	16668
910.915	16755
911.03	16588
911.145	16325
911.259	16226
911.374	16265
911.489	16261
911.604	16230
911.718	16105
911.833	16257
911.947	16017
912.062	15983
912.176	16147
912.291	16158
912.405	16078
912.519	16318
912.633	16181
912.748	16071
912.862	16124
912.976	16002
913.09	15793
913.204	15846
913.318	15854
913.431	15964
913.545	15972
913.659	16021
913.772	15907
913.886	15827
914	15736
914.113	15797
914.226	15861
914.34	15808
914.453	15641
914.566	15679
914.68	15614
914.793	15488
914.906	15424
915.019	15374
915.132	15348
915.245	15279
915.358	15359
915.47	15336
915.583	15386
915.696	15370
915.809	15420
915.921	15526
916.034	15207
916.146	15233
916.259	15157
916.371	15287
916.483	15245
916.595	15230
916.708	15195
916.82	15119
916.932	15043
917.044	15081
917.156	15093
917.268	14952
917.38	15009
917.491	14986
917.603	15024
917.715	14963
917.826	15074
917.938	14853
918.049	14861
918.161	14937
918.272	15036
918.384	15077
918.495	14773
918.606	14712
918.717	14644
918.828	14686
918.939	14762
919.05	14606
919.161	14712
919.272	14499
919.383	14590
919.494	14670
919.604	14872
919.715	14701
919.826	14507
919.936	14583
920.047	14777
920.157	14754
920.267	14857
920.378	14693
920.488	14674
920.598	14853
920.708	14925
920.818	14712
920.928	14811
921.038	14990
921.148	14899
921.258	14659
921.368	14583
921.477	14488
921.587	14298
921.697	14305
921.806	14465
921.916	14294
922.025	14062
922.134	14092
922.244	13997
922.353	14119
922.462	13986
922.571	13928
922.68	13658
922.789	13719
922.898	13662
923.007	13647
923.116	13681
923.224	13658
923.333	13636
923.442	13563
923.55	13502
923.659	13571
923.767	13586
923.876	13430
923.984	13590
924.092	13499
924.201	13358
924.309	13438
924.417	13434
924.525	13476
924.633	13464
924.741	14374
924.849	13171
924.956	13381
925.064	13194
925.172	13133
925.279	13168
925.387	13152
925.494	13141
925.602	13221
925.709	13141
925.816	13084
925.924	13175
926.031	13278
926.138	13129
926.245	13232
926.352	12981
926.459	13088
926.566	13126
926.673	13012
926.779	12909
926.886	12863
926.993	12863
927.099	12688
927.206	12627
927.312	12692
927.419	12768
927.525	12665
927.631	12726
927.737	12635
927.843	12608
927.95	12330
928.056	12509
928.162	12578
928.267	12589
928.373	13156
928.479	12635
928.585	12323
928.69	12452
928.796	12479
928.901	12384
929.007	12224
929.112	12429
929.218	12327
929.323	12300
929.428	12243
929.533	12380
929.638	12148
929.743	12159
929.848	12228
929.953	12178
930.058	12140
930.163	11996
930.267	11942
930.372	12117
930.477	11840
930.581	12087
930.685	11939
930.79	11824
930.894	11901
930.998	11786
931.103	11901
931.207	11551
931.311	11474
931.415	11299
931.519	11216
931.623	11181
