Data from test_V78500241_1895.txt Node
Date: Fri Mar 25 15:54:55 CST 2022
User: usil
Spectrometer: V785-0024
Trigger mode: 0
Integration Time (sec): 4.000000E-1
Scans to average: 1
Nonlinearity correction enabled: false
Boxcar width: 0
Storing dark spectrum: false
XAxis mode: Wavelengths
Number of Pixels in Spectrum: 1024
>>>>>Begin Spectral Data<<<<<
801.071	28748
801.214	28675
801.356	28306
801.499	28557
801.641	28424
801.783	28333
801.926	28398
802.068	28310
802.211	28242
802.353	28249
802.496	27892
802.638	28051
802.78	28074
802.923	27960
803.065	27842
803.208	27838
803.35	27998
803.492	28253
803.635	28223
803.777	28112
803.919	28147
804.061	28538
804.204	28257
804.346	28306
804.488	28135
804.63	28333
804.773	28154
804.915	28139
805.057	28318
805.199	28234
805.341	28310
805.483	28440
805.626	28474
805.768	28185
805.91	28356
806.052	28390
806.194	28310
806.336	28573
806.478	28246
806.62	28352
806.762	28519
806.904	28744
807.046	28972
807.188	28908
807.33	28877
807.472	28949
807.614	28831
807.756	28923
807.898	28710
808.04	28626
808.182	28637
808.324	28763
808.465	28767
808.607	28934
808.749	28957
808.891	29060
809.033	29208
809.174	29143
809.316	29075
809.458	29162
809.6	29044
809.741	29181
809.883	29212
810.025	29269
810.166	29410
810.308	29353
810.45	29220
810.591	29231
810.733	29067
810.875	28919
811.016	29010
811.158	28957
811.299	29064
811.441	29086
811.582	29296
811.724	29079
811.865	29075
812.007	29071
812.148	29090
812.29	29147
812.431	29231
812.573	29330
812.714	29570
812.855	29615
812.997	29710
813.138	29958
813.279	29710
813.421	29570
813.562	29634
813.703	29364
813.845	29375
813.986	29083
814.127	28820
814.268	28767
814.41	28694
814.551	28748
814.692	28942
814.833	28588
814.974	28664
815.115	28793
815.256	28748
815.397	28831
815.539	28691
815.68	28417
815.821	28398
815.962	28596
816.103	28611
816.244	28580
816.385	28367
816.526	28284
816.666	28234
816.807	28086
816.948	28192
817.089	28116
817.23	28078
817.371	28074
817.512	28120
817.653	28029
817.793	27960
817.934	28158
818.075	28059
818.216	28006
818.356	27953
818.497	27918
818.638	27865
818.778	27884
818.919	27934
819.06	27930
819.2	27972
819.341	28059
819.481	28017
819.622	28188
819.762	28500
819.903	28375
820.043	28375
820.184	28135
820.324	28325
820.465	28158
820.605	28200
820.746	28204
820.886	28006
821.026	28177
821.167	28173
821.307	28265
821.447	28325
821.588	28002
821.728	28040
821.868	27675
822.008	27587
822.149	27614
822.289	27572
822.429	27405
822.569	27294
822.709	27207
822.849	27112
822.99	27039
823.13	27085
823.27	27036
823.41	26777
823.55	26952
823.69	26906
823.83	26963
823.97	26849
824.11	26705
824.25	26701
824.389	26609
824.529	26712
824.669	26788
824.809	26906
824.949	26815
825.089	26815
825.228	26804
825.368	26495
825.508	26526
825.648	26716
825.787	26625
825.927	26667
826.067	26636
826.206	26648
826.346	26705
826.485	26743
826.625	26571
826.765	26659
826.904	26769
827.044	26396
827.183	26396
827.323	26351
827.462	26328
827.601	26275
827.741	26415
827.88	26313
828.02	26225
828.159	26214
828.298	26514
828.437	26355
828.577	26358
828.716	26473
828.855	26275
828.994	26054
829.134	26016
829.273	25997
829.412	25993
829.551	25909
829.69	26043
829.829	25947
829.968	26065
830.107	26153
830.246	25982
830.385	25898
830.524	25875
830.663	25890
830.802	25734
830.941	25670
831.08	25632
831.219	25704
831.357	25742
831.496	25959
831.635	25639
831.774	25575
831.913	25540
832.051	25464
832.19	25529
832.329	25441
832.467	25175
832.606	25259
832.744	25152
832.883	25312
833.022	25316
833.16	25358
833.299	25327
833.437	25324
833.576	25358
833.714	25388
833.852	25438
833.991	25438
834.129	25518
834.267	25407
834.406	25411
834.544	25251
834.682	25407
834.821	25388
834.959	25377
835.097	25335
835.235	25430
835.373	25381
835.511	25426
835.65	25175
835.788	25247
835.926	25061
836.064	25122
836.202	25012
836.34	25122
836.478	25213
836.615	25175
836.753	25194
836.891	25247
837.029	25148
837.167	25015
837.305	25137
837.443	25000
837.58	24905
837.718	25091
837.856	25050
837.993	24966
838.131	25069
838.269	24970
838.406	24958
838.544	24814
838.681	24715
838.819	24608
838.956	24464
839.094	24467
839.231	24703
839.369	24639
839.506	24962
839.643	24635
839.781	24521
839.918	24334
840.055	24418
840.193	24464
840.33	24429
840.467	24509
840.604	24334
840.742	24692
840.879	24319
841.016	24254
841.153	24129
841.29	24342
841.427	24289
841.564	24323
841.701	24194
841.838	24357
841.975	24327
842.112	24300
842.249	24205
842.385	23992
842.522	24270
842.659	24209
842.796	24110
842.933	24178
843.069	23946
843.206	24026
843.343	24239
843.479	24163
843.616	24060
843.752	23931
843.889	23783
844.025	24053
844.162	23847
844.298	23992
844.435	23847
844.571	23847
844.708	23851
844.844	24057
844.98	24136
845.117	24041
845.253	23828
845.389	23714
845.525	23897
845.661	23657
845.798	23729
845.934	23771
846.07	23642
846.206	23745
846.342	23745
846.478	23501
846.614	23364
846.75	23368
846.886	23334
847.022	23417
847.158	23463
847.294	23505
847.429	23421
847.565	23391
847.701	23615
847.837	23090
847.972	23197
848.108	23231
848.244	23178
848.379	22984
848.515	22942
848.65	22946
848.786	22904
848.921	22953
849.057	23079
849.192	23033
849.328	22961
849.463	22987
849.598	22889
849.734	22809
849.869	22850
850.004	22721
850.14	22755
850.275	22717
850.41	22569
850.545	22656
850.68	22618
850.815	22733
850.95	22626
851.085	23048
851.22	22752
851.355	22752
851.49	22782
851.625	22698
851.76	22668
851.895	22592
852.03	22694
852.165	22744
852.299	22763
852.434	22801
852.569	22744
852.703	22710
852.838	22664
852.973	22797
853.107	22828
853.242	22592
853.376	22561
853.511	22485
853.645	22447
853.78	22694
853.914	22550
854.048	22535
854.183	22512
854.317	22500
854.451	22653
854.585	22615
854.72	22485
854.854	22588
854.988	22447
855.122	22615
855.256	22344
855.39	22512
855.524	22565
855.658	22497
855.792	22580
855.926	22500
856.06	22538
856.194	22626
856.327	22474
856.461	22504
856.595	22580
856.729	22523
856.862	22683
856.996	22546
857.13	22622
857.263	22755
857.397	22713
857.53	22462
857.664	22664
857.797	22580
857.931	22637
858.064	22474
858.197	22500
858.331	22478
858.464	22405
858.597	22493
858.731	22531
858.864	22363
858.997	22386
859.13	22565
859.263	22402
859.396	22523
859.529	22413
859.662	22409
859.795	22443
859.928	22611
860.061	22683
860.194	22812
860.327	22360
860.46	22523
860.592	22725
860.725	22713
860.858	22565
860.99	22630
861.123	22455
861.256	22451
861.388	22382
861.521	23200
861.653	22455
861.786	22348
861.918	22253
862.05	22394
862.183	22470
862.315	22390
862.447	22432
862.58	22500
862.712	22242
862.844	22219
862.976	22207
863.108	22223
863.24	22687
863.372	22204
863.504	22234
863.636	22246
863.768	22314
863.9	22143
864.032	22154
864.164	22109
864.296	22200
864.428	22356
864.559	22280
864.691	22303
864.823	22112
864.954	22124
865.086	22344
865.217	22147
865.349	22036
865.48	22002
865.612	22090
865.743	22219
865.875	22188
866.006	22074
866.137	22086
866.269	22112
866.4	22013
866.531	22059
866.662	22044
866.793	22154
866.924	22048
867.055	22082
867.186	21991
867.317	21983
867.448	21857
867.579	21949
867.71	21812
867.841	21915
867.972	22093
868.103	21960
868.233	22147
868.364	22040
868.495	21956
868.625	22169
868.756	22284
868.886	22116
869.017	22261
869.147	22363
869.278	22371
869.408	22356
869.539	22306
869.669	22291
869.799	22329
869.929	22413
870.06	22375
870.19	22660
870.32	22546
870.45	22557
870.58	22618
870.71	22645
870.84	22771
870.97	22664
871.1	22596
871.23	22763
871.36	22892
871.489	22755
871.619	22828
871.749	22698
871.879	22889
872.008	22892
872.138	22877
872.267	22976
872.397	22698
872.526	22691
872.656	22740
872.785	22759
872.915	22850
873.044	22961
873.173	22900
873.303	22976
873.432	22949
873.561	22968
873.69	22919
873.819	22839
873.948	22869
874.077	22934
874.206	22854
874.335	22904
874.464	22854
874.593	23121
874.722	23022
874.851	23029
874.979	23117
875.108	23170
875.237	23056
875.365	22946
875.494	23022
875.623	23254
875.751	23033
875.88	23067
876.008	23326
876.136	23246
876.265	23509
876.393	23646
876.521	23524
876.65	23452
876.778	23543
876.906	23433
877.034	23379
877.162	23497
877.29	23277
877.418	23417
877.546	23368
877.674	23440
877.802	23436
877.93	23398
878.058	23246
878.185	23307
878.313	23364
878.441	23349
878.568	23322
878.696	23318
878.824	23299
878.951	23543
879.079	23676
879.206	23665
879.333	23703
879.461	23444
879.588	23501
879.715	23680
879.842	23668
879.97	23562
880.097	23296
880.224	23181
880.351	23235
880.478	23349
880.605	23223
880.732	23356
880.859	23573
880.986	23155
881.112	23174
881.239	22972
881.366	23052
881.493	22991
881.619	22930
881.746	22881
881.872	22927
881.999	22771
882.125	22672
882.252	22831
882.378	22683
882.505	22896
882.631	22668
882.757	22573
882.883	22672
883.01	22504
883.136	22440
883.262	22363
883.388	22337
883.514	22554
883.64	22531
883.766	22500
883.892	22128
884.018	22306
884.143	22485
884.269	22508
884.395	22242
884.52	22074
884.646	22169
884.772	22040
884.897	21941
885.023	22234
885.148	22207
885.274	22303
885.399	22131
885.524	22177
885.65	22177
885.775	22162
885.9	22162
886.025	22166
886.15	22238
886.275	22055
886.4	22093
886.525	22067
886.65	22150
886.775	22090
886.9	22234
887.025	22196
887.149	21979
887.274	21857
887.399	21850
887.523	21956
887.648	21690
887.773	21945
887.897	21854
888.021	22013
888.146	21865
888.27	21899
888.395	21778
888.519	21964
888.643	21934
888.767	21819
888.891	21766
889.015	21599
889.139	21720
889.263	21606
889.387	21720
889.511	21968
889.635	21781
889.759	21587
889.883	21542
890.006	21785
890.13	21686
890.254	21553
890.377	21644
890.501	21393
890.624	21325
890.748	21488
890.871	21370
890.995	21150
891.118	21135
891.241	21192
891.364	21260
891.488	21332
891.611	21108
891.734	21180
891.857	21302
891.98	21165
892.103	21230
892.226	21218
892.349	21085
892.471	20960
892.594	21131
892.717	21138
892.839	21058
892.962	21173
893.085	21237
893.207	21112
893.33	21001
893.452	21070
893.575	21112
893.697	21123
893.819	21287
893.941	21245
894.064	21135
894.186	20994
894.308	21173
894.43	21150
894.552	21192
894.674	21173
894.796	20952
894.918	21093
895.04	20998
895.161	21150
895.283	21108
895.405	21039
895.526	21192
895.648	20975
895.769	21043
895.891	21100
896.012	21245
896.134	21085
896.255	21024
896.376	21161
896.498	21150
896.619	21112
896.74	21058
896.861	21241
896.982	21401
897.103	21568
897.224	21355
897.345	21256
897.466	21298
897.587	21325
897.708	21412
897.828	21207
897.949	21214
898.07	21043
898.19	21195
898.311	21340
898.431	21264
898.552	21203
898.672	21310
898.792	21359
898.913	21230
899.033	21135
899.153	21161
899.273	21051
899.393	20979
899.513	20998
899.633	21116
899.753	21100
899.873	21013
899.993	21066
900.113	20933
900.232	21108
900.352	20998
900.472	20800
900.591	20739
900.711	20769
900.83	20720
900.95	20872
901.069	20880
901.189	20648
901.308	20503
901.427	20389
901.546	20423
901.665	20301
901.784	20278
901.904	20180
902.023	20077
902.141	19963
902.26	19830
902.379	20012
902.498	19852
902.617	19909
902.735	19921
902.854	19856
902.973	19791
903.091	19552
903.21	19521
903.328	19434
903.446	19407
903.565	19350
903.683	19362
903.801	19168
903.919	19209
904.038	19274
904.156	19091
904.274	19084
904.392	19038
904.51	18958
904.627	18981
904.745	19042
904.863	19129
904.981	18924
905.098	18677
905.216	18669
905.334	18692
905.451	18798
905.569	18760
905.686	18859
905.803	18703
905.921	18407
906.038	18646
906.155	18547
906.272	18441
906.389	18494
906.506	18372
906.623	18235
906.74	18171
906.857	18030
906.974	18102
907.091	18262
907.208	18270
907.324	18239
907.441	18254
907.557	18053
907.674	17870
907.79	17889
907.907	17954
908.023	17958
908.139	17935
908.256	17863
908.372	17802
908.488	17718
908.604	17604
908.72	17497
908.836	17596
908.952	17707
909.068	17653
909.184	17760
909.3	17661
909.415	17611
909.531	17589
909.647	17497
909.762	17284
909.878	17379
909.993	17387
910.108	17299
910.224	17356
910.339	17273
910.454	17151
910.57	17227
910.685	17094
910.8	17436
910.915	17277
911.03	17185
911.145	16934
911.259	17006
911.374	16946
911.489	16790
911.604	16790
911.718	16763
911.833	16763
911.947	16649
912.062	16599
912.176	16710
912.291	16744
912.405	16668
912.519	16858
912.633	16942
912.748	16733
912.862	16641
912.976	16645
913.09	16386
913.204	16493
913.318	16481
913.431	16645
913.545	16615
913.659	16599
913.772	16558
913.886	16402
914	16394
914.113	16398
914.226	16546
914.34	16424
914.453	16291
914.566	16337
914.68	16173
914.793	16181
914.906	16017
915.019	15854
915.132	15724
915.245	15937
915.358	15911
915.47	15850
915.583	15903
915.696	15915
915.809	16093
915.921	16021
916.034	15857
916.146	15850
916.259	15892
916.371	15812
916.483	15949
916.595	15717
916.708	15766
916.82	15766
916.932	15709
917.044	15682
917.156	15679
917.268	15572
917.38	15625
917.491	15553
917.603	15469
917.715	15553
917.826	15561
917.938	15466
918.049	15405
918.161	15557
918.272	15641
918.384	15599
918.495	15405
918.606	15325
918.717	15188
918.828	15329
918.939	15313
919.05	15169
919.161	15275
919.272	15039
919.383	15214
919.494	15306
919.604	15485
919.715	15252
919.826	15176
919.936	15291
920.047	15241
920.157	15119
920.267	15469
920.378	15287
920.488	15180
920.598	15397
920.708	15595
920.818	15386
920.928	15340
921.038	15530
921.148	15469
921.258	15161
921.368	15180
921.477	14918
921.587	14948
921.697	14819
921.806	14960
921.916	14689
922.025	14613
922.134	14583
922.244	14454
922.353	14590
922.462	14377
922.571	14454
922.68	14294
922.789	14275
922.898	14183
923.007	14191
923.116	14221
923.224	14214
923.333	14225
923.442	14031
923.55	14092
923.659	14073
923.767	14123
923.876	14058
923.984	14020
924.092	13894
924.201	13993
924.309	13917
924.417	13978
924.525	13879
924.633	13845
924.741	14651
924.849	13696
924.956	13715
925.064	13559
925.172	13586
925.279	13662
925.387	13677
925.494	13548
925.602	13696
925.709	13636
925.816	13506
925.924	13552
926.031	13601
926.138	13510
926.245	13651
926.352	13514
926.459	13540
926.566	13597
926.673	13453
926.779	13278
926.886	13312
926.993	13168
927.099	13168
927.206	13031
927.312	13061
927.419	13088
927.525	13012
927.631	13156
927.737	13042
927.843	12970
927.95	12848
928.056	12966
928.162	12924
928.267	13027
928.373	13559
928.479	13053
928.585	12772
928.69	12913
928.796	12916
928.901	12848
929.007	12654
929.112	12787
929.218	12734
929.323	12719
929.428	12677
929.533	12856
929.638	12639
929.743	12536
929.848	12669
929.953	12658
930.058	12506
930.163	12292
930.267	12304
930.372	12544
930.477	12281
930.581	12521
930.685	12350
930.79	12178
930.894	12251
930.998	12159
931.103	12289
931.207	11988
931.311	11874
931.415	11764
931.519	11638
931.623	11566
