Data from test_V78500241_1185.txt Node
Date: Fri Mar 25 15:50:00 CST 2022
User: usil
Spectrometer: V785-0024
Trigger mode: 0
Integration Time (sec): 4.000000E-1
Scans to average: 1
Nonlinearity correction enabled: false
Boxcar width: 0
Storing dark spectrum: false
XAxis mode: Wavelengths
Number of Pixels in Spectrum: 1024
>>>>>Begin Spectral Data<<<<<
801.071	28637
801.214	28466
801.356	28371
801.499	28322
801.641	28185
801.783	28124
801.926	28051
802.068	28196
802.211	28086
802.353	28040
802.496	27808
802.638	27979
802.78	28006
802.923	27724
803.065	27789
803.208	27854
803.35	27861
803.492	28036
803.635	28078
803.777	27911
803.919	28074
804.061	28466
804.204	28162
804.346	28154
804.488	28025
804.63	28067
804.773	27876
804.915	28131
805.057	28238
805.199	28074
805.341	28173
805.483	28287
805.626	28375
805.768	28166
805.91	28261
806.052	28166
806.194	28192
806.336	28519
806.478	28382
806.62	28329
806.762	28417
806.904	28641
807.046	28702
807.188	28713
807.33	28858
807.472	28729
807.614	28675
807.756	28721
807.898	28672
808.04	28485
808.182	28546
808.324	28637
808.465	28615
808.607	28858
808.749	28919
808.891	29098
809.033	29246
809.174	28968
809.316	29003
809.458	29071
809.6	28847
809.741	29037
809.883	29060
810.025	29303
810.166	29216
810.308	29250
810.45	29280
810.591	29212
810.733	29132
810.875	29014
811.016	28885
811.158	28881
811.299	28999
811.441	29128
811.582	29185
811.724	28930
811.865	29033
812.007	28934
812.148	28877
812.29	28980
812.431	29105
812.573	29288
812.714	29349
812.855	29524
812.997	29687
813.138	29786
813.279	29543
813.421	29535
813.562	29623
813.703	29353
813.845	29174
813.986	28873
814.127	28847
814.268	28786
814.41	28740
814.551	28786
814.692	28771
814.833	28679
814.974	28596
815.115	28790
815.256	28523
815.397	28588
815.539	28421
815.68	28580
815.821	28360
815.962	28455
816.103	28451
816.244	28348
816.385	28344
816.526	28215
816.666	28185
816.807	28070
816.948	27987
817.089	28143
817.23	27892
817.371	28002
817.512	28048
817.653	28097
817.793	27888
817.934	27972
818.075	28029
818.216	27903
818.356	28013
818.497	27804
818.638	27793
818.778	27747
818.919	27812
819.06	27739
819.2	27850
819.341	27972
819.481	27964
819.622	28116
819.762	28409
819.903	28249
820.043	28280
820.184	28120
820.324	28032
820.465	28303
820.605	28055
820.746	28059
820.886	28025
821.026	28112
821.167	28131
821.307	28211
821.447	28055
821.588	27934
821.728	27755
821.868	27774
822.008	27652
822.149	27500
822.289	27663
822.429	27249
822.569	27195
822.709	27180
822.849	27104
822.99	26986
823.13	26994
823.27	27043
823.41	26853
823.55	26758
823.69	26857
823.83	26963
823.97	26785
824.11	26655
824.25	26648
824.389	26724
824.529	26830
824.669	26697
824.809	26769
824.949	26811
825.089	26861
825.228	26720
825.368	26552
825.508	26609
825.648	26568
825.787	26583
825.927	26632
826.067	26453
826.206	26701
826.346	26507
826.485	26587
826.625	26389
826.765	26655
826.904	26461
827.044	26183
827.183	26271
827.323	26206
827.462	26332
827.601	26290
827.741	26202
827.88	26195
828.02	26259
828.159	26202
828.298	26195
828.437	26305
828.577	26115
828.716	26355
828.855	26172
828.994	26058
829.134	25944
829.273	26027
829.412	25928
829.551	25875
829.69	25894
829.829	25989
829.968	26054
830.107	26008
830.246	25799
830.385	25830
830.524	25932
830.663	25662
830.802	25681
830.941	25643
831.08	25495
831.219	25677
831.357	25457
831.496	25811
831.635	25571
831.774	25449
831.913	25438
832.051	25396
832.19	25384
832.329	25396
832.467	25324
832.606	25221
832.744	25202
832.883	25244
833.022	25209
833.16	25171
833.299	25251
833.437	25225
833.576	25377
833.714	25358
833.852	25426
833.991	25331
834.129	25308
834.267	25468
834.406	25343
834.544	25324
834.682	25289
834.821	25244
834.959	25441
835.097	25213
835.235	25278
835.373	25308
835.511	25171
835.65	25091
835.788	25148
835.926	24977
836.064	24897
836.202	24928
836.34	25084
836.478	25148
836.615	25042
836.753	25015
836.891	24989
837.029	25110
837.167	25027
837.305	25080
837.443	24970
837.58	24958
837.718	24985
837.856	24886
837.993	24875
838.131	24878
838.269	24749
838.406	25000
838.544	24749
838.681	24540
838.819	24563
838.956	24418
839.094	24239
839.231	24490
839.369	24646
839.506	24764
839.643	24696
839.781	24483
839.918	24209
840.055	24395
840.193	24357
840.33	24270
840.467	24479
840.604	24384
840.742	24479
840.879	24228
841.016	24300
841.153	24334
841.29	24460
841.427	24289
841.564	24296
841.701	24330
841.838	24315
841.975	24125
842.112	24281
842.249	23984
842.385	24106
842.522	24353
842.659	24053
842.796	23999
842.933	24114
843.069	24060
843.206	24011
843.343	24258
843.479	24053
843.616	24045
843.752	23908
843.889	23832
844.025	23996
844.162	23790
844.298	23946
844.435	23718
844.571	23722
844.708	23889
844.844	23901
844.98	23950
845.117	23927
845.253	23748
845.389	23764
845.525	23649
845.661	23630
845.798	23608
845.934	23687
846.07	23615
846.206	23558
846.342	23619
846.478	23642
846.614	23433
846.75	23227
846.886	23296
847.022	23383
847.158	23269
847.294	23162
847.429	23315
847.565	23318
847.701	23509
847.837	23010
847.972	22953
848.108	23162
848.244	23064
848.379	22938
848.515	22904
848.65	22828
848.786	22896
848.921	22691
849.057	22934
849.192	22847
849.328	22942
849.463	22919
849.598	22790
849.734	22672
849.869	22748
850.004	22733
850.14	22664
850.275	22740
850.41	22508
850.545	22512
850.68	22637
850.815	22634
850.95	22588
851.085	22847
851.22	22782
851.355	22713
851.49	22641
851.625	22523
851.76	22596
851.895	22599
852.03	22603
852.165	22664
852.299	22622
852.434	22641
852.569	22569
852.703	22542
852.838	22588
852.973	22793
853.107	22755
853.242	22535
853.376	22481
853.511	22310
853.645	22421
853.78	22691
853.914	22538
854.048	22386
854.183	22432
854.317	22447
854.451	22702
854.585	22440
854.72	22561
854.854	22611
854.988	22421
855.122	22519
855.256	22287
855.39	22329
855.524	22573
855.658	22462
855.792	22447
855.926	22451
856.06	22481
856.194	22523
856.327	22516
856.461	22432
856.595	22371
856.729	22440
856.862	22466
856.996	22417
857.13	22470
857.263	22531
857.397	22561
857.53	22470
857.664	22421
857.797	22573
857.931	22470
858.064	22402
858.197	22455
858.331	22504
858.464	22466
858.597	22272
858.731	22443
858.864	22451
858.997	22394
859.13	22478
859.263	22569
859.396	22580
859.529	22363
859.662	22352
859.795	22432
859.928	22390
860.061	22637
860.194	22607
860.327	22588
860.46	22436
860.592	22493
860.725	22649
860.858	22527
860.99	22447
861.123	22192
861.256	22394
861.388	22390
861.521	23147
861.653	22329
861.786	22284
861.918	22291
862.05	22398
862.183	22341
862.315	22333
862.447	22379
862.58	22424
862.712	22276
862.844	22093
862.976	22276
863.108	22223
863.24	22603
863.372	22051
863.504	22173
863.636	22044
863.768	22234
863.9	22139
864.032	22097
864.164	22093
864.296	22200
864.428	22253
864.559	22173
864.691	22261
864.823	22185
864.954	22051
865.086	22261
865.217	22055
865.349	22002
865.48	22048
865.612	22040
865.743	22166
865.875	22032
866.006	21907
866.137	22013
866.269	22017
866.4	21911
866.531	21922
866.662	21911
866.793	21953
866.924	22032
867.055	22051
867.186	22082
867.317	21915
867.448	21816
867.579	21911
867.71	21865
867.841	21850
867.972	21953
868.103	22025
868.233	21953
868.364	22010
868.495	22070
868.625	22112
868.756	22276
868.886	22090
869.017	22135
869.147	22287
869.278	22333
869.408	22162
869.539	22150
869.669	22196
869.799	22200
869.929	22268
870.06	22333
870.19	22523
870.32	22409
870.45	22500
870.58	22455
870.71	22706
870.84	22607
870.97	22592
871.1	22531
871.23	22694
871.36	22847
871.489	22729
871.619	22599
871.749	22824
871.879	22736
872.008	22858
872.138	22767
872.267	22733
872.397	22656
872.526	22607
872.656	22577
872.785	22713
872.915	22824
873.044	22820
873.173	22698
873.303	22938
873.432	22820
873.561	22911
873.69	22797
873.819	22778
873.948	22824
874.077	22717
874.206	22801
874.335	22889
874.464	22881
874.593	23064
874.722	22934
874.851	23143
874.979	22980
875.108	23117
875.237	22991
875.365	22869
875.494	22923
875.623	22961
875.751	22953
875.88	23041
876.008	23193
876.136	23124
876.265	23345
876.393	23551
876.521	23562
876.65	23398
876.778	23406
876.906	23406
877.034	23379
877.162	23345
877.29	23277
877.418	23417
877.546	23368
877.674	23406
877.802	23254
877.93	23353
878.058	23235
878.185	23212
878.313	23220
878.441	23258
878.568	23227
878.696	23235
878.824	23315
878.951	23414
879.079	23528
879.206	23501
879.333	23520
879.461	23315
879.588	23471
879.715	23581
879.842	23600
879.97	23493
880.097	23121
880.224	23094
880.351	23162
880.478	23178
880.605	23162
880.732	23200
880.859	23284
880.986	23143
881.112	23124
881.239	22995
881.366	22736
881.493	22869
881.619	22782
881.746	22797
881.872	22793
881.999	22729
882.125	22679
882.252	22801
882.378	22725
882.505	22869
882.631	22660
882.757	22447
882.883	22379
883.01	22363
883.136	22428
883.262	22204
883.388	22158
883.514	22333
883.64	22424
883.766	22211
883.892	22215
884.018	22371
884.143	22318
884.269	22421
884.395	22055
884.52	21918
884.646	21915
884.772	21907
884.897	21869
885.023	22048
885.148	22093
885.274	22265
885.399	22112
885.524	21937
885.65	22112
885.775	22074
885.9	22002
886.025	22040
886.15	22131
886.275	21964
886.4	21945
886.525	22109
886.65	22086
886.775	21987
886.9	22223
887.025	22272
887.149	21941
887.274	21964
887.399	21884
887.523	21800
887.648	21728
887.773	21644
887.897	21861
888.021	21903
888.146	21732
888.27	21934
888.395	21865
888.519	21907
888.643	21797
888.767	21850
888.891	21690
889.015	21553
889.139	21625
889.263	21553
889.387	21682
889.511	21770
889.635	21755
889.759	21641
889.883	21568
890.006	21504
890.13	21675
890.254	21416
890.377	21599
890.501	21268
890.624	21264
890.748	21435
890.871	21230
890.995	21142
891.118	21173
891.241	21173
891.364	21180
891.488	21199
891.611	21272
891.734	21062
891.857	21192
891.98	21195
892.103	21268
892.226	21157
892.349	21047
892.471	20994
892.594	21001
892.717	21032
892.839	20960
892.962	21020
893.085	21036
893.207	20910
893.33	20925
893.452	20864
893.575	21085
893.697	21154
893.819	21104
893.941	21138
894.064	21135
894.186	20902
894.308	20925
894.43	21188
894.552	21165
894.674	21150
894.796	20963
894.918	20975
895.04	20880
895.161	21142
895.283	21020
895.405	20921
895.526	21001
895.648	21036
895.769	20956
895.891	21108
896.012	21131
896.134	21028
896.255	21017
896.376	20857
896.498	21028
896.619	20967
896.74	20982
896.861	20967
896.982	21275
897.103	21458
897.224	21256
897.345	21283
897.466	21165
897.587	21123
897.708	21431
897.828	21214
897.949	21161
898.07	21024
898.19	21241
898.311	21192
898.431	21180
898.552	21252
898.672	21199
898.792	21272
898.913	21218
899.033	21165
899.153	21119
899.273	20914
899.393	20941
899.513	21032
899.633	20883
899.753	20941
899.873	20994
899.993	20933
900.113	20910
900.232	20960
900.352	20883
900.472	20788
900.591	20708
900.711	20777
900.83	20693
900.95	20792
901.069	20845
901.189	20583
901.308	20381
901.427	20206
901.546	20294
901.665	20282
901.784	20377
901.904	20214
902.023	19967
902.141	19875
902.26	19761
902.379	19852
902.498	19814
902.617	19795
902.735	19818
902.854	19681
902.973	19651
903.091	19616
903.21	19476
903.328	19396
903.446	19339
903.565	19240
903.683	19148
903.801	19152
903.919	19266
904.038	19179
904.156	19038
904.274	19038
904.392	18981
904.51	18981
904.627	18932
904.745	19046
904.863	19114
904.981	18791
905.098	18673
905.216	18654
905.334	18711
905.451	18768
905.569	18681
905.686	18726
905.803	18741
905.921	18464
906.038	18635
906.155	18441
906.272	18452
906.389	18342
906.506	18323
906.623	18258
906.74	18216
906.857	18079
906.974	18155
907.091	18232
907.208	18346
907.324	18209
907.441	18110
907.557	18064
907.674	17920
907.79	17828
907.907	18041
908.023	17904
908.139	17969
908.256	17893
908.372	17824
908.488	17592
908.604	17718
908.72	17615
908.836	17596
908.952	17547
909.068	17623
909.184	17695
909.3	17524
909.415	17566
909.531	17501
909.647	17417
909.762	17280
909.878	17345
909.993	17299
910.108	17235
910.224	17288
910.339	17376
910.454	17261
910.57	17178
910.685	17079
910.8	17311
910.915	17345
911.03	17140
911.145	16908
911.259	16953
911.374	16885
911.489	16816
911.604	16740
911.718	16706
911.833	16797
911.947	16428
912.062	16459
912.176	16645
912.291	16618
912.405	16592
912.519	16771
912.633	16812
912.748	16706
912.862	16622
912.976	16436
913.09	16421
913.204	16493
913.318	16516
913.431	16542
913.545	16531
913.659	16596
913.772	16341
913.886	16291
914	16166
914.113	16265
914.226	16242
914.34	16322
914.453	16071
914.566	16230
914.68	16169
914.793	16131
914.906	15930
915.019	15816
915.132	15785
915.245	15728
915.358	15835
915.47	15797
915.583	15804
915.696	15915
915.809	15926
915.921	15972
916.034	15819
916.146	15660
916.259	15587
916.371	15800
916.483	15846
916.595	15572
916.708	15523
916.82	15656
916.932	15606
917.044	15663
917.156	15462
917.268	15473
917.38	15424
917.491	15359
917.603	15386
917.715	15443
917.826	15488
917.938	15359
918.049	15313
918.161	15363
918.272	15538
918.384	15542
918.495	15367
918.606	15245
918.717	15150
918.828	15218
918.939	15287
919.05	15108
919.161	15173
919.272	14918
919.383	15032
919.494	15195
919.604	15291
919.715	15116
919.826	15108
919.936	15169
920.047	15211
920.157	15173
920.267	15310
920.378	15188
920.488	15036
920.598	15306
920.708	15450
920.818	15332
920.928	15317
921.038	15458
921.148	15447
921.258	15150
921.368	15039
921.477	14994
921.587	14864
921.697	14727
921.806	14853
921.916	14712
922.025	14560
922.134	14461
922.244	14408
922.353	14575
922.462	14385
922.571	14278
922.68	14199
922.789	14115
922.898	14134
923.007	14107
923.116	14240
923.224	14126
923.333	14062
923.442	13978
923.55	13974
923.659	13967
923.767	14008
923.876	13860
923.984	14035
924.092	13826
924.201	13803
924.309	13849
924.417	13864
924.525	13849
924.633	13841
924.741	14492
924.849	13620
924.956	13784
925.064	13620
925.172	13499
925.279	13563
925.387	13510
925.494	13491
925.602	13552
925.709	13510
925.816	13407
925.924	13556
926.031	13559
926.138	13457
926.245	13464
926.352	13392
926.459	13544
926.566	13483
926.673	13335
926.779	13304
926.886	13259
926.993	13065
927.099	12993
927.206	13046
927.312	13008
927.419	13095
927.525	13061
927.631	13065
927.737	12977
927.843	12954
927.95	12753
928.056	12859
928.162	12882
928.267	12996
928.373	13441
928.479	12886
928.585	12776
928.69	12821
928.796	12833
928.901	12814
929.007	12601
929.112	12688
929.218	12711
929.323	12623
929.428	12642
929.533	12738
929.638	12475
929.743	12589
929.848	12589
929.953	12559
930.058	12437
930.163	12338
930.267	12258
930.372	12486
930.477	12152
930.581	12528
930.685	12178
930.79	12136
930.894	12235
930.998	12072
931.103	12216
931.207	11882
931.311	11817
931.415	11779
931.519	11558
931.623	11543
