Data from test_V78500241_1994.txt Node
Date: Fri Mar 25 15:55:36 CST 2022
User: usil
Spectrometer: V785-0024
Trigger mode: 0
Integration Time (sec): 4.000000E-1
Scans to average: 1
Nonlinearity correction enabled: false
Boxcar width: 0
Storing dark spectrum: false
XAxis mode: Wavelengths
Number of Pixels in Spectrum: 1024
>>>>>Begin Spectral Data<<<<<
801.071	28440
801.214	28409
801.356	28185
801.499	28029
801.641	27953
801.783	27956
801.926	27949
802.068	28139
802.211	27964
802.353	27907
802.496	27739
802.638	27694
802.78	27553
802.923	27447
803.065	27481
803.208	27690
803.35	27618
803.492	27774
803.635	27865
803.777	27854
803.919	27876
804.061	28211
804.204	27903
804.346	27865
804.488	27869
804.63	27835
804.773	27804
804.915	27930
805.057	28067
805.199	27884
805.341	27956
805.483	28048
805.626	28086
805.768	27911
805.91	28013
806.052	28097
806.194	27918
806.336	28272
806.478	28150
806.62	28082
806.762	28150
806.904	28424
807.046	28557
807.188	28455
807.33	28554
807.472	28489
807.614	28523
807.756	28508
807.898	28280
808.04	28341
808.182	28242
808.324	28166
808.465	28462
808.607	28485
808.749	28778
808.891	28835
809.033	28839
809.174	28793
809.316	28733
809.458	28713
809.6	28717
809.741	28839
809.883	28915
810.025	29083
810.166	29094
810.308	29086
810.45	29048
810.591	29029
810.733	28736
810.875	28641
811.016	28683
811.158	28573
811.299	28816
811.441	28976
811.582	28801
811.724	28752
811.865	28717
812.007	28519
812.148	28740
812.29	28683
812.431	28828
812.573	29006
812.714	29124
812.855	29315
812.997	29383
813.138	29505
813.279	29448
813.421	29223
813.562	29132
813.703	28965
813.845	28919
813.986	28656
814.127	28481
814.268	28459
814.41	28561
814.551	28401
814.692	28474
814.833	28375
814.974	28375
815.115	28504
815.256	28257
815.397	28299
815.539	28284
815.68	28344
815.821	28139
815.962	28268
816.103	28219
816.244	28169
816.385	28067
816.526	28154
816.666	27869
816.807	27705
816.948	27808
817.089	27816
817.23	27793
817.371	27644
817.512	27663
817.653	27759
817.793	27564
817.934	27663
818.075	27713
818.216	27724
818.356	27523
818.497	27629
818.638	27374
818.778	27469
818.919	27538
819.06	27637
819.2	27580
819.341	27759
819.481	27523
819.622	27800
819.762	28051
819.903	27937
820.043	27941
820.184	27926
820.324	27838
820.465	28006
820.605	27838
820.746	27888
820.886	27637
821.026	27876
821.167	27854
821.307	27888
821.447	27785
821.588	27644
821.728	27572
821.868	27291
822.008	27245
822.149	27157
822.289	27043
822.429	26872
822.569	26876
822.709	26853
822.849	26708
822.99	26750
823.13	26613
823.27	26613
823.41	26606
823.55	26374
823.69	26503
823.83	26609
823.97	26606
824.11	26461
824.25	26218
824.389	26362
824.529	26286
824.669	26225
824.809	26351
824.949	26396
825.089	26358
825.228	26320
825.368	26229
825.508	26286
825.648	26240
825.787	26259
825.927	26286
826.067	26263
826.206	26237
826.346	26259
826.485	26355
826.625	26256
826.765	26336
826.904	26233
827.044	26050
827.183	26065
827.323	25818
827.462	25951
827.601	26088
827.741	25925
827.88	25974
828.02	25906
828.159	25955
828.298	25928
828.437	26088
828.577	26024
828.716	25966
828.855	25769
828.994	25708
829.134	25681
829.273	25597
829.412	25499
829.551	25533
829.69	25616
829.829	25647
829.968	25807
830.107	25761
830.246	25518
830.385	25388
830.524	25506
830.663	25487
830.802	25346
830.941	25266
831.08	25282
831.219	25148
831.357	25331
831.496	25502
831.635	25141
831.774	25236
831.913	25129
832.051	25008
832.19	24989
832.329	25114
832.467	24878
832.606	24859
832.744	24833
832.883	25038
833.022	24840
833.16	24848
833.299	24947
833.437	25012
833.576	24909
833.714	24817
833.852	25129
833.991	25042
834.129	24985
834.267	24962
834.406	25095
834.544	24970
834.682	24939
834.821	24928
834.959	25228
835.097	24894
835.235	25038
835.373	24951
835.511	24875
835.65	24890
835.788	24817
835.926	24658
836.064	24665
836.202	24757
836.34	24719
836.478	24783
836.615	24760
836.753	24745
836.891	24920
837.029	24749
837.167	24787
837.305	24692
837.443	24795
837.58	24719
837.718	24700
837.856	24658
837.993	24490
838.131	24563
838.269	24639
838.406	24464
838.544	24429
838.681	24327
838.819	24338
838.956	24159
839.094	24064
839.231	24117
839.369	24228
839.506	24559
839.643	24464
839.781	24095
839.918	23996
840.055	24194
840.193	24110
840.33	23897
840.467	24095
840.604	24091
840.742	24232
840.879	23946
841.016	23889
841.153	23908
841.29	24163
841.427	23988
841.564	24129
841.701	24041
841.838	23973
841.975	23874
842.112	23821
842.249	23828
842.385	23729
842.522	23996
842.659	23908
842.796	23566
842.933	23817
843.069	23703
843.206	23748
843.343	23817
843.479	23805
843.616	23672
843.752	23615
843.889	23703
844.025	23634
844.162	23528
844.298	23691
844.435	23482
844.571	23448
844.708	23619
844.844	23718
844.98	23691
845.117	23684
845.253	23558
845.389	23417
845.525	23512
845.661	23341
845.798	23280
845.934	23493
846.07	23356
846.206	23383
846.342	23383
846.478	23383
846.614	23025
846.75	23014
846.886	23037
847.022	23025
847.158	23090
847.294	22984
847.429	23003
847.565	22930
847.701	23166
847.837	22710
847.972	22645
848.108	22809
848.244	22824
848.379	22698
848.515	22569
848.65	22561
848.786	22641
848.921	22527
849.057	22649
849.192	22660
849.328	22626
849.463	22660
849.598	22615
849.734	22367
849.869	22314
850.004	22303
850.14	22375
850.275	22428
850.41	22215
850.545	22379
850.68	22246
850.815	22386
850.95	22462
851.085	22478
851.22	22447
851.355	22451
851.49	22287
851.625	22337
851.76	22322
851.895	22211
852.03	22291
852.165	22185
852.299	22394
852.434	22481
852.569	22394
852.703	22382
852.838	22337
852.973	22516
853.107	22432
853.242	22344
853.376	22226
853.511	22109
853.645	22200
853.78	22265
853.914	21953
854.048	22101
854.183	22204
854.317	22234
854.451	22390
854.585	22246
854.72	22158
854.854	22291
854.988	22124
855.122	22166
855.256	22040
855.39	22238
855.524	22265
855.658	22230
855.792	22230
855.926	22143
856.06	22303
856.194	22261
856.327	22017
856.461	22063
856.595	22143
856.729	22150
856.862	22314
856.996	22169
857.13	22169
857.263	22261
857.397	22303
857.53	22147
857.664	22234
857.797	22242
857.931	22299
858.064	22173
858.197	22253
858.331	22162
858.464	22158
858.597	22105
858.731	22154
858.864	22207
858.997	22109
859.13	22105
859.263	22265
859.396	22219
859.529	22200
859.662	21998
859.795	22211
859.928	22219
860.061	22272
860.194	22390
860.327	22234
860.46	22204
860.592	22253
860.725	22139
860.858	22261
860.99	22200
861.123	22059
861.256	22135
861.388	22230
861.521	22854
861.653	22093
861.786	21869
861.918	22181
862.05	22082
862.183	22139
862.315	22067
862.447	22265
862.58	22025
862.712	21922
862.844	21789
862.976	21968
863.108	21994
863.24	22462
863.372	21876
863.504	21945
863.636	21911
863.768	21953
863.9	21873
864.032	21857
864.164	21728
864.296	21907
864.428	22063
864.559	21937
864.691	21991
864.823	21895
864.954	21869
865.086	21899
865.217	21823
865.349	21819
865.48	21774
865.612	21747
865.743	21983
865.875	21789
866.006	21652
866.137	21774
866.269	21812
866.4	21705
866.531	21675
866.662	21587
866.793	21633
866.924	21713
867.055	21701
867.186	21789
867.317	21618
867.448	21625
867.579	21720
867.71	21622
867.841	21587
867.972	21766
868.103	21778
868.233	21793
868.364	21679
868.495	21797
868.625	21911
868.756	21945
868.886	21861
869.017	22040
869.147	22036
869.278	22040
869.408	22128
869.539	21857
869.669	21991
869.799	22013
869.929	22131
870.06	22063
870.19	22261
870.32	22173
870.45	22188
870.58	22325
870.71	22443
870.84	22375
870.97	22318
871.1	22356
871.23	22557
871.36	22565
871.489	22538
871.619	22447
871.749	22607
871.879	22706
872.008	22656
872.138	22615
872.267	22607
872.397	22371
872.526	22265
872.656	22318
872.785	22402
872.915	22436
873.044	22508
873.173	22554
873.303	22618
873.432	22603
873.561	22698
873.69	22645
873.819	22542
873.948	22508
874.077	22500
874.206	22466
874.335	22474
874.464	22630
874.593	22736
874.722	22679
874.851	22790
874.979	22675
875.108	22790
875.237	22752
875.365	22660
875.494	22847
875.623	22801
875.751	22702
875.88	22820
876.008	22900
876.136	23098
876.265	23170
876.393	23337
876.521	23216
876.65	23246
876.778	23124
876.906	23067
877.034	23090
877.162	23094
877.29	23060
877.418	23189
877.546	23075
877.674	23273
877.802	23022
877.93	23029
878.058	23109
878.185	23014
878.313	23064
878.441	23166
878.568	22965
878.696	23052
878.824	23113
878.951	23246
879.079	23277
879.206	23421
879.333	23292
879.461	23178
879.588	23311
879.715	23322
879.842	23353
879.97	23185
880.097	22957
880.224	23025
880.351	22869
880.478	23044
880.605	22858
880.732	22831
880.859	23239
880.986	22885
881.112	22923
881.239	22824
881.366	22573
881.493	22538
881.619	22527
881.746	22481
881.872	22489
881.999	22447
882.125	22337
882.252	22542
882.378	22436
882.505	22672
882.631	22348
882.757	22124
882.883	22257
883.01	22272
883.136	22082
883.262	22139
883.388	22006
883.514	22211
883.64	22204
883.766	22032
883.892	22105
884.018	22021
884.143	22215
884.269	22181
884.395	21857
884.52	21804
884.646	21732
884.772	21766
884.897	21774
885.023	21831
885.148	21861
885.274	21941
885.399	21854
885.524	21774
885.65	21804
885.775	21842
885.9	21766
886.025	22013
886.15	21873
886.275	21717
886.4	21713
886.525	21781
886.65	21614
886.775	21629
886.9	21972
887.025	21983
887.149	21701
887.274	21568
887.399	21576
887.523	21629
887.648	21557
887.773	21523
887.897	21641
888.021	21606
888.146	21561
888.27	21629
888.395	21572
888.519	21583
888.643	21587
888.767	21614
888.891	21458
889.015	21416
889.139	21443
889.263	21332
889.387	21408
889.511	21534
889.635	21477
889.759	21310
889.883	21329
890.006	21420
890.13	21511
890.254	21302
890.377	21192
890.501	21017
890.624	21127
890.748	21218
890.871	21032
890.995	20979
891.118	20998
891.241	20876
891.364	21028
891.488	20952
891.611	20842
891.734	20842
891.857	20990
891.98	20929
892.103	20986
892.226	20899
892.349	20887
892.471	20785
892.594	20857
892.717	20765
892.839	20823
892.962	20754
893.085	20899
893.207	20830
893.33	20667
893.452	20731
893.575	20891
893.697	20807
893.819	21058
893.941	20982
894.064	20967
894.186	20819
894.308	20792
894.43	20948
894.552	20933
894.674	20941
894.796	20693
894.918	20785
895.04	20750
895.161	20937
895.283	20925
895.405	20727
895.526	20777
895.648	20804
895.769	20804
895.891	20861
896.012	20868
896.134	20750
896.255	20735
896.376	20655
896.498	20777
896.619	20830
896.74	20705
896.861	20941
896.982	21104
897.103	21344
897.224	21013
897.345	21104
897.466	20944
897.587	20990
897.708	21070
897.828	21062
897.949	21028
898.07	20864
898.19	20910
898.311	21127
898.431	20960
898.552	20944
898.672	21104
898.792	21058
898.913	21051
899.033	20826
899.153	20853
899.273	20758
899.393	20792
899.513	20891
899.633	20667
899.753	20815
899.873	20762
899.993	20830
900.113	20705
900.232	20758
900.352	20629
900.472	20560
900.591	20609
900.711	20545
900.83	20442
900.95	20629
901.069	20651
901.189	20320
901.308	20218
901.427	20107
901.546	20081
901.665	20088
901.784	20107
901.904	19978
902.023	19860
902.141	19605
902.26	19715
902.379	19662
902.498	19639
902.617	19643
902.735	19540
902.854	19628
902.973	19529
903.091	19179
903.21	19274
903.328	19301
903.446	19027
903.565	19061
903.683	19069
903.801	18890
903.919	18947
904.038	18962
904.156	18821
904.274	18856
904.392	18890
904.51	18726
904.627	18856
904.745	18821
904.863	18825
904.981	18555
905.098	18437
905.216	18502
905.334	18589
905.451	18540
905.569	18407
905.686	18513
905.803	18410
905.921	18308
906.038	18369
906.155	18357
906.272	18072
906.389	18060
906.506	18049
906.623	18076
906.74	18030
906.857	17817
906.974	17935
907.091	18076
907.208	18155
907.324	18045
907.441	17863
907.557	17756
907.674	17771
907.79	17703
907.907	17771
908.023	17783
908.139	17661
908.256	17585
908.372	17630
908.488	17634
908.604	17433
908.72	17395
908.836	17467
908.952	17414
909.068	17543
909.184	17478
909.3	17436
909.415	17433
909.531	17349
909.647	17162
909.762	17227
909.878	17041
909.993	17033
910.108	17197
910.224	17052
910.339	17048
910.454	17071
910.57	16961
910.685	16930
910.8	17200
910.915	17029
911.03	17037
911.145	16786
911.259	16733
911.374	16729
911.489	16645
911.604	16615
911.718	16432
911.833	16516
911.947	16462
912.062	16207
912.176	16432
912.291	16466
912.405	16443
912.519	16672
912.633	16558
912.748	16474
912.862	16390
912.976	16371
913.09	16223
913.204	16261
913.318	16325
913.431	16382
913.545	16299
913.659	16375
913.772	16219
913.886	16093
914	16090
914.113	16143
914.226	16185
914.34	16154
914.453	15975
914.566	16162
914.68	15983
914.793	15941
914.906	15831
915.019	15656
915.132	15580
915.245	15629
915.358	15774
915.47	15648
915.583	15682
915.696	15663
915.809	15709
915.921	15762
916.034	15648
916.146	15485
916.259	15397
916.371	15656
916.483	15705
916.595	15462
916.708	15584
916.82	15492
916.932	15439
917.044	15458
917.156	15374
917.268	15268
917.38	15348
917.491	15291
917.603	15233
917.715	15332
917.826	15420
917.938	15275
918.049	15116
918.161	15199
918.272	15348
918.384	15317
918.495	15218
918.606	15047
918.717	14994
918.828	15097
918.939	15077
919.05	14921
919.161	14967
919.272	14720
919.383	14819
919.494	15093
919.604	15237
919.715	14967
919.826	14887
919.936	14921
920.047	15058
920.157	14956
920.267	15222
920.378	15032
920.488	14929
920.598	15131
920.708	15275
920.818	15104
920.928	15108
921.038	15287
921.148	15203
921.258	14929
921.368	14792
921.477	14735
921.587	14686
921.697	14579
921.806	14708
921.916	14617
922.025	14454
922.134	14336
922.244	14328
922.353	14370
922.462	14187
922.571	14164
922.68	14050
922.789	13936
922.898	13951
923.007	13898
923.116	14031
923.224	13951
923.333	13986
923.442	13734
923.55	13830
923.659	13803
923.767	13841
923.876	13719
923.984	13742
924.092	13719
924.201	13681
924.309	13696
924.417	13734
924.525	13689
924.633	13677
924.741	14309
924.849	13449
924.956	13571
925.064	13491
925.172	13362
925.279	13419
925.387	13377
925.494	13331
925.602	13422
925.709	13381
925.816	13335
925.924	13358
926.031	13392
926.138	13312
926.245	13365
926.352	13198
926.459	13415
926.566	13430
926.673	13240
926.779	13209
926.886	13145
926.993	12966
927.099	12897
927.206	12909
927.312	12833
927.419	13031
927.525	12890
927.631	12951
927.737	12848
927.843	12863
927.95	12738
928.056	12757
928.162	12768
928.267	12734
928.373	13358
928.479	12840
928.585	12578
928.69	12604
928.796	12639
928.901	12642
929.007	12513
929.112	12601
929.218	12582
929.323	12540
929.428	12509
929.533	12681
929.638	12395
929.743	12448
929.848	12448
929.953	12448
930.058	12285
930.163	12087
930.267	12163
930.372	12251
930.477	12068
930.581	12262
930.685	12148
930.79	11992
930.894	12083
930.998	12022
931.103	12095
931.207	11783
931.311	11665
931.415	11577
931.519	11455
931.623	11383
