Data from test_V78500241_3146.txt Node
Date: Fri Mar 25 16:03:35 CST 2022
User: usil
Spectrometer: V785-0024
Trigger mode: 0
Integration Time (sec): 4.000000E-1
Scans to average: 1
Nonlinearity correction enabled: false
Boxcar width: 0
Storing dark spectrum: false
XAxis mode: Wavelengths
Number of Pixels in Spectrum: 1024
>>>>>Begin Spectral Data<<<<<
801.071	28181
801.214	28154
801.356	27964
801.499	27876
801.641	27713
801.783	27755
801.926	27797
802.068	27739
802.211	27812
802.353	27648
802.496	27500
802.638	27332
802.78	27393
802.923	27355
803.065	27325
803.208	27310
803.35	27412
803.492	27751
803.635	27622
803.777	27496
803.919	27717
804.061	27873
804.204	27690
804.346	27515
804.488	27450
804.63	27629
804.773	27458
804.915	27789
805.057	27785
805.199	27816
805.341	27850
805.483	27808
805.626	27797
805.768	27835
805.91	27854
806.052	27762
806.194	27747
806.336	27964
806.478	27827
806.62	27850
806.762	28074
806.904	28192
807.046	28394
807.188	28238
807.33	28379
807.472	28314
807.614	28253
807.756	28143
807.898	28051
808.04	28059
808.182	28166
808.324	28200
808.465	28086
808.607	28261
808.749	28580
808.891	28557
809.033	28611
809.174	28554
809.316	28470
809.458	28470
809.6	28386
809.741	28561
809.883	28713
810.025	28786
810.166	28771
810.308	28778
810.45	28656
810.591	28664
810.733	28535
810.875	28489
811.016	28523
811.158	28432
811.299	28493
811.441	28554
811.582	28557
811.724	28599
811.865	28542
812.007	28398
812.148	28371
812.29	28497
812.431	28736
812.573	28847
812.714	28793
812.855	28961
812.997	29083
813.138	29318
813.279	29204
813.421	29105
813.562	28942
813.703	28793
813.845	28656
813.986	28413
814.127	28325
814.268	28284
814.41	28261
814.551	28223
814.692	28196
814.833	28067
814.974	28097
815.115	28150
815.256	27987
815.397	28036
815.539	27983
815.68	28032
815.821	27941
815.962	28044
816.103	28074
816.244	27949
816.385	27785
816.526	27686
816.666	27466
816.807	27431
816.948	27477
817.089	27488
817.23	27629
817.371	27485
817.512	27526
817.653	27481
817.793	27370
817.934	27458
818.075	27542
818.216	27515
818.356	27450
818.497	27237
818.638	27237
818.778	27321
818.919	27241
819.06	27321
819.2	27378
819.341	27481
819.481	27526
819.622	27591
819.762	27888
819.903	27705
820.043	27743
820.184	27667
820.324	27641
820.465	27713
820.605	27720
820.746	27595
820.886	27439
821.026	27549
821.167	27515
821.307	27720
821.447	27488
821.588	27321
821.728	27325
821.868	27203
822.008	26990
822.149	26986
822.289	27017
822.429	26731
822.569	26758
822.709	26739
822.849	26469
822.99	26503
823.13	26351
823.27	26469
823.41	26320
823.55	26248
823.69	26187
823.83	26351
823.97	26161
824.11	26039
824.25	26035
824.389	26062
824.529	26214
824.669	26164
824.809	26221
824.949	26305
825.089	26187
825.228	26187
825.368	26115
825.508	25978
825.648	26046
825.787	25932
825.927	26065
826.067	25928
826.206	26005
826.346	25966
826.485	26103
826.625	25966
826.765	26202
826.904	25970
827.044	25936
827.183	25818
827.323	25769
827.462	25837
827.601	25639
827.741	25674
827.88	25761
828.02	25655
828.159	25723
828.298	25616
828.437	25803
828.577	25605
828.716	25833
828.855	25582
828.994	25483
829.134	25381
829.273	25312
829.412	25335
829.551	25377
829.69	25381
829.829	25422
829.968	25590
830.107	25422
830.246	25396
830.385	25278
830.524	25373
830.663	25198
830.802	25206
830.941	25000
831.08	24989
831.219	25057
831.357	25168
831.496	25198
831.635	25080
831.774	24958
831.913	24932
832.051	24821
832.19	24833
832.329	24894
832.467	24677
832.606	24665
832.744	24665
832.883	24745
833.022	24650
833.16	24760
833.299	24578
833.437	24715
833.576	24867
833.714	24734
833.852	24901
833.991	24707
834.129	24878
834.267	24749
834.406	24760
834.544	24798
834.682	24768
834.821	24726
834.959	24962
835.097	24688
835.235	24924
835.373	24753
835.511	24696
835.65	24627
835.788	24566
835.926	24467
836.064	24418
836.202	24467
836.34	24631
836.478	24772
836.615	24601
836.753	24528
836.891	24559
837.029	24536
837.167	24502
837.305	24475
837.443	24338
837.58	24365
837.718	24426
837.856	24513
837.993	24319
838.131	24342
838.269	24232
838.406	24369
838.544	24136
838.681	24022
838.819	24053
838.956	23832
839.094	23866
839.231	23939
839.369	24030
839.506	24300
839.643	24045
839.781	23942
839.918	23737
840.055	23794
840.193	23805
840.33	23779
840.467	23726
840.604	23771
840.742	24178
840.879	23695
841.016	23718
841.153	23741
841.29	23809
841.427	23672
841.564	23767
841.701	23745
841.838	23611
841.975	23783
842.112	23737
842.249	23497
842.385	23570
842.522	23786
842.659	23634
842.796	23558
842.933	23516
843.069	23448
843.206	23452
843.343	23687
843.479	23585
843.616	23436
843.752	23322
843.889	23311
844.025	23482
844.162	23204
844.298	23387
844.435	23299
844.571	23269
844.708	23421
844.844	23467
844.98	23531
845.117	23383
845.253	23273
845.389	23178
845.525	23166
845.661	23166
845.798	23056
845.934	23075
846.07	23090
846.206	23056
846.342	23170
846.478	22968
846.614	22889
846.75	22725
846.886	22816
847.022	22835
847.158	22812
847.294	22744
847.429	22729
847.565	22778
847.701	22961
847.837	22584
847.972	22497
848.108	22607
848.244	22615
848.379	22386
848.515	22394
848.65	22360
848.786	22386
848.921	22459
849.057	22508
849.192	22390
849.328	22432
849.463	22356
849.598	22398
849.734	22325
849.869	22238
850.004	22135
850.14	22131
850.275	22067
850.41	21991
850.545	22158
850.68	22185
850.815	22112
850.95	22051
851.085	22371
851.22	22162
851.355	22207
851.49	22025
851.625	22082
851.76	22177
851.895	22017
852.03	22082
852.165	21972
852.299	22166
852.434	22162
852.569	22101
852.703	22158
852.838	22150
852.973	22272
853.107	22135
853.242	21876
853.376	21956
853.511	21903
853.645	21892
853.78	21968
853.914	21903
854.048	21808
854.183	21975
854.317	21979
854.451	22200
854.585	21759
854.72	21960
854.854	22093
854.988	21987
855.122	21918
855.256	21941
855.39	21922
855.524	22051
855.658	21960
855.792	21956
855.926	21949
856.06	22013
856.194	21922
856.327	21899
856.461	21926
856.595	21941
856.729	21953
856.862	22147
856.996	21903
857.13	22010
857.263	21960
857.397	21994
857.53	21960
857.664	21892
857.797	22029
857.931	22070
858.064	21953
858.197	22135
858.331	21857
858.464	21857
858.597	21869
858.731	21934
858.864	22002
858.997	21899
859.13	22010
859.263	21968
859.396	22044
859.529	21968
859.662	21850
859.795	21854
859.928	22013
860.061	22124
860.194	22032
860.327	21964
860.46	21987
860.592	22074
860.725	22109
860.858	22029
860.99	21930
861.123	21835
861.256	21842
861.388	21953
861.521	22554
861.653	21766
861.786	21759
861.918	21831
862.05	21838
862.183	21899
862.315	21918
862.447	21907
862.58	21797
862.712	21637
862.844	21572
862.976	21759
863.108	21739
863.24	22048
863.372	21542
863.504	21675
863.636	21603
863.768	21656
863.9	21641
864.032	21698
864.164	21587
864.296	21698
864.428	21759
864.559	21705
864.691	21686
864.823	21686
864.954	21553
865.086	21572
865.217	21504
865.349	21523
865.48	21587
865.612	21473
865.743	21770
865.875	21545
866.006	21610
866.137	21583
866.269	21511
866.4	21424
866.531	21625
866.662	21458
866.793	21382
866.924	21363
867.055	21447
867.186	21629
867.317	21401
867.448	21458
867.579	21359
867.71	21340
867.841	21378
867.972	21534
868.103	21542
868.233	21519
868.364	21538
868.495	21553
868.625	21747
868.756	21835
868.886	21682
869.017	21705
869.147	21880
869.278	21789
869.408	21926
869.539	21778
869.669	21778
869.799	21705
869.929	21857
870.06	21857
870.19	22055
870.32	21953
870.45	22048
870.58	22181
870.71	22303
870.84	22207
870.97	22109
871.1	22124
871.23	22318
871.36	22329
871.489	22173
871.619	22322
871.749	22284
871.879	22295
872.008	22329
872.138	22299
872.267	22230
872.397	22303
872.526	22200
872.656	22211
872.785	22219
872.915	22417
873.044	22325
873.173	22352
873.303	22443
873.432	22402
873.561	22447
873.69	22436
873.819	22299
873.948	22508
874.077	22390
874.206	22196
874.335	22318
874.464	22436
874.593	22649
874.722	22504
874.851	22592
874.979	22649
875.108	22584
875.237	22527
875.365	22417
875.494	22474
875.623	22713
875.751	22417
875.88	22580
876.008	22706
876.136	22771
876.265	22942
876.393	22987
876.521	23044
876.65	23105
876.778	22965
876.906	22949
877.034	22953
877.162	22828
877.29	22885
877.418	22930
877.546	22820
877.674	22866
877.802	22961
877.93	22934
878.058	22995
878.185	22759
878.313	22812
878.441	22923
878.568	22759
878.696	22812
878.824	23003
878.951	22953
879.079	23121
879.206	23143
879.333	22991
879.461	22930
879.588	23037
879.715	23071
879.842	23181
879.97	23003
880.097	22687
880.224	22755
880.351	22896
880.478	22782
880.605	22710
880.732	22725
880.859	23029
880.986	22736
881.112	22816
881.239	22702
881.366	22535
881.493	22417
881.619	22234
881.746	22348
881.872	22421
881.999	22207
882.125	22276
882.252	22287
882.378	22291
882.505	22379
882.631	22112
882.757	22093
882.883	22109
883.01	21983
883.136	21892
883.262	21907
883.388	21812
883.514	21998
883.64	22040
883.766	21922
883.892	21679
884.018	21785
884.143	21915
884.269	21960
884.395	21823
884.52	21542
884.646	21667
884.772	21515
884.897	21416
885.023	21614
885.148	21785
885.274	21804
885.399	21797
885.524	21523
885.65	21595
885.775	21667
885.9	21553
886.025	21755
886.15	21739
886.275	21622
886.4	21576
886.525	21644
886.65	21530
886.775	21519
886.9	21739
887.025	21747
887.149	21656
887.274	21477
887.399	21332
887.523	21344
887.648	21306
887.773	21336
887.897	21466
888.021	21462
888.146	21386
888.27	21351
888.395	21439
888.519	21321
888.643	21462
888.767	21367
888.891	21332
889.015	21180
889.139	21218
889.263	21112
889.387	21165
889.511	21401
889.635	21214
889.759	21135
889.883	21131
890.006	21119
890.13	21192
890.254	21013
890.377	21062
890.501	20819
890.624	20807
890.748	21036
890.871	20845
890.995	20708
891.118	20705
891.241	20712
891.364	20823
891.488	20880
891.611	20663
891.734	20739
891.857	20788
891.98	20708
892.103	20838
892.226	20743
892.349	20689
892.471	20602
892.594	20670
892.717	20655
892.839	20621
892.962	20705
893.085	20769
893.207	20720
893.33	20522
893.452	20514
893.575	20697
893.697	20655
893.819	20804
893.941	20830
894.064	20796
894.186	20606
894.308	20564
894.43	20845
894.552	20746
894.674	20636
894.796	20545
894.918	20602
895.04	20545
895.161	20648
895.283	20670
895.405	20476
895.526	20731
895.648	20613
895.769	20629
895.891	20686
896.012	20708
896.134	20632
896.255	20602
896.376	20564
896.498	20644
896.619	20609
896.74	20492
896.861	20598
896.982	20933
897.103	21119
897.224	20887
897.345	20830
897.466	20754
897.587	20857
897.708	21032
897.828	20868
897.949	20887
898.07	20667
898.19	20781
898.311	20906
898.431	20788
898.552	20701
898.672	20963
898.792	20861
898.913	20891
899.033	20644
899.153	20613
899.273	20526
899.393	20606
899.513	20689
899.633	20533
899.753	20552
899.873	20533
899.993	20526
900.113	20366
900.232	20461
900.352	20518
900.472	20362
900.591	20259
900.711	20317
900.83	20237
900.95	20415
901.069	20446
901.189	20328
901.308	19963
901.427	19902
901.546	19982
901.665	19955
901.784	19883
901.904	19803
902.023	19655
902.141	19567
902.26	19388
902.379	19483
902.498	19510
902.617	19419
902.735	19400
902.854	19251
902.973	19343
903.091	19148
903.21	19095
903.328	19091
903.446	19091
903.565	18970
903.683	19000
903.801	18806
903.919	18905
904.038	18852
904.156	18608
904.274	18772
904.392	18719
904.51	18703
904.627	18707
904.745	18757
904.863	18623
904.981	18513
905.098	18372
905.216	18311
905.334	18441
905.451	18209
905.569	18289
905.686	18346
905.803	18319
905.921	18129
906.038	18197
906.155	18159
906.272	18007
906.389	17984
906.506	17840
906.623	17893
906.74	17817
906.857	17691
906.974	17611
907.091	17916
907.208	17939
907.324	17874
907.441	17760
907.557	17577
907.674	17600
907.79	17482
907.907	17448
908.023	17581
908.139	17627
908.256	17532
908.372	17383
908.488	17433
908.604	17406
908.72	17303
908.836	17227
908.952	17258
909.068	17398
909.184	17258
909.3	17341
909.415	17398
909.531	17261
909.647	17128
909.762	17094
909.878	16980
909.993	16961
910.108	16892
910.224	16915
910.339	16984
910.454	16759
910.57	16710
910.685	16755
910.8	16991
910.915	16972
911.03	16748
911.145	16588
911.259	16504
911.374	16558
911.489	16588
911.604	16424
911.718	16299
911.833	16333
911.947	16196
912.062	16223
912.176	16348
912.291	16405
912.405	16253
912.519	16584
912.633	16455
912.748	16287
912.862	16246
912.976	16139
913.09	16040
913.204	16063
913.318	16192
913.431	16329
913.545	16166
913.659	16314
913.772	16051
913.886	15937
914	15953
914.113	15949
914.226	15960
914.34	15918
914.453	15800
914.566	15945
914.68	15732
914.793	15774
914.906	15713
915.019	15526
915.132	15553
915.245	15454
915.358	15496
915.47	15526
915.583	15424
915.696	15481
915.809	15633
915.921	15743
916.034	15386
916.146	15447
916.259	15420
916.371	15526
916.483	15408
916.595	15397
916.708	15393
916.82	15336
916.932	15363
917.044	15424
917.156	15237
917.268	15138
917.38	15336
917.491	15226
917.603	15214
917.715	15275
917.826	15344
917.938	15161
918.049	15017
918.161	15112
918.272	15237
918.384	15203
918.495	15138
918.606	14937
918.717	14883
918.828	15043
918.939	14986
919.05	14788
919.161	14895
919.272	14781
919.383	14883
919.494	14914
919.604	15146
919.715	14960
919.826	14796
919.936	14952
920.047	14944
920.157	14914
920.267	15214
920.378	14944
920.488	14998
920.598	15081
920.708	15192
920.818	15001
920.928	15047
921.038	15226
921.148	15176
921.258	14899
921.368	14678
921.477	14720
921.587	14670
921.697	14503
921.806	14613
921.916	14476
922.025	14347
922.134	14221
922.244	14259
922.353	14358
922.462	14088
922.571	14084
922.68	13955
922.789	13940
922.898	13890
923.007	13868
923.116	13970
923.224	14012
923.333	13894
923.442	13906
923.55	13814
923.659	13746
923.767	13811
923.876	13658
923.984	13780
924.092	13582
924.201	13632
924.309	13666
924.417	13643
924.525	13525
924.633	13586
924.741	14320
924.849	13350
924.956	13506
925.064	13365
925.172	13236
925.279	13343
925.387	13285
925.494	13149
925.602	13407
925.709	13381
925.816	13274
925.924	13327
926.031	13343
926.138	13270
926.245	13358
926.352	13175
926.459	13247
926.566	13320
926.673	13152
926.779	13061
926.886	13065
926.993	12901
927.099	12837
927.206	12817
927.312	12844
927.419	12932
927.525	12772
927.631	12882
927.737	12684
927.843	12741
927.95	12578
928.056	12677
928.162	12703
928.267	12719
928.373	13369
928.479	12829
928.585	12475
928.69	12677
928.796	12631
928.901	12589
929.007	12448
929.112	12475
929.218	12464
929.323	12399
929.428	12353
929.533	12566
929.638	12300
929.743	12350
929.848	12292
929.953	12342
930.058	12117
930.163	11988
930.267	12121
930.372	12186
930.477	12007
930.581	12243
930.685	12114
930.79	11935
930.894	12053
930.998	11954
931.103	12098
931.207	11703
931.311	11665
931.415	11535
931.519	11349
931.623	11296
