Data from test_V78500241_1284.txt Node
Date: Fri Mar 25 15:50:41 CST 2022
User: usil
Spectrometer: V785-0024
Trigger mode: 0
Integration Time (sec): 4.000000E-1
Scans to average: 1
Nonlinearity correction enabled: false
Boxcar width: 0
Storing dark spectrum: false
XAxis mode: Wavelengths
Number of Pixels in Spectrum: 1024
>>>>>Begin Spectral Data<<<<<
801.071	28280
801.214	28177
801.356	28013
801.499	27873
801.641	27823
801.783	27800
801.926	27842
802.068	27911
802.211	27785
802.353	27709
802.496	27420
802.638	27439
802.78	27370
802.923	27458
803.065	27401
803.208	27351
803.35	27389
803.492	27648
803.635	27778
803.777	27583
803.919	27652
804.061	28128
804.204	27629
804.346	27641
804.488	27507
804.63	27557
804.773	27488
804.915	27713
805.057	27717
805.199	27633
805.341	27789
805.483	27945
805.626	27755
805.768	27656
805.91	27808
806.052	27953
806.194	27774
806.336	28002
806.478	27941
806.62	27884
806.762	27949
806.904	28120
807.046	28310
807.188	28249
807.33	28333
807.472	28219
807.614	28070
807.756	28333
807.898	28010
808.04	27964
808.182	28063
808.324	28090
808.465	28287
808.607	28371
808.749	28531
808.891	28432
809.033	28630
809.174	28660
809.316	28607
809.458	28485
809.6	28599
809.741	28706
809.883	28675
810.025	28892
810.166	28831
810.308	28774
810.45	28778
810.591	28729
810.733	28542
810.875	28531
811.016	28306
811.158	28303
811.299	28535
811.441	28580
811.582	28626
811.724	28512
811.865	28405
812.007	28325
812.148	28474
812.29	28390
812.431	28820
812.573	28854
812.714	28869
812.855	29109
812.997	29090
813.138	29208
813.279	29037
813.421	28953
813.562	28923
813.703	28892
813.845	28729
813.986	28497
814.127	28257
814.268	28226
814.41	28196
814.551	28226
814.692	28348
814.833	28246
814.974	28112
815.115	28109
815.256	28154
815.397	28002
815.539	28131
815.68	27895
815.821	27930
815.962	28006
816.103	27918
816.244	27884
816.385	27690
816.526	27736
816.666	27568
816.807	27618
816.948	27450
817.089	27641
817.23	27507
817.371	27454
817.512	27519
817.653	27431
817.793	27435
817.934	27553
818.075	27481
818.216	27435
818.356	27488
818.497	27401
818.638	27173
818.778	27287
818.919	27264
819.06	27408
819.2	27447
819.341	27389
819.481	27481
819.622	27724
819.762	27903
819.903	27652
820.043	27717
820.184	27572
820.324	27633
820.465	27709
820.605	27667
820.746	27549
820.886	27481
821.026	27610
821.167	27511
821.307	27652
821.447	27660
821.588	27507
821.728	27302
821.868	27024
822.008	26914
822.149	27028
822.289	26975
822.429	26712
822.569	26792
822.709	26648
822.849	26541
822.99	26625
823.13	26533
823.27	26396
823.41	26415
823.55	26301
823.69	26256
823.83	26275
823.97	26381
824.11	26210
824.25	26092
824.389	26153
824.529	26271
824.669	26062
824.809	26389
824.949	26214
825.089	26301
825.228	26259
825.368	26035
825.508	26012
825.648	26069
825.787	25986
825.927	26111
826.067	25947
826.206	26024
826.346	26020
826.485	26115
826.625	25944
826.765	26054
826.904	26103
827.044	25986
827.183	25887
827.323	25586
827.462	25753
827.601	25856
827.741	25761
827.88	25738
828.02	25624
828.159	25723
828.298	25719
828.437	25662
828.577	25586
828.716	25788
828.855	25693
828.994	25453
829.134	25502
829.273	25506
829.412	25487
829.551	25373
829.69	25434
829.829	25441
829.968	25438
830.107	25586
830.246	25407
830.385	25384
830.524	25225
830.663	25145
830.802	25038
830.941	25012
831.08	25107
831.219	25133
831.357	25217
831.496	25369
831.635	25008
831.774	25031
831.913	25076
832.051	24871
832.19	24776
832.329	24859
832.467	24703
832.606	24715
832.744	24726
832.883	24677
833.022	24646
833.16	24795
833.299	24650
833.437	24715
833.576	24787
833.714	24837
833.852	24894
833.991	24787
834.129	24932
834.267	24905
834.406	24616
834.544	24837
834.682	24783
834.821	24764
834.959	24882
835.097	24635
835.235	24776
835.373	24650
835.511	24817
835.65	24616
835.788	24646
835.926	24555
836.064	24315
836.202	24448
836.34	24544
836.478	24669
836.615	24479
836.753	24654
836.891	24745
837.029	24604
837.167	24620
837.305	24517
837.443	24604
837.58	24429
837.718	24376
837.856	24380
837.993	24254
838.131	24452
838.269	24418
838.406	24251
838.544	24216
838.681	24030
838.819	24072
838.956	23843
839.094	23961
839.231	23946
839.369	24117
839.506	24262
839.643	24091
839.781	23961
839.918	23859
840.055	23832
840.193	23859
840.33	23790
840.467	23863
840.604	23996
840.742	24087
840.879	23809
841.016	23745
841.153	23775
841.29	23893
841.427	23691
841.564	23901
841.701	23798
841.838	23828
841.975	23722
842.112	23764
842.249	23566
842.385	23615
842.522	23855
842.659	23615
842.796	23585
842.933	23463
843.069	23505
843.206	23531
843.343	23570
843.479	23558
843.616	23326
843.752	23341
843.889	23292
844.025	23356
844.162	23307
844.298	23490
844.435	23376
844.571	23307
844.708	23414
844.844	23452
844.98	23417
845.117	23490
845.253	23181
845.389	23140
845.525	23204
845.661	23246
845.798	23094
845.934	23174
846.07	22942
846.206	23151
846.342	23060
846.478	23014
846.614	22790
846.75	22668
846.886	22702
847.022	22763
847.158	22850
847.294	22805
847.429	22653
847.565	22656
847.701	23041
847.837	22577
847.972	22481
848.108	22706
848.244	22618
848.379	22356
848.515	22447
848.65	22417
848.786	22341
848.921	22493
849.057	22527
849.192	22485
849.328	22485
849.463	22253
849.598	22325
849.734	22257
849.869	22249
850.004	22128
850.14	22158
850.275	22166
850.41	21968
850.545	22120
850.68	22112
850.815	22090
850.95	22101
851.085	22306
851.22	22268
851.355	22219
851.49	22196
851.625	22074
851.76	22109
851.895	22048
852.03	21960
852.165	22223
852.299	22223
852.434	22257
852.569	22101
852.703	22017
852.838	22207
852.973	22265
853.107	22226
853.242	22147
853.376	21835
853.511	21793
853.645	21998
853.78	21930
853.914	21964
854.048	21876
854.183	21964
854.317	22082
854.451	22124
854.585	21876
854.72	21975
854.854	22090
854.988	21842
855.122	21983
855.256	21804
855.39	21937
855.524	21926
855.658	22082
855.792	22036
855.926	21975
856.06	22032
856.194	22013
856.327	21918
856.461	21926
856.595	21876
856.729	21903
856.862	22040
856.996	22067
857.13	22048
857.263	22067
857.397	22025
857.53	21956
857.664	21945
857.797	22021
857.931	21949
858.064	22063
858.197	22109
858.331	21888
858.464	22017
858.597	21838
858.731	22090
858.864	21842
858.997	21850
859.13	21895
859.263	21857
859.396	22040
859.529	22017
859.662	21888
859.795	21892
859.928	21972
860.061	22112
860.194	22124
860.327	21892
860.46	22006
860.592	22097
860.725	22070
860.858	22086
860.99	21953
861.123	21895
861.256	21968
861.388	21838
861.521	22706
861.653	21770
861.786	21770
861.918	21747
862.05	21861
862.183	21907
862.315	21934
862.447	21994
862.58	21892
862.712	21686
862.844	21652
862.976	21709
863.108	21846
863.24	22059
863.372	21660
863.504	21663
863.636	21762
863.768	21663
863.9	21633
864.032	21591
864.164	21648
864.296	21599
864.428	21835
864.559	21816
864.691	21698
864.823	21675
864.954	21599
865.086	21701
865.217	21580
865.349	21397
865.48	21591
865.612	21492
865.743	21698
865.875	21652
866.006	21485
866.137	21568
866.269	21431
866.4	21500
866.531	21500
866.662	21462
866.793	21473
866.924	21462
867.055	21576
867.186	21583
867.317	21488
867.448	21485
867.579	21458
867.71	21378
867.841	21386
867.972	21435
868.103	21306
868.233	21496
868.364	21523
868.495	21622
868.625	21717
868.756	21819
868.886	21667
869.017	21770
869.147	21846
869.278	21766
869.408	21759
869.539	21576
869.669	21724
869.799	21724
869.929	21876
870.06	21964
870.19	22082
870.32	22051
870.45	22055
870.58	22177
870.71	22287
870.84	22162
870.97	22162
871.1	22029
871.23	22386
871.36	22398
871.489	22268
871.619	22211
871.749	22268
871.879	22508
872.008	22455
872.138	22204
872.267	22356
872.397	22158
872.526	22158
872.656	22215
872.785	22097
872.915	22219
873.044	22367
873.173	22363
873.303	22398
873.432	22333
873.561	22428
873.69	22402
873.819	22219
873.948	22280
874.077	22306
874.206	22329
874.335	22314
874.464	22440
874.593	22573
874.722	22478
874.851	22550
874.979	22538
875.108	22660
875.237	22478
875.365	22493
875.494	22478
875.623	22634
875.751	22466
875.88	22626
876.008	22660
876.136	22687
876.265	22839
876.393	22946
876.521	22930
876.65	22968
876.778	22911
876.906	22877
877.034	22752
877.162	22885
877.29	22946
877.418	22976
877.546	22889
877.674	22748
877.802	22831
877.93	22869
878.058	22938
878.185	22691
878.313	22816
878.441	22763
878.568	22702
878.696	22831
878.824	22816
878.951	23044
879.079	23140
879.206	23151
879.333	22999
879.461	22953
879.588	23079
879.715	23014
879.842	23212
879.97	22984
880.097	22717
880.224	22588
880.351	22854
880.478	22733
880.605	22736
880.732	22603
880.859	22801
880.986	22778
881.112	22691
881.239	22561
881.366	22508
881.493	22322
881.619	22322
881.746	22352
881.872	22128
881.999	22162
882.125	22101
882.252	22287
882.378	22200
882.505	22261
882.631	22158
882.757	21972
882.883	21983
883.01	21937
883.136	21846
883.262	21800
883.388	21705
883.514	21911
883.64	21987
883.766	21842
883.892	21789
884.018	21747
884.143	21880
884.269	21960
884.395	21736
884.52	21450
884.646	21720
884.772	21622
884.897	21519
885.023	21679
885.148	21679
885.274	21622
885.399	21564
885.524	21595
885.65	21599
885.775	21523
885.9	21572
886.025	21671
886.15	21610
886.275	21553
886.4	21568
886.525	21583
886.65	21511
886.775	21507
886.9	21701
887.025	21770
887.149	21481
887.274	21363
887.399	21363
887.523	21230
887.648	21241
887.773	21249
887.897	21435
888.021	21538
888.146	21233
888.27	21405
888.395	21344
888.519	21450
888.643	21355
888.767	21424
888.891	21154
889.015	21146
889.139	21192
889.263	21077
889.387	21233
889.511	21469
889.635	21241
889.759	21241
889.883	21055
890.006	21245
890.13	21169
890.254	20933
890.377	20990
890.501	20986
890.624	20876
890.748	20963
890.871	20815
890.995	20712
891.118	20651
891.241	20648
891.364	20659
891.488	20883
891.611	20769
891.734	20708
891.857	20708
891.98	20811
892.103	20773
892.226	20708
892.349	20689
892.471	20564
892.594	20552
892.717	20568
892.839	20598
892.962	20602
893.085	20678
893.207	20476
893.33	20427
893.452	20530
893.575	20644
893.697	20583
893.819	20815
893.941	20712
894.064	20693
894.186	20450
894.308	20427
894.43	20648
894.552	20655
894.674	20708
894.796	20488
894.918	20507
895.04	20621
895.161	20636
895.283	20667
895.405	20598
895.526	20594
895.648	20568
895.769	20625
895.891	20659
896.012	20587
896.134	20678
896.255	20636
896.376	20575
896.498	20617
896.619	20583
896.74	20499
896.861	20651
896.982	21001
897.103	21157
897.224	21020
897.345	20781
897.466	20758
897.587	20788
897.708	20937
897.828	20857
897.949	20693
898.07	20705
898.19	20659
898.311	20773
898.431	20667
898.552	20716
898.672	20864
898.792	20807
898.913	20788
899.033	20636
899.153	20594
899.273	20568
899.393	20511
899.513	20613
899.633	20556
899.753	20579
899.873	20579
899.993	20514
900.113	20476
900.232	20499
900.352	20514
900.472	20351
900.591	20309
900.711	20237
900.83	20282
900.95	20412
901.069	20465
901.189	20233
901.308	19963
901.427	19906
901.546	19963
901.665	19970
901.784	19951
901.904	19738
902.023	19670
902.141	19586
902.26	19502
902.379	19502
902.498	19384
902.617	19354
902.735	19533
902.854	19487
902.973	19415
903.091	19088
903.21	19012
903.328	18993
903.446	18973
903.565	18802
903.683	18798
903.801	18741
903.919	18844
904.038	18726
904.156	18741
904.274	18661
904.392	18639
904.51	18601
904.627	18650
904.745	18749
904.863	18635
904.981	18429
905.098	18319
905.216	18300
905.334	18369
905.451	18346
905.569	18289
905.686	18262
905.803	18399
905.921	18076
906.038	18262
906.155	17973
906.272	17996
906.389	18026
906.506	17855
906.623	17836
906.74	17836
906.857	17680
906.974	17786
907.091	17843
907.208	18015
907.324	17897
907.441	17733
907.557	17566
907.674	17566
907.79	17467
907.907	17532
908.023	17657
908.139	17562
908.256	17410
908.372	17471
908.488	17402
908.604	17284
908.72	17185
908.836	17178
908.952	17315
909.068	17296
909.184	17334
909.3	17269
909.415	17254
909.531	17254
909.647	17060
909.762	16919
909.878	17018
909.993	16927
910.108	16930
910.224	16854
910.339	16923
910.454	16824
910.57	16771
910.685	16641
910.8	17022
910.915	16797
911.03	16752
911.145	16626
911.259	16538
911.374	16447
911.489	16550
911.604	16379
911.718	16291
911.833	16261
911.947	16200
912.062	16147
912.176	16223
912.291	16253
912.405	16398
912.519	16489
912.633	16363
912.748	16272
912.862	16348
912.976	16200
913.09	16086
913.204	15953
913.318	16044
913.431	16188
913.545	16196
913.659	16181
913.772	16090
913.886	15846
914	15945
914.113	15930
914.226	15918
914.34	15949
914.453	15793
914.566	15922
914.68	15705
914.793	15701
914.906	15595
915.019	15507
915.132	15351
915.245	15405
915.358	15492
915.47	15530
915.583	15473
915.696	15515
915.809	15671
915.921	15633
916.034	15473
916.146	15359
916.259	15397
916.371	15367
916.483	15351
916.595	15481
916.708	15321
916.82	15321
916.932	15233
917.044	15275
917.156	15161
917.268	15173
917.38	15165
917.491	15169
917.603	15150
917.715	15192
917.826	15226
917.938	15104
918.049	15005
918.161	15131
918.272	15313
918.384	15245
918.495	15070
918.606	14868
918.717	14857
918.828	14929
918.939	14902
919.05	14807
919.161	14830
919.272	14674
919.383	14739
919.494	14868
919.604	15047
919.715	14830
919.826	14823
919.936	14826
920.047	14933
920.157	14868
920.267	14956
920.378	14853
920.488	14815
920.598	15013
920.708	15211
920.818	15039
920.928	14933
921.038	15165
921.148	15032
921.258	14765
921.368	14674
921.477	14602
921.587	14476
921.697	14446
921.806	14537
921.916	14419
922.025	14282
922.134	14237
922.244	14210
922.353	14328
922.462	14100
922.571	13986
922.68	13868
922.789	13887
922.898	13879
923.007	13719
923.116	13898
923.224	13727
923.333	13761
923.442	13681
923.55	13651
923.659	13681
923.767	13719
923.876	13552
923.984	13685
924.092	13563
924.201	13674
924.309	13624
924.417	13609
924.525	13514
924.633	13521
924.741	14457
924.849	13339
924.956	13400
925.064	13293
925.172	13217
925.279	13228
925.387	13293
925.494	13350
925.602	13453
925.709	13324
925.816	13095
925.924	13202
926.031	13282
926.138	13183
926.245	13247
926.352	13046
926.459	13221
926.566	13190
926.673	13122
926.779	12951
926.886	12993
926.993	12856
927.099	12810
927.206	12779
927.312	12749
927.419	12798
927.525	12776
927.631	12817
927.737	12681
927.843	12642
927.95	12517
928.056	12593
928.162	12722
928.267	12665
928.373	13232
928.479	12749
928.585	12502
928.69	12597
928.796	12536
928.901	12486
929.007	12365
929.112	12475
929.218	12441
929.323	12350
929.428	12376
929.533	12388
929.638	12273
929.743	12304
929.848	12342
929.953	12159
930.058	12121
930.163	12019
930.267	12011
930.372	12110
930.477	12015
930.581	12209
930.685	12148
930.79	11942
930.894	11908
930.998	11904
931.103	12015
931.207	11604
931.311	11551
931.415	11524
931.519	11280
931.623	11235
