Data from test_V78500241_385.txt Node
Date: Fri Mar 25 15:44:28 CST 2022
User: usil
Spectrometer: V785-0024
Trigger mode: 0
Integration Time (sec): 4.000000E-1
Scans to average: 1
Nonlinearity correction enabled: false
Boxcar width: 0
Storing dark spectrum: false
XAxis mode: Wavelengths
Number of Pixels in Spectrum: 1024
>>>>>Begin Spectral Data<<<<<
801.071	29117
801.214	29121
801.356	28908
801.499	28816
801.641	28793
801.783	28687
801.926	28698
802.068	28603
802.211	28706
802.353	28466
802.496	28455
802.638	28447
802.78	28379
802.923	28394
803.065	28394
803.208	28188
803.35	28352
803.492	28436
803.635	28470
803.777	28405
803.919	28607
804.061	28862
804.204	28557
804.346	28523
804.488	28504
804.63	28649
804.773	28409
804.915	28519
805.057	28622
805.199	28500
805.341	28626
805.483	28596
805.626	28801
805.768	28516
805.91	28656
806.052	28523
806.194	28713
806.336	28862
806.478	28656
806.62	28793
806.762	28805
806.904	28877
807.046	29239
807.188	29105
807.33	29090
807.472	29113
807.614	29102
807.756	29105
807.898	28839
808.04	28995
808.182	28911
808.324	28904
808.465	28987
808.607	29151
808.749	29318
808.891	29345
809.033	29573
809.174	29406
809.316	29341
809.458	29311
809.6	29368
809.741	29543
809.883	29440
810.025	29509
810.166	29512
810.308	29501
810.45	29649
810.591	29520
810.733	29440
810.875	29315
811.016	29250
811.158	29292
811.299	29330
811.441	29474
811.582	29490
811.724	29349
811.865	29220
812.007	29143
812.148	29250
812.29	29284
812.431	29589
812.573	29551
812.714	29771
812.855	29752
812.997	29923
813.138	30038
813.279	29916
813.421	29760
813.562	29855
813.703	29718
813.845	29509
813.986	29212
814.127	29090
814.268	29083
814.41	28968
814.551	28900
814.692	29064
814.833	28991
814.974	28881
815.115	28927
815.256	28854
815.397	29018
815.539	28824
815.68	28660
815.821	28713
815.962	28767
816.103	28694
816.244	28630
816.385	28599
816.526	28413
816.666	28337
816.807	28295
816.948	28386
817.089	28356
817.23	28211
817.371	28284
817.512	28257
817.653	28204
817.793	28181
817.934	28249
818.075	28162
818.216	28188
818.356	28166
818.497	28181
818.638	28025
818.778	27934
818.919	28002
819.06	27991
819.2	28093
819.341	28276
819.481	28215
819.622	28417
819.762	28428
819.903	28371
820.043	28382
820.184	28166
820.324	28363
820.465	28177
820.605	28329
820.746	28226
820.886	28150
821.026	28322
821.167	28261
821.307	28379
821.447	28226
821.588	28021
821.728	27895
821.868	27816
822.008	27549
822.149	27606
822.289	27603
822.429	27363
822.569	27325
822.709	27275
822.849	27112
822.99	27096
823.13	27180
823.27	27051
823.41	26895
823.55	26743
823.69	26902
823.83	26986
823.97	26811
824.11	26659
824.25	26754
824.389	26667
824.529	26792
824.669	26629
824.809	26739
824.949	26830
825.089	26720
825.228	26796
825.368	26518
825.508	26651
825.648	26564
825.787	26564
825.927	26686
826.067	26568
826.206	26518
826.346	26579
826.485	26579
826.625	26514
826.765	26739
826.904	26644
827.044	26240
827.183	26298
827.323	26202
827.462	26396
827.601	26320
827.741	26130
827.88	26336
828.02	26145
828.159	26202
828.298	26263
828.437	26286
828.577	26142
828.716	26446
828.855	26035
828.994	25860
829.134	25925
829.273	25909
829.412	25963
829.551	25837
829.69	25753
829.829	25947
829.968	26077
830.107	25963
830.246	26024
830.385	25890
830.524	25715
830.663	25647
830.802	25597
830.941	25601
831.08	25491
831.219	25544
831.357	25533
831.496	25700
831.635	25472
831.774	25483
831.913	25491
832.051	25236
832.19	25274
832.329	25209
832.467	25126
832.606	25225
832.744	24954
832.883	25129
833.022	25213
833.16	25145
833.299	25107
833.437	25225
833.576	25209
833.714	25209
833.852	25122
833.991	25225
834.129	25187
834.267	25285
834.406	25190
834.544	25095
834.682	25251
834.821	25209
834.959	25278
835.097	25114
835.235	25187
835.373	25156
835.511	25038
835.65	25031
835.788	24985
835.926	24783
836.064	24753
836.202	24951
836.34	24962
836.478	25046
836.615	24973
836.753	24905
836.891	25050
837.029	24989
837.167	25038
837.305	24894
837.443	24837
837.58	24692
837.718	24875
837.856	24692
837.993	24601
838.131	24840
838.269	24582
838.406	24673
838.544	24585
838.681	24502
838.819	24300
838.956	24266
839.094	24327
839.231	24289
839.369	24559
839.506	24612
839.643	24479
839.781	24197
839.918	24197
840.055	24110
840.193	24167
840.33	24034
840.467	24182
840.604	24155
840.742	24384
840.879	24095
841.016	24072
841.153	24003
841.29	24266
841.427	24015
841.564	24251
841.701	24091
841.838	24026
841.975	23954
842.112	24053
842.249	23897
842.385	23813
842.522	23904
842.659	23920
842.796	23813
842.933	23866
843.069	23729
843.206	23733
843.343	23942
843.479	23790
843.616	23805
843.752	23634
843.889	23436
844.025	23786
844.162	23539
844.298	23813
844.435	23520
844.571	23573
844.708	23573
844.844	23718
844.98	23752
845.117	23748
845.253	23528
845.389	23402
845.525	23501
845.661	23406
845.798	23345
845.934	23311
846.07	23212
846.206	23296
846.342	23429
846.478	23246
846.614	23140
846.75	23094
846.886	22965
847.022	23060
847.158	23029
847.294	22999
847.429	23113
847.565	22976
847.701	23303
847.837	22759
847.972	22664
848.108	22816
848.244	22759
848.379	22656
848.515	22500
848.65	22634
848.786	22637
848.921	22538
849.057	22717
849.192	22573
849.328	22592
849.463	22508
849.598	22656
849.734	22512
849.869	22333
850.004	22329
850.14	22310
850.275	22310
850.41	22177
850.545	22238
850.68	22318
850.815	22375
850.95	22363
851.085	22493
851.22	22405
851.355	22295
851.49	22314
851.625	22284
851.76	22246
851.895	22215
852.03	22265
852.165	22310
852.299	22337
852.434	22405
852.569	22360
852.703	22303
852.838	22306
852.973	22538
853.107	22535
853.242	22219
853.376	22166
853.511	22032
853.645	22055
853.78	22238
853.914	22025
854.048	22109
854.183	22051
854.317	22150
854.451	22268
854.585	22101
854.72	22124
854.854	22070
854.988	22147
855.122	22150
855.256	21926
855.39	22006
855.524	22055
855.658	22067
855.792	22059
855.926	22086
856.06	22090
856.194	22135
856.327	22070
856.461	22105
856.595	22097
856.729	22112
856.862	22219
856.996	22181
857.13	22143
857.263	22287
857.397	22128
857.53	22147
857.664	22192
857.797	22249
857.931	22226
858.064	22226
858.197	22215
858.331	22135
858.464	22086
858.597	21911
858.731	21941
858.864	21956
858.997	21968
859.13	22086
859.263	22078
859.396	22105
859.529	22013
859.662	21937
859.795	22029
859.928	22078
860.061	22299
860.194	22204
860.327	22112
860.46	22135
860.592	22158
860.725	22257
860.858	22211
860.99	22036
861.123	21953
861.256	22090
861.388	21998
861.521	22691
861.653	22006
861.786	21888
861.918	22017
862.05	22013
862.183	21994
862.315	22109
862.447	22181
862.58	21953
862.712	21876
862.844	21751
862.976	21918
863.108	21884
863.24	22318
863.372	21694
863.504	21831
863.636	21743
863.768	21804
863.9	21808
864.032	21705
864.164	21823
864.296	21835
864.428	21861
864.559	21808
864.691	21865
864.823	21838
864.954	21755
865.086	21766
865.217	21622
865.349	21641
865.48	21660
865.612	21675
865.743	21873
865.875	21583
866.006	21663
866.137	21679
866.269	21625
866.4	21637
866.531	21679
866.662	21675
866.793	21641
866.924	21504
867.055	21439
867.186	21534
867.317	21481
867.448	21583
867.579	21545
867.71	21511
867.841	21511
867.972	21530
868.103	21496
868.233	21591
868.364	21679
868.495	21648
868.625	21941
868.756	21888
868.886	21762
869.017	21800
869.147	21987
869.278	21892
869.408	21892
869.539	21835
869.669	21964
869.799	21899
869.929	21991
870.06	21991
870.19	22169
870.32	22078
870.45	22223
870.58	22310
870.71	22344
870.84	22318
870.97	22333
871.1	22211
871.23	22375
871.36	22402
871.489	22356
871.619	22398
871.749	22219
871.879	22417
872.008	22535
872.138	22432
872.267	22432
872.397	22211
872.526	22291
872.656	22344
872.785	22265
872.915	22485
873.044	22519
873.173	22436
873.303	22489
873.432	22535
873.561	22565
873.69	22550
873.819	22565
873.948	22538
874.077	22546
874.206	22367
874.335	22405
874.464	22474
874.593	22721
874.722	22622
874.851	22679
874.979	22778
875.108	22816
875.237	22649
875.365	22611
875.494	22588
875.623	22740
875.751	22645
875.88	22767
876.008	22729
876.136	22816
876.265	23067
876.393	23128
876.521	23197
876.65	23083
876.778	22987
876.906	22984
877.034	23121
877.162	23075
877.29	22961
877.418	23060
877.546	22980
877.674	23060
877.802	22995
877.93	23064
878.058	22938
878.185	22816
878.313	23052
878.441	23048
878.568	22828
878.696	22953
878.824	23003
878.951	23064
879.079	23170
879.206	23353
879.333	23105
879.461	23223
879.588	23113
879.715	23227
879.842	23277
879.97	23094
880.097	22774
880.224	22782
880.351	22911
880.478	22877
880.605	22862
880.732	22809
880.859	22980
880.986	22812
881.112	22831
881.239	22679
881.366	22592
881.493	22493
881.619	22424
881.746	22447
881.872	22504
881.999	22291
882.125	22379
882.252	22398
882.378	22382
882.505	22379
882.631	22306
882.757	22135
882.883	22169
883.01	22150
883.136	22101
883.262	22002
883.388	22093
883.514	22082
883.64	22109
883.766	22120
883.892	21804
884.018	21857
884.143	22093
884.269	22131
884.395	21781
884.52	21774
884.646	21679
884.772	21595
884.897	21785
885.023	21778
885.148	21880
885.274	21793
885.399	21797
885.524	21576
885.65	21766
885.775	21637
885.9	21743
886.025	21755
886.15	21732
886.275	21732
886.4	21637
886.525	21686
886.65	21633
886.775	21717
886.9	21850
887.025	21854
887.149	21709
887.274	21458
887.399	21367
887.523	21477
887.648	21268
887.773	21336
887.897	21530
888.021	21511
888.146	21355
888.27	21519
888.395	21557
888.519	21374
888.643	21439
888.767	21469
888.891	21363
889.015	21252
889.139	21344
889.263	21135
889.387	21355
889.511	21397
889.635	21466
889.759	21237
889.883	21321
890.006	21268
890.13	21313
890.254	21237
890.377	21233
890.501	20956
890.624	20990
890.748	21062
890.871	20899
890.995	20739
891.118	20678
891.241	20895
891.364	20739
891.488	20918
891.611	20861
891.734	20899
891.857	20834
891.98	20895
892.103	20982
892.226	20758
892.349	20842
892.471	20609
892.594	20773
892.717	20712
892.839	20800
892.962	20701
893.085	20785
893.207	20678
893.33	20609
893.452	20606
893.575	20762
893.697	20678
893.819	20834
893.941	20925
894.064	20727
894.186	20625
894.308	20606
894.43	20849
894.552	20925
894.674	20842
894.796	20670
894.918	20800
895.04	20762
895.161	20697
895.283	20807
895.405	20648
895.526	20735
895.648	20598
895.769	20689
895.891	20769
896.012	20845
896.134	20769
896.255	20853
896.376	20716
896.498	20815
896.619	20902
896.74	20754
896.861	20815
896.982	21070
897.103	21127
897.224	20834
897.345	20941
897.466	20902
897.587	20887
897.708	21100
897.828	20925
897.949	20807
898.07	20796
898.19	20807
898.311	20891
898.431	20857
898.552	20929
898.672	20998
898.792	20937
898.913	20861
899.033	20838
899.153	20648
899.273	20530
899.393	20602
899.513	20701
899.633	20598
899.753	20644
899.873	20655
899.993	20659
900.113	20663
900.232	20575
900.352	20533
900.472	20507
900.591	20404
900.711	20499
900.83	20434
900.95	20473
901.069	20446
901.189	20332
901.308	20092
901.427	19974
901.546	20039
901.665	20062
901.784	19963
901.904	19917
902.023	19803
902.141	19571
902.26	19540
902.379	19563
902.498	19571
902.617	19480
902.735	19472
902.854	19491
902.973	19354
903.091	19202
903.21	19091
903.328	19122
903.446	19042
903.565	18996
903.683	19012
903.801	18829
903.919	18970
904.038	18920
904.156	18802
904.274	18700
904.392	18745
904.51	18700
904.627	18585
904.745	18779
904.863	18760
904.981	18410
905.098	18407
905.216	18323
905.334	18395
905.451	18334
905.569	18308
905.686	18292
905.803	18308
905.921	18281
906.038	18216
906.155	18117
906.272	18171
906.389	17980
906.506	17965
906.623	17840
906.74	17916
906.857	17729
906.974	17786
907.091	18049
907.208	17950
907.324	17882
907.441	17942
907.557	17676
907.674	17608
907.79	17467
907.907	17668
908.023	17562
908.139	17638
908.256	17467
908.372	17505
908.488	17425
908.604	17277
908.72	17242
908.836	17318
908.952	17250
909.068	17284
909.184	17440
909.3	17231
909.415	17398
909.531	17258
909.647	17060
909.762	16991
909.878	16877
909.993	16991
910.108	17022
910.224	16946
910.339	16984
910.454	16809
910.57	16790
910.685	16850
910.8	16972
910.915	16862
911.03	16664
911.145	16679
911.259	16470
911.374	16565
911.489	16428
911.604	16394
911.718	16230
911.833	16299
911.947	16116
912.062	16192
912.176	16303
912.291	16352
912.405	16344
912.519	16428
912.633	16489
912.748	16344
912.862	16257
912.976	16044
913.09	16040
913.204	16040
913.318	16086
913.431	16223
913.545	16192
913.659	16177
913.772	16097
913.886	15930
914	15922
914.113	15994
914.226	16036
914.34	16032
914.453	15842
914.566	15899
914.68	15873
914.793	15667
914.906	15622
915.019	15523
915.132	15458
915.245	15542
915.358	15576
915.47	15496
915.583	15519
915.696	15443
915.809	15614
915.921	15591
916.034	15370
916.146	15355
916.259	15439
916.371	15447
916.483	15450
916.595	15363
916.708	15359
916.82	15275
916.932	15275
917.044	15283
917.156	15279
917.268	15116
917.38	15146
917.491	15157
917.603	15150
917.715	15199
917.826	15195
917.938	15028
918.049	15055
918.161	15066
918.272	15165
918.384	15222
918.495	15097
918.606	14910
918.717	14773
918.828	14842
918.939	14944
919.05	14773
919.161	14834
919.272	14667
919.383	14754
919.494	14868
919.604	15024
919.715	14842
919.826	14804
919.936	14785
920.047	14910
920.157	14769
920.267	14933
920.378	14815
920.488	14781
920.598	14975
920.708	15089
920.818	15001
920.928	14952
921.038	15043
921.148	15074
921.258	14746
921.368	14693
921.477	14549
921.587	14530
921.697	14347
921.806	14552
921.916	14385
922.025	14244
922.134	14206
922.244	14195
922.353	14237
922.462	14138
922.571	13955
922.68	13890
922.789	13826
922.898	13776
923.007	13761
923.116	13852
923.224	13765
923.333	13818
923.442	13616
923.55	13620
923.659	13681
923.767	13746
923.876	13590
923.984	13666
924.092	13468
924.201	13628
924.309	13510
924.417	13582
924.525	13422
924.633	13369
924.741	14377
924.849	13228
924.956	13369
925.064	13259
925.172	13091
925.279	13202
925.387	13122
925.494	13198
925.602	13304
925.709	13274
925.816	13057
925.924	13137
926.031	13099
926.138	13149
926.245	13168
926.352	13023
926.459	13213
926.566	13263
926.673	13042
926.779	12973
926.886	12932
926.993	12779
927.099	12783
927.206	12798
927.312	12722
927.419	12760
927.525	12814
927.631	12806
927.737	12692
927.843	12597
927.95	12517
928.056	12616
928.162	12582
928.267	12620
928.373	13179
928.479	12715
928.585	12350
928.69	12528
928.796	12570
928.901	12426
929.007	12342
929.112	12399
929.218	12403
929.323	12262
929.428	12311
929.533	12399
929.638	12262
929.743	12281
929.848	12296
929.953	12262
930.058	12095
930.163	11984
930.267	12057
930.372	12155
930.477	11950
930.581	12114
930.685	12011
930.79	11893
930.894	11855
930.998	11840
931.103	11942
931.207	11680
931.311	11611
931.415	11410
931.519	11318
931.623	11311
