Data from test_V78500241_705.txt Node
Date: Fri Mar 25 15:46:41 CST 2022
User: usil
Spectrometer: V785-0024
Trigger mode: 0
Integration Time (sec): 4.000000E-1
Scans to average: 1
Nonlinearity correction enabled: false
Boxcar width: 0
Storing dark spectrum: false
XAxis mode: Wavelengths
Number of Pixels in Spectrum: 1024
>>>>>Begin Spectral Data<<<<<
801.071	27694
801.214	27762
801.356	27393
801.499	27405
801.641	27188
801.783	27199
801.926	27504
802.068	27393
802.211	27214
802.353	27138
802.496	27024
802.638	26918
802.78	26861
802.923	26845
803.065	27066
803.208	26849
803.35	27028
803.492	26940
803.635	27165
803.777	26914
803.919	27184
804.061	27363
804.204	27195
804.346	26899
804.488	27032
804.63	26990
804.773	26895
804.915	27104
805.057	27135
805.199	27039
805.341	27195
805.483	27230
805.626	27100
805.768	27233
805.91	27287
806.052	27298
806.194	27066
806.336	27313
806.478	27447
806.62	27142
806.762	27321
806.904	27637
807.046	27739
807.188	27622
807.33	27686
807.472	27713
807.614	27698
807.756	27583
807.898	27496
808.04	27443
808.182	27492
808.324	27469
808.465	27492
808.607	27667
808.749	27892
808.891	27884
809.033	28002
809.174	27975
809.316	27964
809.458	27911
809.6	27972
809.741	28006
809.883	28093
810.025	28162
810.166	28185
810.308	28093
810.45	28059
810.591	27998
810.733	27956
810.875	27732
811.016	27728
811.158	27766
811.299	27972
811.441	28131
811.582	28044
811.724	27842
811.865	27876
812.007	27994
812.148	27869
812.29	27865
812.431	28036
812.573	28135
812.714	28371
812.855	28325
812.997	28424
813.138	28649
813.279	28459
813.421	28466
813.562	28466
813.703	28226
813.845	28116
813.986	27709
814.127	27618
814.268	27545
814.41	27561
814.551	27420
814.692	27618
814.833	27485
814.974	27587
815.115	27606
815.256	27454
815.397	27427
815.539	27306
815.68	27249
815.821	27325
815.962	27241
816.103	27466
816.244	27294
816.385	27241
816.526	27047
816.666	27028
816.807	26857
816.948	27077
817.089	26845
817.23	26895
817.371	26864
817.512	26948
817.653	26792
817.793	26785
817.934	26731
818.075	26853
818.216	26902
818.356	26842
818.497	26655
818.638	26579
818.778	26674
818.919	26724
819.06	26632
819.2	26651
819.341	27001
819.481	26800
819.622	26925
819.762	27096
819.903	27013
820.043	27017
820.184	26899
820.324	26895
820.465	27043
820.605	26975
820.746	26849
820.886	26716
821.026	26963
821.167	26883
821.307	26853
821.447	26849
821.588	26720
821.728	26644
821.868	26404
822.008	26370
822.149	26374
822.289	26240
822.429	26202
822.569	26039
822.709	26016
822.849	25909
822.99	25989
823.13	25818
823.27	25864
823.41	25639
823.55	25540
823.69	25647
823.83	25609
823.97	25601
824.11	25472
824.25	25411
824.389	25430
824.529	25441
824.669	25415
824.809	25518
824.949	25628
825.089	25525
825.228	25521
825.368	25225
825.508	25312
825.648	25453
825.787	25396
825.927	25339
826.067	25285
826.206	25285
826.346	25365
826.485	25320
826.625	25335
826.765	25449
826.904	25282
827.044	25179
827.183	25160
827.323	24973
827.462	24996
827.601	25038
827.741	24947
827.88	25000
828.02	24848
828.159	24973
828.298	25023
828.437	25008
828.577	24916
828.716	25095
828.855	24886
828.994	24837
829.134	24787
829.273	24871
829.412	24665
829.551	24623
829.69	24791
829.829	24760
829.968	24920
830.107	24703
830.246	24806
830.385	24601
830.524	24700
830.663	24566
830.802	24464
830.941	24380
831.08	24395
831.219	24521
831.357	24502
831.496	24627
831.635	24266
831.774	24220
831.913	24129
832.051	24038
832.19	24060
832.329	24098
832.467	24007
832.606	23893
832.744	24007
832.883	23965
833.022	24022
833.16	24034
833.299	24018
833.437	24140
833.576	24083
833.714	24083
833.852	24205
833.991	24091
834.129	24243
834.267	24190
834.406	24110
834.544	24015
834.682	23984
834.821	23992
834.959	24251
835.097	24018
835.235	24102
835.373	24053
835.511	24057
835.65	23969
835.788	23939
835.926	23786
836.064	23634
836.202	23786
836.34	23809
836.478	24003
836.615	23794
836.753	23920
836.891	23923
837.029	23866
837.167	23851
837.305	23767
837.443	23824
837.58	23596
837.718	23805
837.856	23714
837.993	23687
838.131	23646
838.269	23551
838.406	23672
838.544	23687
838.681	23395
838.819	23455
838.956	23193
839.094	23269
839.231	23200
839.369	23296
839.506	23562
839.643	23471
839.781	23299
839.918	23113
840.055	23216
840.193	23242
840.33	23064
840.467	23128
840.604	23159
840.742	23444
840.879	22972
841.016	23067
841.153	23060
841.29	23250
841.427	23128
841.564	23113
841.701	23162
841.838	23029
841.975	23117
842.112	22942
842.249	22987
842.385	22908
842.522	23128
842.659	23018
842.796	22763
842.933	22866
843.069	22721
843.206	22816
843.343	22816
843.479	22809
843.616	22915
843.752	22687
843.889	22653
844.025	22778
844.162	22580
844.298	22672
844.435	22656
844.571	22561
844.708	22664
844.844	22797
844.98	22725
845.117	22736
845.253	22660
845.389	22523
845.525	22485
845.661	22550
845.798	22310
845.934	22569
846.07	22295
846.206	22436
846.342	22436
846.478	22318
846.614	22124
846.75	22051
846.886	22048
847.022	22147
847.158	22147
847.294	22078
847.429	22105
847.565	22158
847.701	22318
847.837	21778
847.972	21880
848.108	21991
848.244	21934
848.379	21747
848.515	21804
848.65	21667
848.786	21720
848.921	21686
849.057	21869
849.192	21903
849.328	21682
849.463	21732
849.598	21724
849.734	21553
849.869	21496
850.004	21492
850.14	21519
850.275	21511
850.41	21428
850.545	21526
850.68	21447
850.815	21504
850.95	21450
851.085	21530
851.22	21530
851.355	21378
851.49	21496
851.625	21416
851.76	21428
851.895	21374
852.03	21340
852.165	21538
852.299	21542
852.434	21595
852.569	21386
852.703	21458
852.838	21454
852.973	21622
853.107	21644
853.242	21462
853.376	21325
853.511	21077
853.645	21207
853.78	21389
853.914	21230
854.048	21393
854.183	21374
854.317	21310
854.451	21530
854.585	21363
854.72	21260
854.854	21351
854.988	21203
855.122	21176
855.256	21123
855.39	21218
855.524	21302
855.658	21378
855.792	21344
855.926	21367
856.06	21321
856.194	21306
856.327	21279
856.461	21188
856.595	21256
856.729	21218
856.862	21272
856.996	21268
857.13	21298
857.263	21378
857.397	21367
857.53	21252
857.664	21291
857.797	21359
857.931	21393
858.064	21272
858.197	21454
858.331	21218
858.464	21260
858.597	21203
858.731	21233
858.864	21214
858.997	21291
859.13	21336
859.263	21370
859.396	21317
859.529	21313
859.662	21287
859.795	21237
859.928	21249
860.061	21549
860.194	21488
860.327	21317
860.46	21233
860.592	21367
860.725	21443
860.858	21473
860.99	21370
861.123	21218
861.256	21275
861.388	21363
861.521	21941
861.653	21135
861.786	21131
861.918	21119
862.05	21218
862.183	21161
862.315	21207
862.447	21241
862.58	21203
862.712	21028
862.844	21005
862.976	21127
863.108	20979
863.24	21519
863.372	20956
863.504	20994
863.636	21024
863.768	21043
863.9	20948
864.032	20944
864.164	21001
864.296	20967
864.428	21173
864.559	21051
864.691	21138
864.823	21024
864.954	20948
865.086	20982
865.217	20975
865.349	20785
865.48	20929
865.612	20960
865.743	21096
865.875	20876
866.006	20842
866.137	20845
866.269	20967
866.4	20838
866.531	20815
866.662	20659
866.793	20895
866.924	20834
867.055	20746
867.186	20804
867.317	20758
867.448	20750
867.579	20762
867.71	20682
867.841	20697
867.972	20891
868.103	20765
868.233	20762
868.364	20864
868.495	20887
868.625	21032
868.756	21058
868.886	21043
869.017	21032
869.147	21192
869.278	21264
869.408	21127
869.539	21058
869.669	21180
869.799	21089
869.929	21268
870.06	21085
870.19	21549
870.32	21466
870.45	21507
870.58	21458
870.71	21454
870.84	21587
870.97	21435
871.1	21561
871.23	21564
871.36	21545
871.489	21694
871.619	21603
871.749	21637
871.879	21717
872.008	21850
872.138	21797
872.267	21583
872.397	21644
872.526	21458
872.656	21610
872.785	21511
872.915	21667
873.044	21732
873.173	21869
873.303	21694
873.432	21679
873.561	21876
873.69	21637
873.819	21755
873.948	21682
874.077	21675
874.206	21679
874.335	21660
874.464	21918
874.593	21895
874.722	21930
874.851	21789
874.979	22017
875.108	21907
875.237	21907
875.365	21709
875.494	21869
875.623	22032
875.751	21888
875.88	21998
876.008	22169
876.136	22207
876.265	22303
876.393	22508
876.521	22363
876.65	22432
876.778	22390
876.906	22265
877.034	22234
877.162	22356
877.29	22280
877.418	22367
877.546	22162
877.674	22230
877.802	22360
877.93	22284
878.058	22200
878.185	22128
878.313	22249
878.441	22173
878.568	22074
878.696	22082
878.824	22360
878.951	22409
879.079	22447
879.206	22557
879.333	22421
879.461	22310
879.588	22413
879.715	22481
879.842	22455
879.97	22360
880.097	22112
880.224	22032
880.351	22265
880.478	22211
880.605	22131
880.732	22021
880.859	22249
880.986	22029
881.112	22051
881.239	22086
881.366	21869
881.493	21819
881.619	21766
881.746	21671
881.872	21656
881.999	21591
882.125	21694
882.252	21778
882.378	21747
882.505	21789
882.631	21507
882.757	21386
882.883	21477
883.01	21370
883.136	21389
883.262	21214
883.388	21249
883.514	21435
883.64	21428
883.766	21310
883.892	21230
884.018	21195
884.143	21359
884.269	21408
884.395	21241
884.52	21074
884.646	21036
884.772	20868
884.897	20853
885.023	20990
885.148	21119
885.274	21245
885.399	21173
885.524	21020
885.65	20933
885.775	21058
885.9	20948
886.025	21161
886.15	21108
886.275	20979
886.4	20891
886.525	20990
886.65	20948
886.775	20800
886.9	21165
887.025	21119
887.149	20956
887.274	20754
887.399	20834
887.523	20804
887.648	20792
887.773	20640
887.897	20834
888.021	20857
888.146	20701
888.27	21001
888.395	20819
888.519	20864
888.643	20819
888.767	20804
888.891	20659
889.015	20556
889.139	20629
889.263	20613
889.387	20701
889.511	20861
889.635	20750
889.759	20473
889.883	20488
890.006	20541
890.13	20746
890.254	20507
890.377	20503
890.501	20358
890.624	20317
890.748	20396
890.871	20157
890.995	20050
891.118	20145
891.241	20130
891.364	20092
891.488	20301
891.611	20214
891.734	20100
891.857	20199
891.98	20180
892.103	20221
892.226	20130
892.349	20248
892.471	20046
892.594	20073
892.717	20119
892.839	20100
892.962	20115
893.085	20145
893.207	20081
893.33	19875
893.452	20005
893.575	20134
893.697	20046
893.819	20180
893.941	20320
894.064	20199
894.186	19986
894.308	19906
894.43	20039
894.552	20202
894.674	19997
894.796	19989
894.918	20065
895.04	19944
895.161	20142
895.283	19978
895.405	19986
895.526	20024
895.648	20065
895.769	20153
895.891	20039
896.012	20142
896.134	20119
896.255	20062
896.376	19974
896.498	20031
896.619	20077
896.74	20077
896.861	20187
896.982	20442
897.103	20499
897.224	20347
897.345	20271
897.466	20256
897.587	20263
897.708	20438
897.828	20343
897.949	20370
898.07	20088
898.19	20164
898.311	20317
898.431	20237
898.552	20339
898.672	20267
898.792	20381
898.913	20336
899.033	20199
899.153	20153
899.273	20043
899.393	19989
899.513	20065
899.633	20130
899.753	20039
899.873	19993
899.993	20081
900.113	19974
900.232	20043
900.352	19940
900.472	19997
900.591	19811
900.711	19780
900.83	19738
900.95	19978
901.069	19936
901.189	19655
901.308	19502
901.427	19430
901.546	19518
901.665	19495
901.784	19582
901.904	19225
902.023	19187
902.141	19004
902.26	18943
902.379	18985
902.498	18913
902.617	18943
902.735	18821
902.854	18833
902.973	18802
903.091	18536
903.21	18604
903.328	18601
903.446	18475
903.565	18361
903.683	18399
903.801	18285
903.919	18350
904.038	18353
904.156	18239
904.274	18308
904.392	17999
904.51	18194
904.627	18068
904.745	18201
904.863	18209
904.981	17904
905.098	17813
905.216	17859
905.334	17870
905.451	17840
905.569	17783
905.686	17661
905.803	17863
905.921	17646
906.038	17741
906.155	17600
906.272	17615
906.389	17566
906.506	17341
906.623	17334
906.74	17246
906.857	17178
906.974	17318
907.091	17379
907.208	17535
907.324	17258
907.441	17246
907.557	17132
907.674	17136
907.79	17086
907.907	17056
908.023	17132
908.139	17071
908.256	17090
908.372	16949
908.488	16881
908.604	16869
908.72	16668
908.836	16771
908.952	16713
909.068	16748
909.184	16965
909.3	16725
909.415	16805
909.531	16858
909.647	16478
909.762	16535
909.878	16436
909.993	16371
910.108	16466
910.224	16436
910.339	16417
910.454	16333
910.57	16375
910.685	16291
910.8	16489
910.915	16436
911.03	16287
911.145	16188
911.259	16112
911.374	16105
911.489	16082
911.604	15956
911.718	15846
911.833	15838
911.947	15892
912.062	15694
912.176	15884
912.291	15880
912.405	15778
912.519	16105
912.633	15968
912.748	15876
912.862	15854
912.976	15641
913.09	15477
913.204	15629
913.318	15675
913.431	15800
913.545	15717
913.659	15819
913.772	15679
913.886	15492
914	15431
914.113	15500
914.226	15568
914.34	15545
914.453	15405
914.566	15443
914.68	15321
914.793	15214
914.906	15081
915.019	15043
915.132	14952
915.245	15112
915.358	15135
915.47	15047
915.583	15047
915.696	15104
915.809	15211
915.921	15127
916.034	15097
916.146	15001
916.259	14876
916.371	15020
916.483	14982
916.595	14788
916.708	14967
916.82	14925
916.932	14864
917.044	14861
917.156	14849
917.268	14712
917.38	14765
917.491	14708
917.603	14800
917.715	14830
917.826	14895
917.938	14727
918.049	14492
918.161	14568
918.272	14750
918.384	14830
918.495	14663
918.606	14495
918.717	14454
918.828	14492
918.939	14590
919.05	14408
919.161	14526
919.272	14267
919.383	14377
919.494	14514
919.604	14712
919.715	14499
919.826	14370
919.936	14393
920.047	14476
920.157	14461
920.267	14727
920.378	14358
920.488	14423
920.598	14678
920.708	14777
920.818	14556
920.928	14651
921.038	14762
921.148	14697
921.258	14415
921.368	14290
921.477	14237
921.587	14157
921.697	14096
921.806	14229
921.916	14062
922.025	13879
922.134	13871
922.244	13731
922.353	13887
922.462	13734
922.571	13681
922.68	13487
922.789	13544
922.898	13453
923.007	13468
923.116	13407
923.224	13491
923.333	13430
923.442	13384
923.55	13316
923.659	13327
923.767	13373
923.876	13327
923.984	13327
924.092	13164
924.201	13187
924.309	13206
924.417	13213
924.525	13126
924.633	13187
924.741	14123
924.849	12932
924.956	13118
925.064	12916
925.172	12871
925.279	12856
925.387	12905
925.494	12916
925.602	13118
925.709	12924
925.816	12787
925.924	12928
926.031	12859
926.138	12901
926.245	12833
926.352	12779
926.459	12875
926.566	12932
926.673	12802
926.779	12612
926.886	12650
926.993	12528
927.099	12506
927.206	12429
927.312	12513
927.419	12570
927.525	12437
927.631	12608
927.737	12369
927.843	12380
927.95	12224
928.056	12315
928.162	12186
928.267	12361
928.373	12932
928.479	12346
928.585	12068
928.69	12232
928.796	12311
928.901	12213
929.007	12045
929.112	12053
929.218	12060
929.323	12038
929.428	12076
929.533	12136
929.638	11973
929.743	11916
929.848	12007
929.953	11950
930.058	11851
930.163	11745
930.267	11760
930.372	11779
930.477	11676
930.581	11836
930.685	11779
930.79	11547
930.894	11619
930.998	11554
931.103	11771
931.207	11376
931.311	11277
931.415	11136
931.519	11079
931.623	10942
