Data from test_V78500241_1561.txt Node
Date: Fri Mar 25 15:52:36 CST 2022
User: usil
Spectrometer: V785-0024
Trigger mode: 0
Integration Time (sec): 4.000000E-1
Scans to average: 1
Nonlinearity correction enabled: false
Boxcar width: 0
Storing dark spectrum: false
XAxis mode: Wavelengths
Number of Pixels in Spectrum: 1024
>>>>>Begin Spectral Data<<<<<
801.071	27945
801.214	28002
801.356	27827
801.499	27671
801.641	27485
801.783	27507
801.926	27690
802.068	27458
802.211	27481
802.353	27374
802.496	27298
802.638	27268
802.78	27313
802.923	27241
803.065	27066
803.208	27211
803.35	27150
803.492	27325
803.635	27424
803.777	27313
803.919	27587
804.061	27770
804.204	27549
804.346	27351
804.488	27359
804.63	27473
804.773	27298
804.915	27485
805.057	27462
805.199	27355
805.341	27561
805.483	27606
805.626	27542
805.768	27610
805.91	27481
806.052	27568
806.194	27553
806.336	27804
806.478	27644
806.62	27641
806.762	27747
806.904	27876
807.046	28036
807.188	28120
807.33	28166
807.472	28067
807.614	27998
807.756	28090
807.898	27907
808.04	27865
808.182	27819
808.324	27861
808.465	27926
808.607	28097
808.749	28295
808.891	28348
809.033	28310
809.174	28242
809.316	28181
809.458	28207
809.6	28299
809.741	28253
809.883	28310
810.025	28542
810.166	28474
810.308	28645
810.45	28531
810.591	28424
810.733	28344
810.875	28109
811.016	28078
811.158	28093
811.299	28280
811.441	28440
811.582	28306
811.724	28219
811.865	28166
812.007	28234
812.148	28188
812.29	28322
812.431	28280
812.573	28641
812.714	28584
812.855	28809
812.997	28645
813.138	28900
813.279	28839
813.421	28744
813.562	28519
813.703	28744
813.845	28508
813.986	28173
814.127	28051
814.268	27953
814.41	27983
814.551	27926
814.692	28067
814.833	28029
814.974	27751
815.115	28078
815.256	28013
815.397	27694
815.539	27755
815.68	27743
815.821	27595
815.962	27770
816.103	27778
816.244	27538
816.385	27580
816.526	27344
816.666	27378
816.807	27268
816.948	27466
817.089	27272
817.23	27264
817.371	27150
817.512	27176
817.653	27211
817.793	27241
817.934	27275
818.075	27218
818.216	27184
818.356	27062
818.497	27131
818.638	27001
818.778	27020
818.919	27077
819.06	27062
819.2	27005
819.341	27291
819.481	27146
819.622	27245
819.762	27656
819.903	27427
820.043	27447
820.184	27317
820.324	27287
820.465	27363
820.605	27405
820.746	27173
820.886	27100
821.026	27287
821.167	27173
821.307	27386
821.447	27135
821.588	27089
821.728	27036
821.868	26762
822.008	26746
822.149	26735
822.289	26716
822.429	26393
822.569	26362
822.709	26385
822.849	26259
822.99	26248
823.13	26096
823.27	26172
823.41	26077
823.55	25940
823.69	26062
823.83	26081
823.97	25940
824.11	25894
824.25	25811
824.389	25769
824.529	25917
824.669	25818
824.809	25970
824.949	25974
825.089	25833
825.228	25875
825.368	25693
825.508	25689
825.648	25799
825.787	25765
825.927	25655
826.067	25742
826.206	25723
826.346	25818
826.485	25750
826.625	25772
826.765	25723
826.904	25765
827.044	25635
827.183	25441
827.323	25411
827.462	25457
827.601	25438
827.741	25472
827.88	25506
828.02	25324
828.159	25358
828.298	25377
828.437	25548
828.577	25384
828.716	25582
828.855	25350
828.994	25175
829.134	25084
829.273	25190
829.412	25065
829.551	24992
829.69	25023
829.829	25160
829.968	25175
830.107	25110
830.246	25046
830.385	25091
830.524	24966
830.663	24954
830.802	24844
830.941	24696
831.08	24795
831.219	24840
831.357	24779
831.496	24920
831.635	24703
831.774	24658
831.913	24726
832.051	24585
832.19	24490
832.329	24426
832.467	24391
832.606	24414
832.744	24403
832.883	24285
833.022	24327
833.16	24350
833.299	24391
833.437	24418
833.576	24467
833.714	24471
833.852	24494
833.991	24479
834.129	24418
834.267	24509
834.406	24528
834.544	24448
834.682	24448
834.821	24239
834.959	24578
835.097	24391
835.235	24418
835.373	24311
835.511	24433
835.65	24361
835.788	24365
835.926	24194
836.064	24136
836.202	23992
836.34	24338
836.478	24342
836.615	24197
836.753	24350
836.891	24365
837.029	24315
837.167	24167
837.305	24087
837.443	24129
837.58	24167
837.718	24152
837.856	24201
837.993	24072
838.131	24167
838.269	23980
838.406	24110
838.544	23870
838.681	23828
838.819	23672
838.956	23596
839.094	23608
839.231	23627
839.369	23756
839.506	23973
839.643	23817
839.781	23573
839.918	23467
840.055	23581
840.193	23543
840.33	23421
840.467	23558
840.604	23539
840.742	23657
840.879	23337
841.016	23345
841.153	23364
841.29	23585
841.427	23493
841.564	23497
841.701	23448
841.838	23440
841.975	23436
842.112	23395
842.249	23227
842.385	23280
842.522	23383
842.659	23181
842.796	23292
842.933	23254
843.069	23299
843.206	23220
843.343	23383
843.479	23239
843.616	23227
843.752	23105
843.889	23086
844.025	23178
844.162	23018
844.298	23109
844.435	23018
844.571	22961
844.708	22980
844.844	23143
844.98	23105
845.117	22991
845.253	23060
845.389	22972
845.525	22976
845.661	22923
845.798	22748
845.934	22824
846.07	22550
846.206	22801
846.342	22949
846.478	22793
846.614	22588
846.75	22493
846.886	22432
847.022	22599
847.158	22512
847.294	22542
847.429	22493
847.565	22390
847.701	22740
847.837	22226
847.972	22211
848.108	22341
848.244	22325
848.379	22139
848.515	22169
848.65	22021
848.786	22120
848.921	22055
849.057	22234
849.192	22223
849.328	22120
849.463	22112
849.598	22070
849.734	22044
849.869	21964
850.004	21819
850.14	21739
850.275	21949
850.41	21789
850.545	21766
850.68	21812
850.815	21739
850.95	21819
851.085	22002
851.22	21911
851.355	21854
851.49	21819
851.625	21888
851.76	21766
851.895	21892
852.03	21774
852.165	21797
852.299	21899
852.434	21899
852.569	21960
852.703	21865
852.838	21789
852.973	21975
853.107	21975
853.242	21739
853.376	21637
853.511	21530
853.645	21610
853.78	21831
853.914	21599
854.048	21553
854.183	21644
854.317	21660
854.451	21823
854.585	21576
854.72	21663
854.854	21652
854.988	21542
855.122	21705
855.256	21519
855.39	21667
855.524	21831
855.658	21781
855.792	21648
855.926	21614
856.06	21698
856.194	21778
856.327	21675
856.461	21583
856.595	21561
856.729	21530
856.862	21747
856.996	21728
857.13	21728
857.263	21850
857.397	21774
857.53	21675
857.664	21667
857.797	21686
857.931	21774
858.064	21625
858.197	21747
858.331	21618
858.464	21618
858.597	21492
858.731	21690
858.864	21644
858.997	21679
859.13	21686
859.263	21751
859.396	21667
859.529	21660
859.662	21622
859.795	21641
859.928	21675
860.061	21759
860.194	21884
860.327	21614
860.46	21694
860.592	21762
860.725	21789
860.858	21819
860.99	21736
861.123	21736
861.256	21488
861.388	21682
861.521	22207
861.653	21591
861.786	21420
861.918	21591
862.05	21713
862.183	21500
862.315	21698
862.447	21690
862.58	21416
862.712	21481
862.844	21310
862.976	21599
863.108	21424
863.24	21926
863.372	21351
863.504	21374
863.636	21260
863.768	21393
863.9	21538
864.032	21245
864.164	21310
864.296	21397
864.428	21401
864.559	21530
864.691	21538
864.823	21431
864.954	21370
865.086	21321
865.217	21298
865.349	21161
865.48	21211
865.612	21218
865.743	21332
865.875	21355
866.006	21283
866.137	21348
866.269	21241
866.4	21218
866.531	21230
866.662	21138
866.793	21169
866.924	21218
867.055	21211
867.186	21165
867.317	21264
867.448	21104
867.579	21180
867.71	21104
867.841	21135
867.972	21279
868.103	21230
868.233	21203
868.364	21268
868.495	21340
868.625	21458
868.756	21519
868.886	21264
869.017	21431
869.147	21511
869.278	21492
869.408	21523
869.539	21416
869.669	21610
869.799	21534
869.929	21576
870.06	21538
870.19	21751
870.32	21827
870.45	21694
870.58	21895
870.71	21922
870.84	21937
870.97	21808
871.1	21964
871.23	22002
871.36	22059
871.489	21956
871.619	21926
871.749	22070
871.879	22105
872.008	22169
872.138	22010
872.267	22086
872.397	21937
872.526	21880
872.656	21774
872.785	21941
872.915	22074
873.044	22135
873.173	21979
873.303	22109
873.432	22021
873.561	22131
873.69	22120
873.819	22124
873.948	22166
874.077	21998
874.206	22006
874.335	21983
874.464	22063
874.593	22276
874.722	22257
874.851	22367
874.979	22299
875.108	22322
875.237	22223
875.365	22177
875.494	22230
875.623	22344
875.751	22219
875.88	22291
876.008	22417
876.136	22512
876.265	22733
876.393	22828
876.521	22630
876.65	22877
876.778	22801
876.906	22752
877.034	22603
877.162	22542
877.29	22546
877.418	22622
877.546	22691
877.674	22679
877.802	22637
877.93	22607
878.058	22569
878.185	22546
878.313	22641
878.441	22577
878.568	22341
878.696	22675
878.824	22713
878.951	22736
879.079	22790
879.206	23022
879.333	22797
879.461	22607
879.588	22733
879.715	22820
879.842	22919
879.97	22733
880.097	22402
880.224	22405
880.351	22527
880.478	22485
880.605	22348
880.732	22409
880.859	22664
880.986	22451
881.112	22542
881.239	22348
881.366	22291
881.493	22032
881.619	22021
881.746	22105
881.872	22032
881.999	21945
882.125	21972
882.252	22090
882.378	21994
882.505	22135
882.631	21823
882.757	21797
882.883	21857
883.01	21762
883.136	21701
883.262	21557
883.388	21549
883.514	21736
883.64	21732
883.766	21797
883.892	21606
884.018	21591
884.143	21705
884.269	21686
884.395	21542
884.52	21351
884.646	21378
884.772	21386
884.897	21252
885.023	21401
885.148	21485
885.274	21500
885.399	21443
885.524	21264
885.65	21321
885.775	21367
885.9	21313
886.025	21439
886.15	21386
886.275	21249
886.4	21287
886.525	21325
886.65	21184
886.775	21222
886.9	21481
887.025	21492
887.149	21226
887.274	21135
887.399	21146
887.523	21047
887.648	21112
887.773	21119
887.897	21169
888.021	21093
888.146	21127
888.27	21230
888.395	21161
888.519	21089
888.643	21203
888.767	21138
888.891	21028
889.015	20933
889.139	20948
889.263	20960
889.387	21074
889.511	21058
889.635	21001
889.759	20891
889.883	20914
890.006	20876
890.13	21074
890.254	20834
890.377	20800
890.501	20663
890.624	20545
890.748	20648
890.871	20461
890.995	20446
891.118	20423
891.241	20427
891.364	20488
891.488	20587
891.611	20522
891.734	20461
891.857	20545
891.98	20473
892.103	20412
892.226	20442
892.349	20385
892.471	20244
892.594	20507
892.717	20423
892.839	20434
892.962	20423
893.085	20617
893.207	20427
893.33	20305
893.452	20457
893.575	20480
893.697	20328
893.819	20590
893.941	20583
894.064	20404
894.186	20355
894.308	20351
894.43	20389
894.552	20393
894.674	20518
894.796	20370
894.918	20256
895.04	20294
895.161	20461
895.283	20423
895.405	20313
895.526	20358
895.648	20347
895.769	20412
895.891	20522
896.012	20556
896.134	20370
896.255	20484
896.376	20294
896.498	20343
896.619	20419
896.74	20358
896.861	20431
896.982	20739
897.103	20716
897.224	20648
897.345	20568
897.466	20648
897.587	20659
897.708	20712
897.828	20640
897.949	20537
898.07	20427
898.19	20549
898.311	20705
898.431	20480
898.552	20499
898.672	20613
898.792	20720
898.913	20575
899.033	20484
899.153	20389
899.273	20263
899.393	20385
899.513	20396
899.633	20393
899.753	20423
899.873	20320
899.993	20267
900.113	20271
900.232	20339
900.352	20317
900.472	20100
900.591	20077
900.711	20142
900.83	20005
900.95	20305
901.069	20168
901.189	20168
901.308	19753
901.427	19655
901.546	19704
901.665	19750
901.784	19666
901.904	19460
902.023	19472
902.141	19324
902.26	19240
902.379	19202
902.498	19240
902.617	19156
902.735	19107
902.854	19213
902.973	18962
903.091	19042
903.21	18981
903.328	18966
903.446	18791
903.565	18692
903.683	18677
903.801	18544
903.919	18616
904.038	18730
904.156	18429
904.274	18574
904.392	18448
904.51	18353
904.627	18361
904.745	18445
904.863	18445
904.981	18102
905.098	18205
905.216	18083
905.334	18167
905.451	18022
905.569	18041
905.686	18117
905.803	18053
905.921	17863
906.038	18060
906.155	17973
906.272	17878
906.389	17714
906.506	17653
906.623	17695
906.74	17718
906.857	17482
906.974	17554
907.091	17589
907.208	17710
907.324	17699
907.441	17512
907.557	17444
907.674	17330
907.79	17258
907.907	17402
908.023	17292
908.139	17356
908.256	17239
908.372	17208
908.488	17261
908.604	16965
908.72	17071
908.836	17094
908.952	17090
909.068	17193
909.184	17155
909.3	17086
909.415	17189
909.531	17018
909.647	16858
909.762	16790
909.878	16721
909.993	16820
910.108	16831
910.224	16763
910.339	16748
910.454	16626
910.57	16618
910.685	16596
910.8	16771
910.915	16729
911.03	16592
911.145	16402
911.259	16344
911.374	16314
911.489	16329
911.604	16249
911.718	16188
911.833	16036
911.947	15991
912.062	16032
912.176	16150
912.291	16185
912.405	16105
912.519	16303
912.633	16390
912.748	16150
912.862	16120
912.976	15975
913.09	15808
913.204	15899
913.318	15968
913.431	16048
913.545	16025
913.659	15960
913.772	15922
913.886	15739
914	15675
914.113	15797
914.226	15892
914.34	15762
914.453	15633
914.566	15709
914.68	15667
914.793	15526
914.906	15405
915.019	15298
915.132	15222
915.245	15275
915.358	15355
915.47	15351
915.583	15348
915.696	15367
915.809	15534
915.921	15435
916.034	15302
916.146	15211
916.259	15214
916.371	15439
916.483	15336
916.595	15123
916.708	15051
916.82	15214
916.932	15058
917.044	15180
917.156	15131
917.268	14921
917.38	15001
917.491	14921
917.603	14925
917.715	14998
917.826	15104
917.938	14925
918.049	14781
918.161	14845
918.272	15100
918.384	15024
918.495	14914
918.606	14807
918.717	14644
918.828	14754
918.939	14762
919.05	14670
919.161	14625
919.272	14541
919.383	14526
919.494	14811
919.604	14883
919.715	14746
919.826	14545
919.936	14598
920.047	14655
920.157	14758
920.267	14876
920.378	14705
920.488	14731
920.598	14701
920.708	15017
920.818	14830
920.928	14804
921.038	14967
921.148	14872
921.258	14689
921.368	14560
921.477	14507
921.587	14381
921.697	14385
921.806	14381
921.916	14267
922.025	14031
922.134	14020
922.244	14084
922.353	14103
922.462	13978
922.571	13875
922.68	13685
922.789	13719
922.898	13814
923.007	13757
923.116	13727
923.224	13700
923.333	13704
923.442	13533
923.55	13472
923.659	13609
923.767	13575
923.876	13472
923.984	13529
924.092	13476
924.201	13487
924.309	13407
924.417	13419
924.525	13426
924.633	13354
924.741	14225
924.849	13129
924.956	13381
925.064	13152
925.172	13031
925.279	13057
925.387	13072
925.494	12973
925.602	13213
925.709	13263
925.816	12985
925.924	13099
926.031	13072
926.138	13076
926.245	13065
926.352	13000
926.459	13137
926.566	13168
926.673	13076
926.779	12878
926.886	12814
926.993	12749
927.099	12681
927.206	12642
927.312	12677
927.419	12703
927.525	12658
927.631	12650
927.737	12559
927.843	12566
927.95	12384
928.056	12460
928.162	12452
928.267	12623
928.373	13232
928.479	12525
928.585	12285
928.69	12410
928.796	12513
928.901	12471
929.007	12220
929.112	12403
929.218	12273
929.323	12232
929.428	12197
929.533	12266
929.638	12129
929.743	12121
929.848	12209
929.953	12201
930.058	11992
930.163	11859
930.267	11912
930.372	12091
930.477	11790
930.581	12049
930.685	11897
930.79	11817
930.894	11885
930.998	11756
931.103	11821
931.207	11581
931.311	11398
931.415	11368
931.519	11208
931.623	11136
