Data from test_V78500241_2388.txt Node
Date: Fri Mar 25 15:58:20 CST 2022
User: usil
Spectrometer: V785-0024
Trigger mode: 0
Integration Time (sec): 4.000000E-1
Scans to average: 1
Nonlinearity correction enabled: false
Boxcar width: 0
Storing dark spectrum: false
XAxis mode: Wavelengths
Number of Pixels in Spectrum: 1024
>>>>>Begin Spectral Data<<<<<
801.071	28755
801.214	28702
801.356	28527
801.499	28474
801.641	28196
801.783	28371
801.926	28348
802.068	28432
802.211	28196
802.353	28272
802.496	28059
802.638	28040
802.78	27964
802.923	28010
803.065	27888
803.208	28021
803.35	28006
803.492	28105
803.635	28185
803.777	28002
803.919	28299
804.061	28519
804.204	28223
804.346	28249
804.488	28276
804.63	28363
804.773	28226
804.915	28314
805.057	28379
805.199	28314
805.341	28413
805.483	28443
805.626	28394
805.768	28265
805.91	28443
806.052	28561
806.194	28375
806.336	28497
806.478	28291
806.62	28550
806.762	28531
806.904	28759
807.046	28919
807.188	28858
807.33	28839
807.472	28942
807.614	28938
807.756	28824
807.898	28843
808.04	28725
808.182	28698
808.324	28725
808.465	28702
808.607	28911
808.749	29048
808.891	29200
809.033	29277
809.174	29151
809.316	29109
809.458	29159
809.6	29071
809.741	29288
809.883	29334
810.025	29239
810.166	29368
810.308	29505
810.45	29212
810.591	29440
810.733	29227
810.875	29258
811.016	29052
811.158	28949
811.299	29185
811.441	29349
811.582	29178
811.724	29242
811.865	29178
812.007	29189
812.148	29067
812.29	29109
812.431	29208
812.573	29509
812.714	29440
812.855	29646
812.997	29722
813.138	29923
813.279	29878
813.421	29695
813.562	29459
813.703	29608
813.845	29398
813.986	29071
814.127	28892
814.268	28854
814.41	28919
814.551	28805
814.692	28812
814.833	28782
814.974	28892
815.115	28900
815.256	28691
815.397	28736
815.539	28721
815.68	28569
815.821	28565
815.962	28634
816.103	28630
816.244	28622
816.385	28440
816.526	28462
816.666	28310
816.807	28196
816.948	28158
817.089	28181
817.23	28188
817.371	28219
817.512	28078
817.653	28196
817.793	28078
817.934	27998
818.075	28207
818.216	28101
818.356	28067
818.497	28109
818.638	27922
818.778	27857
818.919	27835
819.06	28017
819.2	28093
819.341	28154
819.481	28143
819.622	28265
819.762	28474
819.903	28462
820.043	28371
820.184	28455
820.324	28196
820.465	28322
820.605	28295
820.746	28272
820.886	28101
821.026	28337
821.167	28303
821.307	28363
821.447	28268
821.588	28063
821.728	27930
821.868	27698
822.008	27679
822.149	27656
822.289	27705
822.429	27367
822.569	27317
822.709	27325
822.849	27150
822.99	27070
823.13	27119
823.27	27081
823.41	26990
823.55	26864
823.69	26929
823.83	26883
823.97	26914
824.11	26861
824.25	26735
824.389	26716
824.529	26887
824.669	26746
824.809	27009
824.949	26910
825.089	26906
825.228	26933
825.368	26686
825.508	26705
825.648	26746
825.787	26663
825.927	26724
826.067	26849
826.206	26667
826.346	26792
826.485	26777
826.625	26674
826.765	26739
826.904	26648
827.044	26438
827.183	26465
827.323	26290
827.462	26552
827.601	26301
827.741	26305
827.88	26457
828.02	26385
828.159	26473
828.298	26488
828.437	26438
828.577	26324
828.716	26377
828.855	26370
828.994	26084
829.134	26046
829.273	26012
829.412	25989
829.551	25966
829.69	26065
829.829	26153
829.968	26240
830.107	26180
830.246	26115
830.385	25864
830.524	25986
830.663	25928
830.802	25830
830.941	25765
831.08	25696
831.219	25921
831.357	25681
831.496	25887
831.635	25662
831.774	25441
831.913	25487
832.051	25514
832.19	25400
832.329	25521
832.467	25232
832.606	25365
832.744	25415
832.883	25301
833.022	25358
833.16	25365
833.299	25407
833.437	25365
833.576	25407
833.714	25457
833.852	25460
833.991	25396
834.129	25502
834.267	25476
834.406	25419
834.544	25384
834.682	25487
834.821	25384
834.959	25544
835.097	25358
835.235	25407
835.373	25445
835.511	25396
835.65	25400
835.788	25198
835.926	25179
836.064	24992
836.202	25156
836.34	25343
836.478	25278
836.615	25198
836.753	25331
836.891	25221
837.029	25198
837.167	25289
837.305	25091
837.443	25038
837.58	25065
837.718	25282
837.856	25095
837.993	24890
838.131	24897
838.269	25015
838.406	25023
838.544	24909
838.681	24764
838.819	24768
838.956	24525
839.094	24399
839.231	24574
839.369	24696
839.506	24875
839.643	24760
839.781	24620
839.918	24395
840.055	24521
840.193	24509
840.33	24357
840.467	24464
840.604	24513
840.742	24566
840.879	24327
841.016	24258
841.153	24357
841.29	24555
841.427	24540
841.564	24532
841.701	24521
841.838	24296
841.975	24330
842.112	24388
842.249	24216
842.385	24155
842.522	24350
842.659	24114
842.796	24121
842.933	24155
843.069	24155
843.206	24190
843.343	24167
843.479	24251
843.616	24205
843.752	23992
843.889	23996
844.025	24015
844.162	23866
844.298	24030
844.435	23889
844.571	23836
844.708	23965
844.844	24072
844.98	23999
845.117	24007
845.253	23893
845.389	23733
845.525	23916
845.661	23752
845.798	23668
845.934	23855
846.07	23665
846.206	23703
846.342	23684
846.478	23589
846.614	23429
846.75	23406
846.886	23337
847.022	23471
847.158	23512
847.294	23414
847.429	23440
847.565	23353
847.701	23676
847.837	23132
847.972	22961
848.108	23086
848.244	23018
848.379	22934
848.515	23010
848.65	22873
848.786	22919
848.921	22980
849.057	23086
849.192	23064
849.328	23090
849.463	23029
849.598	22946
849.734	22953
849.869	22782
850.004	22892
850.14	22736
850.275	22850
850.41	22725
850.545	22759
850.68	22717
850.815	22725
850.95	22660
851.085	23048
851.22	22946
851.355	22656
851.49	22691
851.625	22752
851.76	22694
851.895	22573
852.03	22546
852.165	22706
852.299	22854
852.434	22885
852.569	22717
852.703	22584
852.838	22767
852.973	22946
853.107	22873
853.242	22603
853.376	22462
853.511	22554
853.645	22478
853.78	22641
853.914	22546
854.048	22538
854.183	22535
854.317	22603
854.451	22866
854.585	22721
854.72	22580
854.854	22759
854.988	22554
855.122	22432
855.256	22512
855.39	22493
855.524	22592
855.658	22656
855.792	22672
855.926	22557
856.06	22622
856.194	22672
856.327	22519
856.461	22512
856.595	22588
856.729	22550
856.862	22660
856.996	22596
857.13	22641
857.263	22675
857.397	22656
857.53	22535
857.664	22729
857.797	22615
857.931	22767
858.064	22603
858.197	22733
858.331	22516
858.464	22428
858.597	22512
858.731	22645
858.864	22516
858.997	22512
859.13	22561
859.263	22634
859.396	22790
859.529	22580
859.662	22577
859.795	22523
859.928	22580
860.061	22790
860.194	22831
860.327	22584
860.46	22664
860.592	22523
860.725	22622
860.858	22653
860.99	22637
861.123	22512
861.256	22546
861.388	22668
861.521	23246
861.653	22409
861.786	22257
861.918	22367
862.05	22447
862.183	22394
862.315	22478
862.447	22527
862.58	22398
862.712	22314
862.844	22211
862.976	22367
863.108	22268
863.24	22698
863.372	22280
863.504	22291
863.636	22291
863.768	22295
863.9	22265
864.032	22242
864.164	22375
864.296	22390
864.428	22386
864.559	22322
864.691	22371
864.823	22242
864.954	22382
865.086	22394
865.217	22109
865.349	22070
865.48	22173
865.612	22219
865.743	22394
865.875	22158
866.006	21994
866.137	22055
866.269	22200
866.4	22116
866.531	22101
866.662	22128
866.793	21987
866.924	22112
867.055	22181
867.186	22105
867.317	22063
867.448	22006
867.579	22097
867.71	21930
867.841	21994
867.972	22048
868.103	22029
868.233	22162
868.364	22124
868.495	22185
868.625	22390
868.756	22360
868.886	22322
869.017	22276
869.147	22280
869.278	22455
869.408	22303
869.539	22344
869.669	22386
869.799	22379
869.929	22356
870.06	22417
870.19	22634
870.32	22664
870.45	22706
870.58	22729
870.71	22824
870.84	22778
870.97	22577
871.1	22656
871.23	22991
871.36	22934
871.489	22801
871.619	22881
871.749	22980
871.879	22972
872.008	22995
872.138	22858
872.267	22938
872.397	22881
872.526	22733
872.656	22748
872.785	22748
872.915	22843
873.044	23071
873.173	23029
873.303	22885
873.432	22942
873.561	22991
873.69	22908
873.819	22877
873.948	22976
874.077	23018
874.206	22984
874.335	22949
874.464	23014
874.593	23170
874.722	23132
874.851	23261
874.979	23170
875.108	23239
875.237	23140
875.365	23033
875.494	22957
875.623	23136
875.751	23060
875.88	23105
876.008	23345
876.136	23265
876.265	23497
876.393	23600
876.521	23649
876.65	23646
876.778	23478
876.906	23383
877.034	23440
877.162	23497
877.29	23334
877.418	23585
877.546	23535
877.674	23345
877.802	23566
877.93	23535
878.058	23448
878.185	23425
878.313	23337
878.441	23417
878.568	23402
878.696	23421
878.824	23524
878.951	23627
879.079	23608
879.206	23771
879.333	23649
879.461	23452
879.588	23589
879.715	23611
879.842	23775
879.97	23608
880.097	23269
880.224	23341
880.351	23421
880.478	23360
880.605	23212
880.732	23193
880.859	23535
880.986	23223
881.112	23330
881.239	23128
881.366	23010
881.493	23117
881.619	22896
881.746	22858
881.872	22873
881.999	22805
882.125	22820
882.252	22828
882.378	22717
882.505	22843
882.631	22656
882.757	22485
882.883	22664
883.01	22622
883.136	22459
883.262	22474
883.388	22341
883.514	22607
883.64	22516
883.766	22371
883.892	22356
884.018	22249
884.143	22417
884.269	22603
884.395	22177
884.52	22169
884.646	22188
884.772	22188
884.897	22040
885.023	22150
885.148	22322
885.274	22253
885.399	22192
885.524	22261
885.65	22188
885.775	22032
885.9	22112
886.025	22211
886.15	22207
886.275	22124
886.4	22078
886.525	22074
886.65	22105
886.775	22067
886.9	22337
887.025	22329
887.149	22032
887.274	21880
887.399	21937
887.523	21968
887.648	21979
887.773	21717
887.897	22078
888.021	21956
888.146	21960
888.27	21998
888.395	22093
888.519	21926
888.643	21972
888.767	21975
888.891	21808
889.015	21850
889.139	21641
889.263	21770
889.387	21816
889.511	21994
889.635	21865
889.759	21671
889.883	21671
890.006	21679
890.13	21800
890.254	21679
890.377	21663
890.501	21462
890.624	21515
890.748	21473
890.871	21283
890.995	21279
891.118	21176
891.241	21245
891.364	21226
891.488	21450
891.611	21207
891.734	21256
891.857	21344
891.98	21264
892.103	21188
892.226	21306
892.349	21154
892.471	21108
892.594	21195
892.717	21378
892.839	21157
892.962	21306
893.085	21298
893.207	21131
893.33	21108
893.452	21192
893.575	21116
893.697	21100
893.819	21325
893.941	21340
894.064	21233
894.186	20982
894.308	21028
894.43	21157
894.552	21374
894.674	21218
894.796	21017
894.918	21127
895.04	20944
895.161	21119
895.283	21199
895.405	21070
895.526	21108
895.648	21020
895.769	21100
895.891	21192
896.012	21249
896.134	21135
896.255	21028
896.376	21116
896.498	21154
896.619	21188
896.74	21131
896.861	21176
896.982	21507
897.103	21599
897.224	21389
897.345	21325
897.466	21291
897.587	21367
897.708	21466
897.828	21370
897.949	21344
898.07	21230
898.19	21268
898.311	21507
898.431	21321
898.552	21351
898.672	21359
898.792	21344
898.913	21321
899.033	21142
899.153	21298
899.273	21047
899.393	21192
899.513	21009
899.633	21062
899.753	21119
899.873	20963
899.993	21077
900.113	20933
900.232	21089
900.352	20994
900.472	20914
900.591	20823
900.711	20902
900.83	20792
900.95	20845
901.069	20887
901.189	20648
901.308	20461
901.427	20400
901.546	20400
901.665	20469
901.784	20415
901.904	20362
902.023	20149
902.141	19913
902.26	19902
902.379	20039
902.498	19913
902.617	19837
902.735	19856
902.854	19860
902.973	19887
903.091	19616
903.21	19533
903.328	19544
903.446	19464
903.565	19331
903.683	19358
903.801	19232
903.919	19324
904.038	19285
904.156	19069
904.274	19126
904.392	19145
904.51	19031
904.627	19091
904.745	19164
904.863	19137
904.981	18905
905.098	18779
905.216	18764
905.334	18844
905.451	18753
905.569	18745
905.686	18665
905.803	18730
905.921	18627
906.038	18608
906.155	18582
906.272	18437
906.389	18646
906.506	18300
906.623	18258
906.74	18296
906.857	18159
906.974	18178
907.091	18311
907.208	18311
907.324	18330
907.441	18167
907.557	18030
907.674	18102
907.79	17885
907.907	18041
908.023	18038
908.139	18026
908.256	17980
908.372	17809
908.488	17832
908.604	17733
908.72	17752
908.836	17790
908.952	17741
909.068	17775
909.184	17775
909.3	17733
909.415	17809
909.531	17722
909.647	17395
909.762	17395
909.878	17444
909.993	17376
910.108	17383
910.224	17341
910.339	17421
910.454	17227
910.57	17273
910.685	17075
910.8	17410
910.915	17406
911.03	17124
911.145	17025
911.259	16911
911.374	17045
911.489	16877
911.604	16896
911.718	16691
911.833	16729
911.947	16706
912.062	16599
912.176	16850
912.291	16702
912.405	16725
912.519	16987
912.633	16949
912.748	16740
912.862	16710
912.976	16550
913.09	16481
913.204	16440
913.318	16641
913.431	16611
913.545	16569
913.659	16622
913.772	16405
913.886	16337
914	16295
914.113	16363
914.226	16394
914.34	16443
914.453	16173
914.566	16478
914.68	16188
914.793	16063
914.906	16013
915.019	15998
915.132	15850
915.245	15934
915.358	15903
915.47	15850
915.583	15873
915.696	15903
915.809	15911
915.921	16021
916.034	15861
916.146	15857
916.259	15857
916.371	15873
916.483	15880
916.595	15797
916.708	15660
916.82	15793
916.932	15751
917.044	15709
917.156	15660
917.268	15564
917.38	15641
917.491	15469
917.603	15614
917.715	15530
917.826	15625
917.938	15477
918.049	15310
918.161	15405
918.272	15606
918.384	15542
918.495	15431
918.606	15310
918.717	15211
918.828	15329
918.939	15302
919.05	15192
919.161	15249
919.272	15112
919.383	15173
919.494	15355
919.604	15439
919.715	15195
919.826	15169
919.936	15165
920.047	15298
920.157	15199
920.267	15363
920.378	15268
920.488	15211
920.598	15329
920.708	15542
920.818	15359
920.928	15359
921.038	15454
921.148	15485
921.258	15154
921.368	15074
921.477	15070
921.587	14963
921.697	14849
921.806	15043
921.916	14826
922.025	14644
922.134	14701
922.244	14545
922.353	14571
922.462	14537
922.571	14438
922.68	14332
922.789	14252
922.898	14298
923.007	14199
923.116	14351
923.224	14206
923.333	14206
923.442	14164
923.55	14008
923.659	14145
923.767	14187
923.876	14084
923.984	14058
924.092	13982
924.201	14100
924.309	14031
924.417	14020
924.525	13917
924.633	13890
924.741	14804
924.849	13734
924.956	13761
925.064	13609
925.172	13540
925.279	13666
925.387	13609
925.494	13636
925.602	13761
925.709	13655
925.816	13499
925.924	13548
926.031	13677
926.138	13487
926.245	13567
926.352	13480
926.459	13590
926.566	13704
926.673	13540
926.779	13434
926.886	13396
926.993	13217
927.099	13099
927.206	13198
927.312	13149
927.419	13240
927.525	13244
927.631	13236
927.737	13046
927.843	12993
927.95	12833
928.056	13015
928.162	12993
928.267	13023
928.373	13594
928.479	13072
928.585	12848
928.69	12905
928.796	13046
928.901	12802
929.007	12741
929.112	12814
929.218	12867
929.323	12715
929.428	12684
929.533	12810
929.638	12616
929.743	12669
929.848	12669
929.953	12623
930.058	12585
930.163	12376
930.267	12399
930.372	12528
930.477	12330
930.581	12563
930.685	12498
930.79	12175
930.894	12197
930.998	12167
931.103	12342
931.207	11973
931.311	11950
931.415	11745
931.519	11638
931.623	11600
