Data from test_V78500241_1484.txt Node
Date: Fri Mar 25 15:52:04 CST 2022
User: usil
Spectrometer: V785-0024
Trigger mode: 0
Integration Time (sec): 4.000000E-1
Scans to average: 1
Nonlinearity correction enabled: false
Boxcar width: 0
Storing dark spectrum: false
XAxis mode: Wavelengths
Number of Pixels in Spectrum: 1024
>>>>>Begin Spectral Data<<<<<
801.071	28059
801.214	27857
801.356	27762
801.499	27622
801.641	27641
801.783	27427
801.926	27675
802.068	27332
802.211	27603
802.353	27374
802.496	27313
802.638	27233
802.78	27207
802.923	27100
803.065	27013
803.208	27089
803.35	27127
803.492	27207
803.635	27359
803.777	27306
803.919	27325
804.061	27747
804.204	27447
804.346	27317
804.488	27424
804.63	27374
804.773	27298
804.915	27405
805.057	27610
805.199	27405
805.341	27454
805.483	27504
805.626	27549
805.768	27447
805.91	27549
806.052	27504
806.194	27511
806.336	27797
806.478	27724
806.62	27523
806.762	27694
806.904	27892
807.046	28105
807.188	27987
807.33	28029
807.472	28070
807.614	27972
807.756	27926
807.898	27873
808.04	27797
808.182	27762
808.324	27945
808.465	27907
808.607	27975
808.749	28196
808.891	28158
809.033	28344
809.174	28185
809.316	28200
809.458	28154
809.6	28192
809.741	28276
809.883	28424
810.025	28375
810.166	28390
810.308	28565
810.45	28360
810.591	28390
810.733	28211
810.875	28314
811.016	28109
811.158	28211
811.299	28048
811.441	28276
811.582	28314
811.724	28207
811.865	28200
812.007	28287
812.148	28169
812.29	28306
812.431	28432
812.573	28489
812.714	28573
812.855	28592
812.997	28820
813.138	28927
813.279	28725
813.421	28748
813.562	28717
813.703	28573
813.845	28401
813.986	28131
814.127	28044
814.268	27854
814.41	28006
814.551	27774
814.692	27960
814.833	27861
814.974	27945
815.115	27956
815.256	27694
815.397	27911
815.539	27709
815.68	27644
815.821	27724
815.962	27690
816.103	27720
816.244	27477
816.385	27473
816.526	27367
816.666	27222
816.807	27154
816.948	27222
817.089	27279
817.23	27268
817.371	27226
817.512	27214
817.653	27241
817.793	26967
817.934	27108
818.075	27146
818.216	27214
818.356	27154
818.497	27051
818.638	26823
818.778	26925
818.919	26937
819.06	26963
819.2	27047
819.341	27127
819.481	27077
819.622	27435
819.762	27424
819.903	27408
820.043	27431
820.184	27222
820.324	27241
820.465	27272
820.605	27302
820.746	27325
820.886	27096
821.026	27302
821.167	27222
821.307	27325
821.447	27211
821.588	27199
821.728	26963
821.868	26800
822.008	26697
822.149	26640
822.289	26629
822.429	26347
822.569	26412
822.709	26347
822.849	26259
822.99	26191
823.13	26187
823.27	26191
823.41	25913
823.55	25898
823.69	26020
823.83	25944
823.97	25887
824.11	25776
824.25	25807
824.389	25731
824.529	25845
824.669	25791
824.809	25902
824.949	25909
825.089	25989
825.228	25883
825.368	25639
825.508	25761
825.648	25723
825.787	25681
825.927	25700
826.067	25613
826.206	25632
826.346	25830
826.485	25738
826.625	25567
826.765	25750
826.904	25715
827.044	25502
827.183	25537
827.323	25381
827.462	25388
827.601	25616
827.741	25278
827.88	25304
828.02	25403
828.159	25320
828.298	25335
828.437	25453
828.577	25301
828.716	25499
828.855	25251
828.994	25137
829.134	25000
829.273	25023
829.412	24989
829.551	25091
829.69	25091
829.829	25187
829.968	25190
830.107	25152
830.246	25129
830.385	25046
830.524	24897
830.663	24863
830.802	24886
830.941	24840
831.08	24658
831.219	24734
831.357	24875
831.496	24920
831.635	24757
831.774	24677
831.913	24475
832.051	24467
832.19	24437
832.329	24521
832.467	24429
832.606	24323
832.744	24505
832.883	24384
833.022	24296
833.16	24464
833.299	24235
833.437	24353
833.576	24433
833.714	24448
833.852	24513
833.991	24540
834.129	24407
834.267	24388
834.406	24460
834.544	24403
834.682	24369
834.821	24403
834.959	24639
835.097	24262
835.235	24445
835.373	24346
835.511	24448
835.65	24319
835.788	24330
835.926	24216
836.064	24045
836.202	24163
836.34	24182
836.478	24266
836.615	24338
836.753	24315
836.891	24319
837.029	24228
837.167	24254
837.305	24167
837.443	24209
837.58	23965
837.718	24152
837.856	24068
837.993	24026
838.131	24045
838.269	23939
838.406	24045
838.544	23855
838.681	23851
838.819	23714
838.956	23505
839.094	23649
839.231	23554
839.369	23710
839.506	24045
839.643	23798
839.781	23592
839.918	23619
840.055	23425
840.193	23516
840.33	23490
840.467	23482
840.604	23524
840.742	23775
840.879	23486
841.016	23440
841.153	23379
841.29	23493
841.427	23512
841.564	23478
841.701	23410
841.838	23471
841.975	23387
842.112	23322
842.249	23280
842.385	23239
842.522	23379
842.659	23212
842.796	23083
842.933	23372
843.069	23140
843.206	23064
843.343	23223
843.479	23121
843.616	23185
843.752	23014
843.889	23010
844.025	23174
844.162	23048
844.298	23025
844.435	22896
844.571	22930
844.708	23102
844.844	23269
844.98	23254
845.117	22968
845.253	22915
845.389	22908
845.525	22946
845.661	22866
845.798	22668
845.934	22816
846.07	22672
846.206	22641
846.342	22710
846.478	22740
846.614	22493
846.75	22379
846.886	22535
847.022	22310
847.158	22470
847.294	22417
847.429	22462
847.565	22538
847.701	22736
847.837	22219
847.972	22147
848.108	22215
848.244	22143
848.379	22143
848.515	22044
848.65	22059
848.786	21968
848.921	22010
849.057	22215
849.192	22109
849.328	21987
849.463	22086
849.598	22070
849.734	22055
849.869	21884
850.004	21857
850.14	21884
850.275	21892
850.41	21641
850.545	21804
850.68	21781
850.815	21781
850.95	21774
851.085	21998
851.22	21937
851.355	21915
851.49	21899
851.625	21873
851.76	21778
851.895	21652
852.03	21766
852.165	21823
852.299	21895
852.434	21869
852.569	21835
852.703	21953
852.838	21865
852.973	22029
853.107	22002
853.242	21869
853.376	21641
853.511	21583
853.645	21648
853.78	21736
853.914	21587
854.048	21580
854.183	21618
854.317	21709
854.451	21751
854.585	21500
854.72	21622
854.854	21766
854.988	21549
855.122	21622
855.256	21500
855.39	21568
855.524	21751
855.658	21713
855.792	21747
855.926	21739
856.06	21751
856.194	21671
856.327	21663
856.461	21576
856.595	21492
856.729	21713
856.862	21698
856.996	21557
857.13	21713
857.263	21743
857.397	21819
857.53	21656
857.664	21648
857.797	21778
857.931	21728
858.064	21545
858.197	21717
858.331	21671
858.464	21614
858.597	21530
858.731	21656
858.864	21728
858.997	21553
859.13	21720
859.263	21633
859.396	21694
859.529	21519
859.662	21682
859.795	21496
859.928	21682
860.061	21800
860.194	21953
860.327	21591
860.46	21671
860.592	21732
860.725	21846
860.858	21930
860.99	21591
861.123	21682
861.256	21572
861.388	21789
861.521	22268
861.653	21561
861.786	21393
861.918	21606
862.05	21431
862.183	21576
862.315	21534
862.447	21705
862.58	21576
862.712	21336
862.844	21367
862.976	21408
863.108	21416
863.24	21846
863.372	21230
863.504	21420
863.636	21291
863.768	21473
863.9	21443
864.032	21188
864.164	21165
864.296	21348
864.428	21416
864.559	21382
864.691	21485
864.823	21374
864.954	21287
865.086	21298
865.217	21222
865.349	21146
865.48	21279
865.612	21211
865.743	21363
865.875	21252
866.006	21332
866.137	21119
866.269	21283
866.4	21351
866.531	21283
866.662	21218
866.793	21245
866.924	21306
867.055	21245
867.186	21256
867.317	21150
867.448	21036
867.579	21176
867.71	21123
867.841	21020
867.972	21260
868.103	21123
868.233	21203
868.364	21260
868.495	21279
868.625	21348
868.756	21450
868.886	21306
869.017	21492
869.147	21614
869.278	21538
869.408	21447
869.539	21405
869.669	21477
869.799	21477
869.929	21469
870.06	21561
870.19	21652
870.32	21633
870.45	21797
870.58	21819
870.71	21945
870.84	22051
870.97	21781
871.1	21895
871.23	21934
871.36	22105
871.489	21953
871.619	21994
871.749	22059
871.879	21968
872.008	22017
872.138	22070
872.267	21991
872.397	22002
872.526	21827
872.656	21774
872.785	21857
872.915	21991
873.044	22200
873.173	22093
873.303	22173
873.432	22059
873.561	22188
873.69	22017
873.819	22067
873.948	22139
874.077	22116
874.206	22128
874.335	22139
874.464	22101
874.593	22226
874.722	22219
874.851	22310
874.979	22337
875.108	22409
875.237	22147
875.365	22158
875.494	22169
875.623	22394
875.751	22295
875.88	22276
876.008	22386
876.136	22417
876.265	22634
876.393	22755
876.521	22694
876.65	22675
876.778	22675
876.906	22577
877.034	22596
877.162	22523
877.29	22679
877.418	22573
877.546	22755
877.674	22675
877.802	22478
877.93	22687
878.058	22561
878.185	22538
878.313	22588
878.441	22649
878.568	22516
878.696	22466
878.824	22740
878.951	22672
879.079	22797
879.206	22915
879.333	22820
879.461	22660
879.588	22687
879.715	22862
879.842	22828
879.97	22725
880.097	22405
880.224	22451
880.351	22500
880.478	22508
880.605	22405
880.732	22440
880.859	22626
880.986	22649
881.112	22485
881.239	22200
881.366	22063
881.493	22048
881.619	21975
881.746	22078
881.872	21911
881.999	21972
882.125	21949
882.252	22044
882.378	21956
882.505	22150
882.631	21846
882.757	21698
882.883	21846
883.01	21690
883.136	21686
883.262	21656
883.388	21652
883.514	21713
883.64	21671
883.766	21660
883.892	21450
884.018	21496
884.143	21534
884.269	21709
884.395	21462
884.52	21233
884.646	21348
884.772	21283
884.897	21233
885.023	21397
885.148	21454
885.274	21568
885.399	21443
885.524	21287
885.65	21355
885.775	21477
885.9	21298
886.025	21363
886.15	21344
886.275	21313
886.4	21329
886.525	21367
886.65	21370
886.775	21252
886.9	21329
887.025	21572
887.149	21283
887.274	21154
887.399	21017
887.523	21066
887.648	21074
887.773	20960
887.897	21184
888.021	21211
888.146	20925
888.27	21214
888.395	21230
888.519	21214
888.643	21161
888.767	21100
888.891	21039
889.015	20979
889.139	20990
889.263	20826
889.387	20986
889.511	21028
889.635	20971
889.759	20819
889.883	20895
890.006	20830
890.13	20994
890.254	20861
890.377	20807
890.501	20651
890.624	20522
890.748	20716
890.871	20549
890.995	20484
891.118	20374
891.241	20461
891.364	20514
891.488	20537
891.611	20537
891.734	20480
891.857	20499
891.98	20450
892.103	20488
892.226	20473
892.349	20415
892.471	20214
892.594	20438
892.717	20457
892.839	20343
892.962	20400
893.085	20332
893.207	20324
893.33	20259
893.452	20271
893.575	20389
893.697	20351
893.819	20556
893.941	20522
894.064	20492
894.186	20355
894.308	20191
894.43	20488
894.552	20473
894.674	20393
894.796	20358
894.918	20434
895.04	20377
895.161	20461
895.283	20423
895.405	20400
895.526	20389
895.648	20298
895.769	20358
895.891	20461
896.012	20461
896.134	20427
896.255	20271
896.376	20377
896.498	20469
896.619	20408
896.74	20370
896.861	20530
896.982	20746
897.103	20895
897.224	20648
897.345	20632
897.466	20590
897.587	20674
897.708	20674
897.828	20526
897.949	20465
898.07	20404
898.19	20461
898.311	20579
898.431	20579
898.552	20503
898.672	20556
898.792	20663
898.913	20613
899.033	20374
899.153	20328
899.273	20339
899.393	20221
899.513	20339
899.633	20336
899.753	20358
899.873	20336
899.993	20381
900.113	20298
900.232	20229
900.352	20259
900.472	20176
900.591	20050
900.711	20130
900.83	20138
900.95	20172
901.069	20195
901.189	20100
901.308	19746
901.427	19647
901.546	19753
901.665	19677
901.784	19609
901.904	19548
902.023	19480
902.141	19324
902.26	19148
902.379	19247
902.498	19324
902.617	19122
902.735	19285
902.854	19232
902.973	19034
903.091	18814
903.21	18825
903.328	18821
903.446	18749
903.565	18597
903.683	18635
903.801	18525
903.919	18642
904.038	18620
904.156	18494
904.274	18456
904.392	18418
904.51	18467
904.627	18334
904.745	18429
904.863	18399
904.981	18213
905.098	18148
905.216	18133
905.334	18091
905.451	18163
905.569	18003
905.686	18133
905.803	18117
905.921	17931
906.038	17988
906.155	17920
906.272	17836
906.389	17813
906.506	17707
906.623	17619
906.74	17665
906.857	17486
906.974	17478
907.091	17570
907.208	17699
907.324	17653
907.441	17509
907.557	17376
907.674	17330
907.79	17216
907.907	17246
908.023	17269
908.139	17315
908.256	17345
908.372	17239
908.488	17155
908.604	17128
908.72	17041
908.836	17045
908.952	17098
909.068	17067
909.184	17117
909.3	17067
909.415	17041
909.531	17090
909.647	16733
909.762	16793
909.878	16706
909.993	16782
910.108	16869
910.224	16656
910.339	16812
910.454	16656
910.57	16634
910.685	16538
910.8	16755
910.915	16729
911.03	16542
911.145	16257
911.259	16371
911.374	16382
911.489	16131
911.604	16192
911.718	16120
911.833	16173
911.947	15930
912.062	16048
912.176	16071
912.291	16215
912.405	16044
912.519	16299
912.633	16249
912.748	16051
912.862	16112
912.976	15998
913.09	15770
913.204	15899
913.318	15987
913.431	15907
913.545	15895
913.659	15983
913.772	15861
913.886	15774
914	15724
914.113	15755
914.226	15903
914.34	15793
914.453	15591
914.566	15739
914.68	15629
914.793	15656
914.906	15389
915.019	15401
915.132	15157
915.245	15386
915.358	15306
915.47	15420
915.583	15222
915.696	15298
915.809	15370
915.921	15351
916.034	15287
916.146	15207
916.259	15230
916.371	15325
916.483	15275
916.595	15047
916.708	15169
916.82	15176
916.932	15199
917.044	15135
917.156	15070
917.268	14834
917.38	14918
917.491	14895
917.603	14971
917.715	15085
917.826	15024
917.938	14834
918.049	14800
918.161	14899
918.272	15001
918.384	15055
918.495	14925
918.606	14807
918.717	14682
918.828	14746
918.939	14754
919.05	14762
919.161	14663
919.272	14400
919.383	14655
919.494	14819
919.604	14933
919.715	14731
919.826	14556
919.936	14659
920.047	14815
920.157	14731
920.267	14853
920.378	14743
920.488	14712
920.598	14830
920.708	14921
920.818	14807
920.928	14727
921.038	14948
921.148	14895
921.258	14606
921.368	14503
921.477	14396
921.587	14499
921.697	14210
921.806	14438
921.916	14259
922.025	14069
922.134	14149
922.244	14020
922.353	14077
922.462	13997
922.571	13890
922.68	13677
922.789	13757
922.898	13681
923.007	13636
923.116	13723
923.224	13670
923.333	13559
923.442	13518
923.55	13521
923.659	13559
923.767	13556
923.876	13514
923.984	13620
924.092	13422
924.201	13464
924.309	13449
924.417	13388
924.525	13483
924.633	13362
924.741	14324
924.849	13137
924.956	13297
925.064	13107
925.172	13008
925.279	13110
925.387	13118
925.494	13129
925.602	13247
925.709	13118
925.816	12932
925.924	13103
926.031	13156
926.138	13088
926.245	13076
926.352	12924
926.459	13175
926.566	13069
926.673	12966
926.779	12795
926.886	12802
926.993	12677
927.099	12817
927.206	12658
927.312	12665
927.419	12707
927.525	12601
927.631	12730
927.737	12570
927.843	12494
927.95	12467
928.056	12506
928.162	12452
928.267	12547
928.373	13183
928.479	12547
928.585	12262
928.69	12448
928.796	12551
928.901	12285
929.007	12228
929.112	12380
929.218	12216
929.323	12220
929.428	12117
929.533	12350
929.638	12110
929.743	12205
929.848	12247
929.953	12076
930.058	12095
930.163	11889
930.267	11821
930.372	12144
930.477	11726
930.581	12079
930.685	11931
930.79	11779
930.894	11821
930.998	11718
931.103	11889
931.207	11490
931.311	11467
931.415	11326
931.519	11212
931.623	11098
