Data from test_V78500241_91.txt Node
Date: Fri Mar 25 15:42:25 CST 2022
User: usil
Spectrometer: V785-0024
Trigger mode: 0
Integration Time (sec): 4.000000E-1
Scans to average: 1
Nonlinearity correction enabled: false
Boxcar width: 0
Storing dark spectrum: false
XAxis mode: Wavelengths
Number of Pixels in Spectrum: 1024
>>>>>Begin Spectral Data<<<<<
801.071	29661
801.214	29733
801.356	29414
801.499	29307
801.641	29227
801.783	29212
801.926	29356
802.068	29170
802.211	29239
802.353	29143
802.496	28949
802.638	28790
802.78	28744
802.923	28755
803.065	28675
803.208	28729
803.35	28797
803.492	28801
803.635	28930
803.777	28900
803.919	28995
804.061	29197
804.204	29018
804.346	28892
804.488	28752
804.63	28839
804.773	28911
804.915	28850
805.057	28938
805.199	28904
805.341	28999
805.483	28908
805.626	28972
805.768	28877
805.91	28953
806.052	29155
806.194	28896
806.336	29193
806.478	28976
806.62	29003
806.762	29094
806.904	29273
807.046	29387
807.188	29307
807.33	29356
807.472	29330
807.614	29250
807.756	29197
807.898	29235
808.04	29064
808.182	29159
808.324	29200
808.465	29147
808.607	29395
808.749	29410
808.891	29516
809.033	29741
809.174	29547
809.316	29726
809.458	29589
809.6	29440
809.741	29543
809.883	29665
810.025	29703
810.166	29665
810.308	29908
810.45	29653
810.591	29790
810.733	29482
810.875	29528
811.016	29372
811.158	29337
811.299	29676
811.441	29756
811.582	29524
811.724	29467
811.865	29356
812.007	29379
812.148	29379
812.29	29531
812.431	29630
812.573	29642
812.714	29889
812.855	29904
812.997	29950
813.138	30186
813.279	30083
813.421	29992
813.562	29783
813.703	29589
813.845	29649
813.986	29345
814.127	29239
814.268	29128
814.41	29223
814.551	29121
814.692	29189
814.833	29041
814.974	29025
815.115	29014
815.256	28778
815.397	28866
815.539	28869
815.68	28736
815.821	28771
815.962	28733
816.103	28858
816.244	28691
816.385	28729
816.526	28508
816.666	28367
816.807	28055
816.948	28200
817.089	28272
817.23	28249
817.371	28116
817.512	28185
817.653	28196
817.793	28143
817.934	28162
818.075	28002
818.216	28131
818.356	28070
818.497	28010
818.638	27884
818.778	27869
818.919	27835
819.06	27835
819.2	27998
819.341	28048
819.481	27930
819.622	28276
819.762	28379
819.903	28462
820.043	28291
820.184	28223
820.324	28169
820.465	28257
820.605	28204
820.746	28185
820.886	27884
821.026	28185
821.167	28223
821.307	28219
821.447	27861
821.588	27941
821.728	27713
821.868	27553
822.008	27644
822.149	27485
822.289	27450
822.429	27161
822.569	27180
822.709	27157
822.849	27089
822.99	27013
823.13	26853
823.27	26891
823.41	26773
823.55	26636
823.69	26769
823.83	26705
823.97	26514
824.11	26511
824.25	26507
824.389	26587
824.529	26648
824.669	26518
824.809	26640
824.949	26541
825.089	26735
825.228	26530
825.368	26412
825.508	26450
825.648	26480
825.787	26343
825.927	26343
826.067	26267
826.206	26237
826.346	26377
826.485	26362
826.625	26431
826.765	26530
826.904	26252
827.044	26012
827.183	26001
827.323	25837
827.462	26130
827.601	26039
827.741	25978
827.88	26073
828.02	25837
828.159	25860
828.298	25966
828.437	26077
828.577	25902
828.716	26142
828.855	25986
828.994	25731
829.134	25795
829.273	25658
829.412	25662
829.551	25601
829.69	25540
829.829	25681
829.968	25738
830.107	25723
830.246	25514
830.385	25548
830.524	25483
830.663	25499
830.802	25358
830.941	25198
831.08	25244
831.219	25316
831.357	25152
831.496	25438
831.635	25168
831.774	25126
831.913	25008
832.051	24943
832.19	24844
832.329	25000
832.467	24783
832.606	24848
832.744	24646
832.883	24703
833.022	24639
833.16	24738
833.299	24787
833.437	24909
833.576	24817
833.714	24882
833.852	24894
833.991	24840
834.129	24852
834.267	24772
834.406	24848
834.544	24821
834.682	24753
834.821	24745
834.959	24875
835.097	24673
835.235	24806
835.373	24734
835.511	24646
835.65	24589
835.788	24642
835.926	24490
836.064	24315
836.202	24437
836.34	24608
836.478	24673
836.615	24460
836.753	24479
836.891	24673
837.029	24677
837.167	24505
837.305	24513
837.443	24456
837.58	24319
837.718	24608
837.856	24532
837.993	24350
838.131	24285
838.269	24262
838.406	24372
838.544	24213
838.681	23996
838.819	23939
838.956	23726
839.094	23790
839.231	23874
839.369	24018
839.506	24095
839.643	24076
839.781	23722
839.918	23703
840.055	23836
840.193	23722
840.33	23596
840.467	23653
840.604	23752
840.742	23901
840.879	23581
841.016	23699
841.153	23611
841.29	23745
841.427	23691
841.564	23764
841.701	23722
841.838	23547
841.975	23463
842.112	23589
842.249	23520
842.385	23429
842.522	23516
842.659	23497
842.796	23376
842.933	23307
843.069	23459
843.206	23242
843.343	23455
843.479	23360
843.616	23258
843.752	23064
843.889	23155
844.025	23254
844.162	23162
844.298	23147
844.435	23098
844.571	23006
844.708	23060
844.844	23147
844.98	23162
845.117	23296
845.253	23037
845.389	22927
845.525	22839
845.661	22991
845.798	22850
845.934	22923
846.07	22679
846.206	22824
846.342	22938
846.478	22733
846.614	22596
846.75	22500
846.886	22470
847.022	22641
847.158	22603
847.294	22440
847.429	22611
847.565	22519
847.701	22748
847.837	22295
847.972	22272
848.108	22348
848.244	22310
848.379	22109
848.515	21991
848.65	22017
848.786	22078
848.921	22025
849.057	22116
849.192	22143
849.328	22162
849.463	21941
849.598	21960
849.734	21846
849.869	21945
850.004	21766
850.14	21975
850.275	21637
850.41	21656
850.545	21781
850.68	21892
850.815	21865
850.95	21720
851.085	21979
851.22	21854
851.355	21793
851.49	21804
851.625	21682
851.76	21854
851.895	21724
852.03	21652
852.165	21808
852.299	21816
852.434	21850
852.569	21766
852.703	21800
852.838	21812
852.973	21827
853.107	21949
853.242	21576
853.376	21447
853.511	21507
853.645	21477
853.78	21568
853.914	21587
854.048	21447
854.183	21496
854.317	21622
854.451	21713
854.585	21576
854.72	21591
854.854	21595
854.988	21496
855.122	21603
855.256	21431
855.39	21583
855.524	21717
855.658	21599
855.792	21530
855.926	21583
856.06	21553
856.194	21610
856.327	21450
856.461	21488
856.595	21572
856.729	21397
856.862	21656
856.996	21561
857.13	21595
857.263	21629
857.397	21583
857.53	21488
857.664	21477
857.797	21656
857.931	21568
858.064	21618
858.197	21485
858.331	21523
858.464	21306
858.597	21367
858.731	21511
858.864	21568
858.997	21287
859.13	21447
859.263	21583
859.396	21458
859.529	21420
859.662	21389
859.795	21348
859.928	21405
860.061	21488
860.194	21622
860.327	21481
860.46	21382
860.592	21500
860.725	21679
860.858	21656
860.99	21450
861.123	21363
861.256	21386
861.388	21348
861.521	22101
861.653	21336
861.786	21321
861.918	21332
862.05	21439
862.183	21526
862.315	21511
862.447	21713
862.58	21412
862.712	21313
862.844	21100
862.976	21283
863.108	21176
863.24	21462
863.372	21142
863.504	21211
863.636	21169
863.768	21222
863.9	21192
864.032	21074
864.164	21203
864.296	21165
864.428	21237
864.559	21195
864.691	21279
864.823	21138
864.954	21108
865.086	21150
865.217	21017
865.349	21017
865.48	21051
865.612	21020
865.743	21116
865.875	21093
866.006	20941
866.137	21096
866.269	20914
866.4	21169
866.531	20914
866.662	20906
866.793	21032
866.924	21001
867.055	20982
867.186	20967
867.317	20868
867.448	20781
867.579	20914
867.71	20861
867.841	20998
867.972	20921
868.103	20838
868.233	20899
868.364	20902
868.495	20906
868.625	21199
868.756	21249
868.886	21195
869.017	21089
869.147	21226
869.278	21355
869.408	21249
869.539	21157
869.669	21256
869.799	21195
869.929	21283
870.06	21260
870.19	21485
870.32	21656
870.45	21496
870.58	21564
870.71	21633
870.84	21728
870.97	21545
871.1	21507
871.23	21770
871.36	21804
871.489	21644
871.619	21671
871.749	21789
871.879	21800
872.008	21827
872.138	21857
872.267	21835
872.397	21713
872.526	21663
872.656	21576
872.785	21633
872.915	21755
873.044	21793
873.173	21770
873.303	21800
873.432	21846
873.561	21869
873.69	21903
873.819	21743
873.948	21911
874.077	21747
874.206	21701
874.335	21842
874.464	22055
874.593	22128
874.722	22010
874.851	22154
874.979	22143
875.108	22169
875.237	22025
875.365	22040
875.494	21968
875.623	22112
875.751	22067
875.88	21994
876.008	22044
876.136	22207
876.265	22379
876.393	22462
876.521	22519
876.65	22451
876.778	22409
876.906	22390
877.034	22295
877.162	22386
877.29	22200
877.418	22390
877.546	22405
877.674	22421
877.802	22371
877.93	22322
878.058	22363
878.185	22234
878.313	22402
878.441	22386
878.568	22196
878.696	22295
878.824	22379
878.951	22382
879.079	22622
879.206	22748
879.333	22588
879.461	22421
879.588	22455
879.715	22634
879.842	22577
879.97	22451
880.097	22169
880.224	22120
880.351	22226
880.478	22253
880.605	22154
880.732	22139
880.859	22432
880.986	22230
881.112	22169
881.239	22120
881.366	21911
881.493	21804
881.619	21800
881.746	21873
881.872	21717
881.999	21648
882.125	21766
882.252	21819
882.378	21720
882.505	21876
882.631	21671
882.757	21557
882.883	21496
883.01	21511
883.136	21447
883.262	21355
883.388	21359
883.514	21595
883.64	21534
883.766	21367
883.892	21321
884.018	21268
884.143	21500
884.269	21591
884.395	21351
884.52	21119
884.646	21138
884.772	21119
884.897	21062
885.023	21051
885.148	21173
885.274	21332
885.399	21176
885.524	21138
885.65	21161
885.775	21055
885.9	21135
886.025	21157
886.15	21104
886.275	21036
886.4	21074
886.525	21154
886.65	20994
886.775	21165
886.9	21074
887.025	21249
887.149	21055
887.274	20883
887.399	20948
887.523	20891
887.648	20792
887.773	20781
887.897	20941
888.021	21024
888.146	20864
888.27	20967
888.395	20910
888.519	20899
888.643	20861
888.767	20815
888.891	20800
889.015	20602
889.139	20651
889.263	20465
889.387	20640
889.511	20902
889.635	20663
889.759	20689
889.883	20697
890.006	20682
890.13	20754
890.254	20503
890.377	20507
890.501	20427
890.624	20259
890.748	20362
890.871	20214
890.995	20176
891.118	20111
891.241	20191
891.364	20180
891.488	20301
891.611	20187
891.734	20317
891.857	20332
891.98	20221
892.103	20267
892.226	20271
892.349	20092
892.471	20046
892.594	20180
892.717	20115
892.839	20092
892.962	20145
893.085	20168
893.207	20065
893.33	19986
893.452	20088
893.575	20096
893.697	20145
893.819	20225
893.941	20206
894.064	20229
894.186	20050
894.308	20039
894.43	20206
894.552	20237
894.674	20233
894.796	20084
894.918	20058
895.04	20027
895.161	20122
895.283	20294
895.405	20027
895.526	20237
895.648	20103
895.769	20309
895.891	20191
896.012	20202
896.134	20187
896.255	20187
896.376	20157
896.498	20183
896.619	20199
896.74	20172
896.861	20244
896.982	20511
897.103	20545
897.224	20374
897.345	20434
897.466	20362
897.587	20347
897.708	20450
897.828	20332
897.949	20332
898.07	20286
898.19	20301
898.311	20552
898.431	20343
898.552	20457
898.672	20423
898.792	20389
898.913	20294
899.033	20248
899.153	20134
899.273	19932
899.393	19902
899.513	20103
899.633	20065
899.753	20069
899.873	19921
899.993	20161
900.113	19986
900.232	19932
900.352	19932
900.472	19685
900.591	19693
900.711	19833
900.83	19761
900.95	19944
901.069	19852
901.189	19681
901.308	19605
901.427	19597
901.546	19480
901.665	19377
901.784	19403
901.904	19346
902.023	19213
902.141	18935
902.26	18928
902.379	19103
902.498	18867
902.617	18867
902.735	18848
902.854	18814
902.973	18886
903.091	18639
903.21	18570
903.328	18521
903.446	18601
903.565	18300
903.683	18456
903.801	18289
903.919	18342
904.038	18456
904.156	18155
904.274	18205
904.392	18098
904.51	18083
904.627	18068
904.745	18197
904.863	18136
904.981	17931
905.098	17958
905.216	17809
905.334	17843
905.451	17794
905.569	17851
905.686	17809
905.803	17798
905.921	17608
906.038	17657
906.155	17615
906.272	17440
906.389	17520
906.506	17368
906.623	17330
906.74	17341
906.857	17105
906.974	17284
907.091	17330
907.208	17478
907.324	17387
907.441	17204
907.557	17086
907.674	16984
907.79	16915
907.907	16847
908.023	17037
908.139	17003
908.256	16987
908.372	16847
908.488	16976
908.604	16683
908.72	16630
908.836	16698
908.952	16634
909.068	16592
909.184	16759
909.3	16615
909.415	16752
909.531	16565
909.647	16348
909.762	16299
909.878	16341
909.993	16360
910.108	16287
910.224	16348
910.339	16344
910.454	16287
910.57	16139
910.685	16116
910.8	16348
910.915	16226
911.03	16082
911.145	15979
911.259	15953
911.374	15934
911.489	15789
911.604	15797
911.718	15755
911.833	15618
911.947	15557
912.062	15523
912.176	15785
912.291	15793
912.405	15705
912.519	15934
912.633	15911
912.748	15694
912.862	15637
912.976	15511
913.09	15336
913.204	15481
913.318	15523
913.431	15561
913.545	15466
913.659	15618
913.772	15530
913.886	15329
914	15363
914.113	15306
914.226	15378
914.34	15351
914.453	15230
914.566	15359
914.68	15226
914.793	15138
914.906	14948
915.019	14914
915.132	14762
915.245	14910
915.358	14986
915.47	15024
915.583	14941
915.696	14956
915.809	15100
915.921	14990
916.034	14937
916.146	14963
916.259	14792
916.371	14872
916.483	14872
916.595	14746
916.708	14781
916.82	14807
916.932	14762
917.044	14659
917.156	14720
917.268	14587
917.38	14686
917.491	14629
917.603	14583
917.715	14583
917.826	14686
917.938	14507
918.049	14465
918.161	14575
918.272	14644
918.384	14693
918.495	14533
918.606	14442
918.717	14259
918.828	14442
918.939	14377
919.05	14317
919.161	14324
919.272	14164
919.383	14282
919.494	14355
919.604	14526
919.715	14256
919.826	14271
919.936	14336
920.047	14362
920.157	14309
920.267	14427
920.378	14252
920.488	14339
920.598	14442
920.708	14659
920.818	14442
920.928	14408
921.038	14651
921.148	14492
921.258	14343
921.368	14100
921.477	14035
921.587	13928
921.697	13947
921.806	14088
921.916	13879
922.025	13769
922.134	13628
922.244	13674
922.353	13761
922.462	13533
922.571	13476
922.68	13346
922.789	13206
922.898	13358
923.007	13187
923.116	13346
923.224	13293
923.333	13225
923.442	13107
923.55	13069
923.659	13126
923.767	13244
923.876	13114
923.984	13110
924.092	13015
924.201	13065
924.309	12954
924.417	13053
924.525	13004
924.633	12970
924.741	13742
924.849	12734
924.956	12848
925.064	12829
925.172	12700
925.279	12623
925.387	12772
925.494	12719
925.602	12776
925.709	12779
925.816	12696
925.924	12719
926.031	12760
926.138	12703
926.245	12677
926.352	12540
926.459	12703
926.566	12715
926.673	12608
926.779	12506
926.886	12399
926.993	12315
927.099	12296
927.206	12281
927.312	12167
927.419	12319
927.525	12273
927.631	12304
927.737	12201
927.843	12182
927.95	12076
928.056	12057
928.162	12144
928.267	12186
928.373	12711
928.479	12251
928.585	11961
928.69	12011
928.796	12072
928.901	11946
929.007	11889
929.112	11950
929.218	11882
929.323	11779
929.428	11828
929.533	11912
929.638	11729
929.743	11809
929.848	11790
929.953	11779
930.058	11642
930.163	11535
930.267	11505
930.372	11649
930.477	11474
930.581	11714
930.685	11482
930.79	11353
930.894	11372
930.998	11395
931.103	11547
931.207	11159
931.311	11105
931.415	11025
931.519	10793
931.623	10698
