Data from test_V78500241_211.txt Node
Date: Fri Mar 25 15:43:15 CST 2022
User: usil
Spectrometer: V785-0024
Trigger mode: 0
Integration Time (sec): 4.000000E-1
Scans to average: 1
Nonlinearity correction enabled: false
Boxcar width: 0
Storing dark spectrum: false
XAxis mode: Wavelengths
Number of Pixels in Spectrum: 1024
>>>>>Begin Spectral Data<<<<<
801.071	29665
801.214	29630
801.356	29372
801.499	29181
801.641	29105
801.783	29159
801.926	29250
802.068	29189
802.211	29277
802.353	29048
802.496	29014
802.638	28881
802.78	28858
802.923	28729
803.065	28603
803.208	28672
803.35	28831
803.492	28976
803.635	28892
803.777	28790
803.919	29064
804.061	29140
804.204	29044
804.346	28991
804.488	28862
804.63	28866
804.773	28816
804.915	29029
805.057	29033
805.199	28908
805.341	28873
805.483	29094
805.626	28961
805.768	28862
805.91	28869
806.052	29124
806.194	28835
806.336	29261
806.478	29166
806.62	29147
806.762	29216
806.904	29372
807.046	29615
807.188	29474
807.33	29436
807.472	29512
807.614	29296
807.756	29284
807.898	29402
808.04	29079
808.182	29231
808.324	29181
808.465	29189
808.607	29269
808.749	29596
808.891	29802
809.033	29832
809.174	29760
809.316	29638
809.458	29756
809.6	29661
809.741	29718
809.883	29756
810.025	29912
810.166	29923
810.308	29878
810.45	29714
810.591	29794
810.733	29630
810.875	29604
811.016	29581
811.158	29512
811.299	29672
811.441	29817
811.582	29604
811.724	29630
811.865	29493
812.007	29535
812.148	29573
812.29	29554
812.431	29745
812.573	29885
812.714	29927
812.855	30076
812.997	30209
813.138	30292
813.279	30235
813.421	30174
813.562	30098
813.703	29878
813.845	29916
813.986	29303
814.127	29353
814.268	29151
814.41	29269
814.551	29337
814.692	29334
814.833	29064
814.974	29166
815.115	29212
815.256	29113
815.397	28946
815.539	28949
815.68	29067
815.821	28717
815.962	29048
816.103	28946
816.244	28744
816.385	28656
816.526	28683
816.666	28440
816.807	28333
816.948	28474
817.089	28409
817.23	28447
817.371	28390
817.512	28398
817.653	28432
817.793	28230
817.934	28284
818.075	28333
818.216	28417
818.356	28352
818.497	28242
818.638	27991
818.778	28082
818.919	28143
819.06	28238
819.2	28223
819.341	28242
819.481	28139
819.622	28348
819.762	28538
819.903	28687
820.043	28535
820.184	28424
820.324	28386
820.465	28390
820.605	28352
820.746	28341
820.886	28276
821.026	28443
821.167	28280
821.307	28409
821.447	28356
821.588	28246
821.728	28063
821.868	27838
822.008	27759
822.149	27629
822.289	27808
822.429	27447
822.569	27454
822.709	27336
822.849	27310
822.99	27359
823.13	27180
823.27	27127
823.41	26895
823.55	26975
823.69	26906
823.83	27020
823.97	27062
824.11	26849
824.25	26686
824.389	26887
824.529	26918
824.669	26815
824.809	26982
824.949	26845
825.089	26788
825.228	26754
825.368	26594
825.508	26636
825.648	26670
825.787	26617
825.927	26735
826.067	26678
826.206	26438
826.346	26739
826.485	26583
826.625	26724
826.765	26731
826.904	26716
827.044	26324
827.183	26267
827.323	26259
827.462	26358
827.601	26271
827.741	26252
827.88	26324
828.02	26134
828.159	26286
828.298	26195
828.437	26278
828.577	26271
828.716	26427
828.855	26328
828.994	25913
829.134	25966
829.273	25898
829.412	25947
829.551	25951
829.69	25921
829.829	25986
829.968	26012
830.107	25940
830.246	25963
830.385	25868
830.524	25917
830.663	25849
830.802	25635
830.941	25537
831.08	25407
831.219	25693
831.357	25628
831.496	25807
831.635	25571
831.774	25419
831.913	25388
832.051	25331
832.19	25331
832.329	25335
832.467	25183
832.606	25091
832.744	25088
832.883	25095
833.022	25118
833.16	25225
833.299	25236
833.437	25156
833.576	25164
833.714	25114
833.852	25206
833.991	25346
834.129	25206
834.267	25324
834.406	25244
834.544	25255
834.682	25164
834.821	25209
834.959	25297
835.097	24947
835.235	25099
835.373	25084
835.511	25088
835.65	25019
835.788	25072
835.926	24844
836.064	24692
836.202	24753
836.34	25027
836.478	25053
836.615	24935
836.753	24939
836.891	25168
837.029	24973
837.167	24840
837.305	24798
837.443	24764
837.58	24817
837.718	24848
837.856	24753
837.993	24688
838.131	24711
838.269	24563
838.406	24658
838.544	24627
838.681	24429
838.819	24429
838.956	24251
839.094	24235
839.231	24266
839.369	24357
839.506	24604
839.643	24486
839.781	24209
839.918	24102
840.055	24121
840.193	24163
840.33	24045
840.467	24022
840.604	24098
840.742	24437
840.879	23923
841.016	24011
841.153	23980
841.29	24270
841.427	23927
841.564	23973
841.701	24064
841.838	23897
841.975	24011
842.112	24018
842.249	24026
842.385	23832
842.522	24030
842.659	23855
842.796	23779
842.933	23813
843.069	23714
843.206	23809
843.343	23809
843.479	23745
843.616	23843
843.752	23493
843.889	23520
844.025	23604
844.162	23493
844.298	23604
844.435	23459
844.571	23421
844.708	23531
844.844	23573
844.98	23653
845.117	23543
845.253	23436
845.389	23425
845.525	23417
845.661	23459
845.798	23200
845.934	23258
846.07	23208
846.206	23204
846.342	23261
846.478	23273
846.614	22957
846.75	22820
846.886	22839
847.022	22866
847.158	23010
847.294	22889
847.429	22976
847.565	22854
847.701	23124
847.837	22698
847.972	22542
848.108	22668
848.244	22618
848.379	22542
848.515	22504
848.65	22424
848.786	22489
848.921	22588
849.057	22550
849.192	22584
849.328	22481
849.463	22402
849.598	22428
849.734	22405
849.869	22318
850.004	22173
850.14	22360
850.275	22238
850.41	22078
850.545	22299
850.68	22207
850.815	22276
850.95	22204
851.085	22356
851.22	22253
851.355	22169
851.49	22253
851.625	22162
851.76	22257
851.895	22128
852.03	22116
852.165	22173
852.299	22261
852.434	22287
852.569	22268
852.703	22173
852.838	22040
852.973	22451
853.107	22219
853.242	22070
853.376	22044
853.511	21895
853.645	22032
853.78	22109
853.914	21956
854.048	21964
854.183	21987
854.317	22059
854.451	22070
854.585	22040
854.72	22139
854.854	22036
854.988	21994
855.122	21987
855.256	21778
855.39	21953
855.524	21991
855.658	21972
855.792	21934
855.926	21987
856.06	22006
856.194	22158
856.327	21895
856.461	21823
856.595	21755
856.729	21899
856.862	21998
856.996	22059
857.13	22086
857.263	22048
857.397	22143
857.53	21934
857.664	22086
857.797	22017
857.931	22097
858.064	21915
858.197	22040
858.331	22025
858.464	21934
858.597	21854
858.731	21819
858.864	21823
858.997	21964
859.13	21968
859.263	22021
859.396	22055
859.529	21991
859.662	21899
859.795	21842
859.928	21762
860.061	21968
860.194	22074
860.327	21934
860.46	21854
860.592	21953
860.725	22124
860.858	21975
860.99	21968
861.123	21895
861.256	21880
861.388	21819
861.521	22580
861.653	21876
861.786	21698
861.918	21823
862.05	21857
862.183	21846
862.315	21956
862.447	22074
862.58	22025
862.712	21698
862.844	21759
862.976	21591
863.108	21717
863.24	21949
863.372	21694
863.504	21591
863.636	21682
863.768	21625
863.9	21637
864.032	21603
864.164	21618
864.296	21652
864.428	21648
864.559	21812
864.691	21671
864.823	21485
864.954	21637
865.086	21481
865.217	21481
865.349	21447
865.48	21519
865.612	21553
865.743	21511
865.875	21424
866.006	21431
866.137	21542
866.269	21488
866.4	21488
866.531	21580
866.662	21447
866.793	21443
866.924	21477
867.055	21428
867.186	21378
867.317	21450
867.448	21310
867.579	21355
867.71	21222
867.841	21329
867.972	21458
868.103	21462
868.233	21526
868.364	21401
868.495	21378
868.625	21713
868.756	21720
868.886	21492
869.017	21663
869.147	21724
869.278	21732
869.408	21663
869.539	21679
869.669	21682
869.799	21660
869.929	21808
870.06	21739
870.19	21979
870.32	21953
870.45	21964
870.58	21979
870.71	22090
870.84	22086
870.97	22086
871.1	21972
871.23	22257
871.36	22287
871.489	22135
871.619	22207
871.749	22261
871.879	22299
872.008	22322
872.138	22223
872.267	22238
872.397	22147
872.526	22078
872.656	22154
872.785	21998
872.915	22185
873.044	22367
873.173	22325
873.303	22333
873.432	22333
873.561	22367
873.69	22192
873.819	22265
873.948	22417
874.077	22409
874.206	22261
874.335	22166
874.464	22348
874.593	22432
874.722	22485
874.851	22512
874.979	22478
875.108	22542
875.237	22386
875.365	22356
875.494	22478
875.623	22508
875.751	22516
875.88	22462
876.008	22615
876.136	22733
876.265	22961
876.393	23067
876.521	22927
876.65	22953
876.778	22839
876.906	22911
877.034	22778
877.162	22828
877.29	22778
877.418	22835
877.546	22824
877.674	22953
877.802	22733
877.93	22824
878.058	22831
878.185	22771
878.313	22816
878.441	22889
878.568	22607
878.696	22778
878.824	22885
878.951	22854
879.079	22961
879.206	23041
879.333	22999
879.461	22854
879.588	23003
879.715	23048
879.842	23064
879.97	22835
880.097	22702
880.224	22683
880.351	22649
880.478	22771
880.605	22664
880.732	22538
880.859	23006
880.986	22702
881.112	22653
881.239	22630
881.366	22424
881.493	22322
881.619	22329
881.746	22253
881.872	22158
881.999	22265
882.125	22185
882.252	22379
882.378	22246
882.505	22299
882.631	22120
882.757	21911
882.883	22135
883.01	21975
883.136	21869
883.262	21823
883.388	21789
883.514	22025
883.64	21987
883.766	21903
883.892	21724
884.018	21781
884.143	21907
884.269	22013
884.395	21614
884.52	21564
884.646	21648
884.772	21466
884.897	21500
885.023	21485
885.148	21629
885.274	21625
885.399	21759
885.524	21515
885.65	21557
885.775	21618
885.9	21637
886.025	21580
886.15	21667
886.275	21420
886.4	21496
886.525	21496
886.65	21462
886.775	21435
886.9	21580
887.025	21770
887.149	21428
887.274	21424
887.399	21291
887.523	21279
887.648	21249
887.773	21363
887.897	21310
888.021	21378
888.146	21325
888.27	21428
888.395	21450
888.519	21469
888.643	21382
888.767	21469
888.891	21188
889.015	21005
889.139	21173
889.263	21024
889.387	21291
889.511	21237
889.635	21188
889.759	21039
889.883	21024
890.006	21192
890.13	21268
890.254	20891
890.377	20899
890.501	20765
890.624	20845
890.748	20868
890.871	20701
890.995	20655
891.118	20625
891.241	20640
891.364	20674
891.488	20720
891.611	20720
891.734	20651
891.857	20750
891.98	20598
892.103	20686
892.226	20697
892.349	20640
892.471	20457
892.594	20526
892.717	20689
892.839	20533
892.962	20609
893.085	20579
893.207	20545
893.33	20450
893.452	20476
893.575	20537
893.697	20526
893.819	20754
893.941	20682
894.064	20587
894.186	20541
894.308	20412
894.43	20549
894.552	20815
894.674	20564
894.796	20412
894.918	20495
895.04	20518
895.161	20594
895.283	20613
895.405	20488
895.526	20533
895.648	20579
895.769	20484
895.891	20606
896.012	20613
896.134	20693
896.255	20480
896.376	20583
896.498	20495
896.619	20663
896.74	20571
896.861	20705
896.982	20807
897.103	21070
897.224	20914
897.345	20838
897.466	20758
897.587	20834
897.708	20910
897.828	20834
897.949	20743
898.07	20670
898.19	20705
898.311	20849
898.431	20632
898.552	20762
898.672	20792
898.792	20712
898.913	20773
899.033	20473
899.153	20480
899.273	20457
899.393	20404
899.513	20537
899.633	20518
899.753	20495
899.873	20484
899.993	20473
900.113	20438
900.232	20377
900.352	20393
900.472	20256
900.591	20324
900.711	20374
900.83	20202
900.95	20301
901.069	20347
901.189	20065
901.308	19860
901.427	19894
901.546	19898
901.665	19871
901.784	19909
901.904	19811
902.023	19586
902.141	19487
902.26	19453
902.379	19381
902.498	19403
902.617	19312
902.735	19373
902.854	19118
902.973	19164
903.091	18894
903.21	18932
903.328	18924
903.446	18779
903.565	18783
903.683	18768
903.801	18612
903.919	18631
904.038	18734
904.156	18521
904.274	18646
904.392	18578
904.51	18494
904.627	18445
904.745	18547
904.863	18521
904.981	18403
905.098	18159
905.216	18232
905.334	18235
905.451	18254
905.569	18194
905.686	18194
905.803	18098
905.921	17870
906.038	18091
906.155	18011
906.272	17920
906.389	17870
906.506	17767
906.623	17745
906.74	17733
906.857	17566
906.974	17543
907.091	17691
907.208	17790
907.324	17817
907.441	17566
907.557	17467
907.674	17398
907.79	17273
907.907	17383
908.023	17311
908.139	17395
908.256	17303
908.372	17265
908.488	17075
908.604	17098
908.72	17048
908.836	17052
908.952	17060
909.068	17045
909.184	17071
909.3	17136
909.415	17033
909.531	17045
909.647	16721
909.762	16866
909.878	16805
909.993	16889
910.108	16847
910.224	16603
910.339	16740
910.454	16554
910.57	16592
910.685	16474
910.8	16812
910.915	16790
911.03	16630
911.145	16333
911.259	16363
911.374	16382
911.489	16280
911.604	16173
911.718	16101
911.833	16109
911.947	16055
912.062	15945
912.176	16139
912.291	16051
912.405	16097
912.519	16257
912.633	16280
912.748	16082
912.862	16071
912.976	15895
913.09	15770
913.204	15827
913.318	15899
913.431	15968
913.545	15888
913.659	15972
913.772	15819
913.886	15671
914	15599
914.113	15808
914.226	15850
914.34	15759
914.453	15507
914.566	15660
914.68	15698
914.793	15519
914.906	15363
915.019	15264
915.132	15211
915.245	15237
915.358	15332
915.47	15321
915.583	15310
915.696	15298
915.809	15397
915.921	15374
916.034	15154
916.146	15207
916.259	15077
916.371	15252
916.483	15241
916.595	15089
916.708	15116
916.82	15001
916.932	15100
917.044	15051
917.156	15036
917.268	14944
917.38	14804
917.491	14883
917.603	15013
917.715	14967
917.826	14982
917.938	14830
918.049	14800
918.161	14788
918.272	14952
918.384	14937
918.495	14849
918.606	14659
918.717	14610
918.828	14678
918.939	14746
919.05	14594
919.161	14629
919.272	14503
919.383	14590
919.494	14686
919.604	14895
919.715	14640
919.826	14549
919.936	14636
920.047	14758
920.157	14682
920.267	14773
920.378	14549
920.488	14617
920.598	14807
920.708	14872
920.818	14769
920.928	14686
921.038	14895
921.148	14872
921.258	14476
921.368	14476
921.477	14305
921.587	14263
921.697	14221
921.806	14339
921.916	14248
922.025	14062
922.134	14020
922.244	13967
922.353	14092
922.462	13776
922.571	13795
922.68	13590
922.789	13563
922.898	13643
923.007	13502
923.116	13571
923.224	13578
923.333	13594
923.442	13453
923.55	13411
923.659	13362
923.767	13434
923.876	13392
923.984	13388
924.092	13247
924.201	13327
924.309	13274
924.417	13362
924.525	13247
924.633	13278
924.741	13951
924.849	13118
924.956	13225
925.064	13088
925.172	12890
925.279	12977
925.387	13038
925.494	13050
925.602	13110
925.709	13038
925.816	12913
925.924	13034
926.031	12970
926.138	13015
926.245	12996
926.352	12802
926.459	13015
926.566	12916
926.673	12817
926.779	12749
926.886	12768
926.993	12749
927.099	12559
927.206	12475
927.312	12574
927.419	12650
927.525	12620
927.631	12658
927.737	12521
927.843	12418
927.95	12258
928.056	12380
928.162	12388
928.267	12490
928.373	13008
928.479	12388
928.585	12273
928.69	12342
928.796	12323
928.901	12273
929.007	12095
929.112	12194
929.218	12209
929.323	12171
929.428	12083
929.533	12194
929.638	12053
929.743	12068
929.848	12114
929.953	12079
930.058	11954
930.163	11843
930.267	11847
930.372	11931
930.477	11688
930.581	11950
930.685	11798
930.79	11589
930.894	11657
930.998	11665
931.103	11767
931.207	11414
931.311	11372
931.415	11204
931.519	11128
931.623	11029
