Data from test_V78500241_2310.txt Node
Date: Fri Mar 25 15:57:48 CST 2022
User: usil
Spectrometer: V785-0024
Trigger mode: 0
Integration Time (sec): 4.000000E-1
Scans to average: 1
Nonlinearity correction enabled: false
Boxcar width: 0
Storing dark spectrum: false
XAxis mode: Wavelengths
Number of Pixels in Spectrum: 1024
>>>>>Begin Spectral Data<<<<<
801.071	28949
801.214	28793
801.356	28531
801.499	28615
801.641	28356
801.783	28474
801.926	28588
802.068	28405
802.211	28367
802.353	28215
802.496	28051
802.638	28048
802.78	28078
802.923	28006
803.065	28017
803.208	27880
803.35	27987
803.492	28253
803.635	28253
803.777	28253
803.919	28287
804.061	28538
804.204	28401
804.346	28390
804.488	28306
804.63	28409
804.773	28044
804.915	28417
805.057	28569
805.199	28284
805.341	28573
805.483	28443
805.626	28394
805.768	28459
805.91	28382
806.052	28565
806.194	28573
806.336	28588
806.478	28523
806.62	28432
806.762	28607
806.904	28691
807.046	28885
807.188	29014
807.33	28869
807.472	28987
807.614	28793
807.756	29003
807.898	28873
808.04	28694
808.182	28782
808.324	28786
808.465	28824
808.607	29018
808.749	29261
808.891	29246
809.033	29284
809.174	29261
809.316	29185
809.458	29105
809.6	29246
809.741	29337
809.883	29311
810.025	29395
810.166	29448
810.308	29375
810.45	29452
810.591	29429
810.733	29265
810.875	29181
811.016	29056
811.158	29193
811.299	29227
811.441	29448
811.582	29360
811.724	29090
811.865	29239
812.007	29216
812.148	29147
812.29	29197
812.431	29425
812.573	29436
812.714	29509
812.855	29452
812.997	29847
813.138	29794
813.279	29847
813.421	29699
813.562	29699
813.703	29551
813.845	29379
813.986	29121
814.127	28927
814.268	28987
814.41	28885
814.551	28949
814.692	29033
814.833	28858
814.974	28911
815.115	28999
815.256	28771
815.397	28660
815.539	28694
815.68	28713
815.821	28588
815.962	28729
816.103	28706
816.244	28630
816.385	28607
816.526	28489
816.666	28394
816.807	28097
816.948	28249
817.089	28341
817.23	28090
817.371	28363
817.512	28322
817.653	28086
817.793	28261
817.934	28261
818.075	28128
818.216	28143
818.356	28211
818.497	28128
818.638	27964
818.778	27998
818.919	27850
819.06	28013
819.2	27994
819.341	28124
819.481	28234
819.622	28333
819.762	28603
819.903	28489
820.043	28394
820.184	28447
820.324	28325
820.465	28246
820.605	28341
820.746	28371
820.886	28173
821.026	28329
821.167	28207
821.307	28390
821.447	28257
821.588	28230
821.728	27979
821.868	27804
822.008	27717
822.149	27728
822.289	27739
822.429	27462
822.569	27469
822.709	27443
822.849	27195
822.99	27298
823.13	27131
823.27	27146
823.41	27188
823.55	26910
823.69	26982
823.83	27077
823.97	26975
824.11	26712
824.25	26788
824.389	26811
824.529	26975
824.669	26826
824.809	27081
824.949	26933
825.089	27085
825.228	26925
825.368	26663
825.508	26727
825.648	26758
825.787	26811
825.927	26750
826.067	26735
826.206	26648
826.346	26853
826.485	26769
826.625	26864
826.765	26842
826.904	26887
827.044	26488
827.183	26549
827.323	26507
827.462	26583
827.601	26412
827.741	26427
827.88	26552
828.02	26290
828.159	26374
828.298	26431
828.437	26492
828.577	26366
828.716	26511
828.855	26412
828.994	26214
829.134	26168
829.273	26145
829.412	26138
829.551	26145
829.69	26191
829.829	26084
829.968	26168
830.107	26199
830.246	26027
830.385	26096
830.524	26012
830.663	25944
830.802	25826
830.941	25925
831.08	25769
831.219	25799
831.357	25712
831.496	25997
831.635	25780
831.774	25708
831.913	25582
832.051	25643
832.19	25533
832.329	25460
832.467	25468
832.606	25407
832.744	25354
832.883	25358
833.022	25358
833.16	25407
833.299	25544
833.437	25400
833.576	25411
833.714	25510
833.852	25460
833.991	25502
834.129	25491
834.267	25502
834.406	25510
834.544	25502
834.682	25453
834.821	25381
834.959	25537
835.097	25320
835.235	25616
835.373	25449
835.511	25548
835.65	25464
835.788	25312
835.926	25240
836.064	25206
836.202	25171
836.34	25358
836.478	25354
836.615	25240
836.753	25346
836.891	25244
837.029	25236
837.167	25228
837.305	25217
837.443	25145
837.58	25141
837.718	25152
837.856	25084
837.993	24958
838.131	25038
838.269	25095
838.406	24996
838.544	24985
838.681	24608
838.819	24639
838.956	24509
839.094	24563
839.231	24741
839.369	24749
839.506	25023
839.643	24726
839.781	24639
839.918	24582
840.055	24589
840.193	24505
840.33	24426
840.467	24437
840.604	24441
840.742	24840
840.879	24334
841.016	24460
841.153	24353
841.29	24574
841.427	24437
841.564	24471
841.701	24486
841.838	24422
841.975	24342
842.112	24342
842.249	24334
842.385	24243
842.522	24410
842.659	24304
842.796	24270
842.933	24258
843.069	24273
843.206	24330
843.343	24285
843.479	24155
843.616	24289
843.752	23992
843.889	23992
844.025	24140
844.162	23961
844.298	24072
844.435	23908
844.571	23984
844.708	23999
844.844	24095
844.98	24232
845.117	24159
845.253	23973
845.389	23908
845.525	23923
845.661	23737
845.798	23585
845.934	23741
846.07	23657
846.206	23775
846.342	24003
846.478	23649
846.614	23497
846.75	23353
846.886	23452
847.022	23703
847.158	23459
847.294	23486
847.429	23493
847.565	23493
847.701	23817
847.837	23254
847.972	23155
848.108	23356
848.244	23273
848.379	23299
848.515	23109
848.65	22900
848.786	23124
848.921	22984
849.057	23113
849.192	23151
849.328	23159
849.463	23178
849.598	22987
849.734	22957
849.869	22938
850.004	22869
850.14	22843
850.275	22797
850.41	22778
850.545	22675
850.68	22786
850.815	22839
850.95	22812
851.085	22835
851.22	22889
851.355	22858
851.49	22771
851.625	22812
851.76	22736
851.895	22615
852.03	22698
852.165	22767
852.299	22713
852.434	22930
852.569	22824
852.703	22847
852.838	22904
852.973	22991
853.107	23044
853.242	22634
853.376	22557
853.511	22538
853.645	22569
853.78	22668
853.914	22664
854.048	22546
854.183	22611
854.317	22653
854.451	22763
854.585	22637
854.72	22611
854.854	22774
854.988	22523
855.122	22630
855.256	22577
855.39	22535
855.524	22588
855.658	22607
855.792	22542
855.926	22656
856.06	22660
856.194	22675
856.327	22584
856.461	22596
856.595	22660
856.729	22668
856.862	22733
856.996	22603
857.13	22778
857.263	22809
857.397	22740
857.53	22607
857.664	22626
857.797	22557
857.931	22744
858.064	22717
858.197	22702
858.331	22607
858.464	22641
858.597	22497
858.731	22531
858.864	22618
858.997	22481
859.13	22660
859.263	22679
859.396	22721
859.529	22618
859.662	22447
859.795	22542
859.928	22497
860.061	22691
860.194	22896
860.327	22683
860.46	22637
860.592	22702
860.725	22774
860.858	22869
860.99	22744
861.123	22500
861.256	22626
861.388	22584
861.521	23269
861.653	22527
861.786	22485
861.918	22508
862.05	22508
862.183	22588
862.315	22596
862.447	22668
862.58	22641
862.712	22417
862.844	22295
862.976	22367
863.108	22504
863.24	22763
863.372	22181
863.504	22261
863.636	22341
863.768	22318
863.9	22356
864.032	22188
864.164	22246
864.296	22284
864.428	22523
864.559	22466
864.691	22402
864.823	22348
864.954	22295
865.086	22303
865.217	22238
865.349	22204
865.48	22169
865.612	22246
865.743	22386
865.875	22246
866.006	22124
866.137	22078
866.269	22093
866.4	22181
866.531	22230
866.662	22196
866.793	22166
866.924	22074
867.055	22211
867.186	22234
867.317	22048
867.448	22150
867.579	22154
867.71	22078
867.841	22002
867.972	22169
868.103	22090
868.233	22135
868.364	22055
868.495	22185
868.625	22375
868.756	22474
868.886	22272
869.017	22440
869.147	22443
869.278	22512
869.408	22375
869.539	22314
869.669	22440
869.799	22577
869.929	22447
870.06	22421
870.19	22729
870.32	22721
870.45	22763
870.58	22710
870.71	22805
870.84	22908
870.97	22668
871.1	22771
871.23	22976
871.36	23014
871.489	22816
871.619	22854
871.749	22919
871.879	22965
872.008	22999
872.138	22892
872.267	22957
872.397	22831
872.526	22824
872.656	22923
872.785	22831
872.915	23067
873.044	23048
873.173	23044
873.303	23067
873.432	22976
873.561	23052
873.69	23079
873.819	22991
873.948	23060
874.077	23044
874.206	22991
874.335	22919
874.464	23121
874.593	23280
874.722	23117
874.851	23212
874.979	23216
875.108	23174
875.237	23258
875.365	23071
875.494	23083
875.623	23189
875.751	23094
875.88	23121
876.008	23223
876.136	23402
876.265	23581
876.393	23676
876.521	23634
876.65	23745
876.778	23581
876.906	23554
877.034	23512
877.162	23577
877.29	23444
877.418	23531
877.546	23566
877.674	23524
877.802	23558
877.93	23474
878.058	23539
878.185	23334
878.313	23562
878.441	23512
878.568	23303
878.696	23410
878.824	23482
878.951	23680
879.079	23718
879.206	23821
879.333	23733
879.461	23551
879.588	23687
879.715	23646
879.842	23775
879.97	23646
880.097	23326
880.224	23398
880.351	23379
880.478	23311
880.605	23227
880.732	23356
880.859	23619
880.986	23391
881.112	23398
881.239	23204
881.366	23083
881.493	23010
881.619	22919
881.746	22995
881.872	22991
881.999	22854
882.125	22953
882.252	22908
882.378	22831
882.505	22862
882.631	22748
882.757	22615
882.883	22717
883.01	22577
883.136	22436
883.262	22512
883.388	22382
883.514	22683
883.64	22645
883.766	22504
883.892	22462
884.018	22280
884.143	22508
884.269	22550
884.395	22348
884.52	22150
884.646	22226
884.772	22048
884.897	22067
885.023	22158
885.148	22325
885.274	22390
885.399	22382
885.524	22238
885.65	22284
885.775	22246
885.9	22147
886.025	22211
886.15	22318
886.275	22139
886.4	22082
886.525	22147
886.65	22169
886.775	22112
886.9	22280
887.025	22360
887.149	22230
887.274	21972
887.399	21953
887.523	21979
887.648	21915
887.773	21991
887.897	22131
888.021	21987
888.146	21876
888.27	21994
888.395	21964
888.519	22013
888.643	22109
888.767	21895
888.891	21785
889.015	21838
889.139	21888
889.263	21816
889.387	21880
889.511	21960
889.635	21911
889.759	21766
889.883	21747
890.006	21766
890.13	21812
890.254	21690
890.377	21633
890.501	21504
890.624	21462
890.748	21481
890.871	21412
890.995	21252
891.118	21154
891.241	21302
891.364	21393
891.488	21359
891.611	21386
891.734	21393
891.857	21416
891.98	21302
892.103	21310
892.226	21313
892.349	21287
892.471	21173
892.594	21214
892.717	21313
892.839	21203
892.962	21176
893.085	21287
893.207	21157
893.33	21074
893.452	21089
893.575	21199
893.697	21077
893.819	21321
893.941	21363
894.064	21264
894.186	21077
894.308	21093
894.43	21195
894.552	21279
894.674	21306
894.796	21173
894.918	21108
895.04	21123
895.161	21313
895.283	21195
895.405	21013
895.526	21093
895.648	21055
895.769	21173
895.891	21161
896.012	21218
896.134	21211
896.255	21161
896.376	21230
896.498	21173
896.619	21116
896.74	21192
896.861	21256
896.982	21485
897.103	21637
897.224	21568
897.345	21408
897.466	21310
897.587	21473
897.708	21572
897.828	21317
897.949	21268
898.07	21100
898.19	21291
898.311	21458
898.431	21329
898.552	21329
898.672	21393
898.792	21443
898.913	21389
899.033	21260
899.153	21211
899.273	21074
899.393	21089
899.513	21188
899.633	21051
899.753	21173
899.873	21047
899.993	21116
900.113	21074
900.232	21039
900.352	21089
900.472	20861
900.591	20834
900.711	20910
900.83	20819
900.95	20929
901.069	21043
901.189	20682
901.308	20518
901.427	20404
901.546	20465
901.665	20457
901.784	20469
901.904	20366
902.023	20176
902.141	20126
902.26	19970
902.379	19925
902.498	19868
902.617	19951
902.735	20020
902.854	19909
902.973	19906
903.091	19628
903.21	19590
903.328	19563
903.446	19441
903.565	19388
903.683	19392
903.801	19331
903.919	19354
904.038	19327
904.156	19202
904.274	19301
904.392	19133
904.51	19012
904.627	19065
904.745	19133
904.863	19076
904.981	19000
905.098	18837
905.216	18791
905.334	18875
905.451	18753
905.569	18806
905.686	18867
905.803	18829
905.921	18563
906.038	18791
906.155	18597
906.272	18532
906.389	18410
906.506	18353
906.623	18315
906.74	18251
906.857	18186
906.974	18194
907.091	18369
907.208	18426
907.324	18327
907.441	18194
907.557	18182
907.674	18087
907.79	18003
907.907	17973
908.023	17950
908.139	18057
908.256	17885
908.372	17980
908.488	17866
908.604	17786
908.72	17794
908.836	17684
908.952	17802
909.068	17859
909.184	17809
909.3	17802
909.415	17733
909.531	17760
909.647	17410
909.762	17516
909.878	17368
909.993	17311
910.108	17353
910.224	17364
910.339	17433
910.454	17311
910.57	17216
910.685	17250
910.8	17459
910.915	17360
911.03	17212
911.145	16984
911.259	17067
911.374	16976
911.489	16877
911.604	16915
911.718	16702
911.833	16820
911.947	16717
912.062	16500
912.176	16702
912.291	16790
912.405	16797
912.519	17067
912.633	17014
912.748	16771
912.862	16801
912.976	16615
913.09	16421
913.204	16558
913.318	16584
913.431	16637
913.545	16569
913.659	16653
913.772	16584
913.886	16493
914	16413
914.113	16580
914.226	16508
914.34	16371
914.453	16207
914.566	16394
914.68	16253
914.793	16204
914.906	15945
915.019	16055
915.132	15865
915.245	15937
915.358	16044
915.47	15937
915.583	15838
915.696	15960
915.809	16051
915.921	16044
916.034	15926
916.146	15888
916.259	15827
916.371	15983
916.483	16025
916.595	15778
916.708	15850
916.82	15747
916.932	15800
917.044	15743
917.156	15641
917.268	15519
917.38	15618
917.491	15603
917.603	15568
917.715	15644
917.826	15701
917.938	15534
918.049	15401
918.161	15644
918.272	15542
918.384	15606
918.495	15576
918.606	15393
918.717	15325
918.828	15412
918.939	15317
919.05	15252
919.161	15298
919.272	15108
919.383	15203
919.494	15389
919.604	15542
919.715	15260
919.826	15249
919.936	15226
920.047	15306
920.157	15283
920.267	15469
920.378	15294
920.488	15241
920.598	15416
920.708	15576
920.818	15523
920.928	15306
921.038	15595
921.148	15496
921.258	15264
921.368	15161
921.477	15085
921.587	14944
921.697	14826
921.806	15001
921.916	14868
922.025	14705
922.134	14705
922.244	14518
922.353	14693
922.462	14568
922.571	14552
922.68	14332
922.789	14317
922.898	14347
923.007	14225
923.116	14309
923.224	14229
923.333	14221
923.442	14153
923.55	14069
923.659	14126
923.767	14126
923.876	13963
923.984	14119
924.092	14024
924.201	13951
924.309	13986
924.417	13906
924.525	13875
924.633	13932
924.741	14857
924.849	13715
924.956	13830
925.064	13685
925.172	13575
925.279	13632
925.387	13537
925.494	13628
925.602	13723
925.709	13601
925.816	13597
925.924	13571
926.031	13590
926.138	13601
926.245	13624
926.352	13476
926.459	13529
926.566	13605
926.673	13430
926.779	13403
926.886	13400
926.993	13259
927.099	13240
927.206	13190
927.312	13129
927.419	13282
927.525	13209
927.631	13225
927.737	13061
927.843	13061
927.95	12947
928.056	12951
928.162	13027
928.267	12993
928.373	13689
928.479	13031
928.585	12749
928.69	12882
928.796	12977
928.901	12825
929.007	12677
929.112	12943
929.218	12802
929.323	12745
929.428	12730
929.533	12856
929.638	12673
929.743	12696
929.848	12715
929.953	12642
930.058	12509
930.163	12388
930.267	12509
930.372	12456
930.477	12304
930.581	12547
930.685	12403
930.79	12216
930.894	12296
930.998	12194
931.103	12479
931.207	11999
931.311	11889
931.415	11843
931.519	11604
931.623	11581
