Data from test_V78500241_1223.txt Node
Date: Fri Mar 25 15:50:16 CST 2022
User: usil
Spectrometer: V785-0024
Trigger mode: 0
Integration Time (sec): 4.000000E-1
Scans to average: 1
Nonlinearity correction enabled: false
Boxcar width: 0
Storing dark spectrum: false
XAxis mode: Wavelengths
Number of Pixels in Spectrum: 1024
>>>>>Begin Spectral Data<<<<<
801.071	28831
801.214	28771
801.356	28478
801.499	28489
801.641	28341
801.783	28249
801.926	28474
802.068	28310
802.211	28352
802.353	28116
802.496	28090
802.638	28078
802.78	28048
802.923	27937
803.065	27975
803.208	28036
803.35	28238
803.492	28158
803.635	28299
803.777	28063
803.919	28299
804.061	28546
804.204	28318
804.346	28188
804.488	28173
804.63	28230
804.773	28325
804.915	28234
805.057	28303
805.199	28261
805.341	28314
805.483	28401
805.626	28432
805.768	28333
805.91	28424
806.052	28493
806.194	28322
806.336	28725
806.478	28421
806.62	28424
806.762	28615
806.904	28812
807.046	28953
807.188	28938
807.33	28866
807.472	28942
807.614	28782
807.756	28881
807.898	28774
808.04	28672
808.182	28675
808.324	28930
808.465	28923
808.607	29029
808.749	29083
808.891	29391
809.033	29296
809.174	29159
809.316	29079
809.458	29102
809.6	29174
809.741	29334
809.883	29364
810.025	29398
810.166	29353
810.308	29554
810.45	29379
810.591	29379
810.733	29029
810.875	29220
811.016	29140
811.158	28885
811.299	29292
811.441	29402
811.582	29406
811.724	29235
811.865	29174
812.007	29166
812.148	29140
812.29	29242
812.431	29212
812.573	29364
812.714	29596
812.855	29684
812.997	29897
813.138	29950
813.279	29817
813.421	29653
813.562	29543
813.703	29501
813.845	29345
813.986	29098
814.127	28984
814.268	28877
814.41	28908
814.551	28767
814.692	28949
814.833	28923
814.974	28763
815.115	28984
815.256	28710
815.397	28877
815.539	28793
815.68	28637
815.821	28542
815.962	28778
816.103	28596
816.244	28622
816.385	28504
816.526	28443
816.666	28375
816.807	28154
816.948	28314
817.089	28276
817.23	28234
817.371	28074
817.512	28261
817.653	28051
817.793	28086
817.934	28246
818.075	28234
818.216	28291
818.356	28249
818.497	27991
818.638	28093
818.778	28048
818.919	27979
819.06	28147
819.2	27960
819.341	28280
819.481	28158
819.622	28356
819.762	28527
819.903	28596
820.043	28405
820.184	28303
820.324	28162
820.465	28367
820.605	28272
820.746	28226
820.886	28325
821.026	28253
821.167	28295
821.307	28341
821.447	28310
821.588	28029
821.728	27964
821.868	27842
822.008	27739
822.149	27667
822.289	27606
822.429	27564
822.569	27454
822.709	27317
822.849	27173
822.99	27173
823.13	27173
823.27	27165
823.41	26914
823.55	26826
823.69	27017
823.83	27005
823.97	27024
824.11	26830
824.25	26663
824.389	26720
824.529	26830
824.669	26944
824.809	26967
824.949	26906
825.089	27005
825.228	26845
825.368	26731
825.508	26689
825.648	26815
825.787	26853
825.927	26670
826.067	26678
826.206	26686
826.346	26830
826.485	26853
826.625	26796
826.765	26746
826.904	26705
827.044	26564
827.183	26545
827.323	26396
827.462	26461
827.601	26404
827.741	26393
827.88	26450
828.02	26328
828.159	26431
828.298	26301
828.437	26511
828.577	26393
828.716	26507
828.855	26267
828.994	26126
829.134	26172
829.273	26134
829.412	26168
829.551	26107
829.69	26016
829.829	26176
829.968	26400
830.107	26252
830.246	26161
830.385	26058
830.524	26058
830.663	25974
830.802	25871
830.941	25772
831.08	25628
831.219	25898
831.357	25674
831.496	25944
831.635	25757
831.774	25685
831.913	25575
832.051	25567
832.19	25586
832.329	25647
832.467	25624
832.606	25289
832.744	25381
832.883	25362
833.022	25346
833.16	25476
833.299	25453
833.437	25514
833.576	25609
833.714	25552
833.852	25601
833.991	25616
834.129	25426
834.267	25552
834.406	25521
834.544	25400
834.682	25449
834.821	25544
834.959	25597
835.097	25407
835.235	25468
835.373	25476
835.511	25438
835.65	25266
835.788	25297
835.926	25304
836.064	25065
836.202	25053
836.34	25213
836.478	25316
836.615	25209
836.753	25221
836.891	25441
837.029	25285
837.167	25179
837.305	25190
837.443	25145
837.58	25114
837.718	25198
837.856	25225
837.993	25107
838.131	25114
838.269	25046
838.406	25065
838.544	24992
838.681	24897
838.819	24738
838.956	24642
839.094	24582
839.231	24703
839.369	24852
839.506	25038
839.643	24745
839.781	24525
839.918	24540
840.055	24681
840.193	24604
840.33	24490
840.467	24483
840.604	24486
840.742	24650
840.879	24380
841.016	24486
841.153	24418
841.29	24593
841.427	24407
841.564	24517
841.701	24505
841.838	24426
841.975	24369
842.112	24319
842.249	24205
842.385	24330
842.522	24456
842.659	24346
842.796	24273
842.933	24334
843.069	24152
843.206	24270
843.343	24342
843.479	24254
843.616	24296
843.752	24064
843.889	24106
844.025	24159
844.162	24079
844.298	24060
844.435	23992
844.571	23897
844.708	23996
844.844	24087
844.98	24194
845.117	24121
845.253	23813
845.389	23878
845.525	23923
845.661	23931
845.798	23775
845.934	23851
846.07	23786
846.206	23687
846.342	23828
846.478	23653
846.614	23592
846.75	23379
846.886	23379
847.022	23520
847.158	23368
847.294	23478
847.429	23452
847.565	23421
847.701	23585
847.837	23204
847.972	23151
848.108	23307
848.244	23239
848.379	22999
848.515	23102
848.65	23090
848.786	23067
848.921	23003
849.057	23181
849.192	23075
849.328	23022
849.463	22980
849.598	22949
849.734	22881
849.869	22843
850.004	22881
850.14	22896
850.275	22869
850.41	22622
850.545	22820
850.68	22828
850.815	22713
850.95	22767
851.085	23025
851.22	22858
851.355	22816
851.49	22801
851.625	22896
851.76	22755
851.895	22729
852.03	22774
852.165	22706
852.299	22919
852.434	22774
852.569	22854
852.703	22866
852.838	22946
852.973	22911
853.107	23018
853.242	22778
853.376	22721
853.511	22675
853.645	22535
853.78	22820
853.914	22641
854.048	22630
854.183	22580
854.317	22546
854.451	22797
854.585	22634
854.72	22683
854.854	22653
854.988	22531
855.122	22584
855.256	22443
855.39	22649
855.524	22656
855.658	22637
855.792	22554
855.926	22649
856.06	22725
856.194	22759
856.327	22592
856.461	22546
856.595	22542
856.729	22626
856.862	22752
856.996	22500
857.13	22691
857.263	22824
857.397	22725
857.53	22634
857.664	22603
857.797	22596
857.931	22721
858.064	22733
858.197	22744
858.331	22656
858.464	22554
858.597	22512
858.731	22702
858.864	22565
858.997	22599
859.13	22656
859.263	22615
859.396	22816
859.529	22698
859.662	22489
859.795	22550
859.928	22717
860.061	22736
860.194	22771
860.327	22626
860.46	22691
860.592	22675
860.725	22725
860.858	22694
860.99	22683
861.123	22402
861.256	22493
861.388	22470
861.521	23402
861.653	22481
861.786	22428
861.918	22432
862.05	22550
862.183	22531
862.315	22592
862.447	22618
862.58	22447
862.712	22291
862.844	22333
862.976	22493
863.108	22265
863.24	22782
863.372	22322
863.504	22287
863.636	22272
863.768	22382
863.9	22318
864.032	22135
864.164	22318
864.296	22276
864.428	22527
864.559	22375
864.691	22421
864.823	22402
864.954	22299
865.086	22276
865.217	22238
865.349	22230
865.48	22226
865.612	22200
865.743	22398
865.875	22188
866.006	22268
866.137	22272
866.269	22185
866.4	22139
866.531	22207
866.662	22150
866.793	22105
866.924	22158
867.055	22093
867.186	22219
867.317	22078
867.448	22074
867.579	22074
867.71	22025
867.841	22131
867.972	22055
868.103	22158
868.233	22181
868.364	22177
868.495	22280
868.625	22310
868.756	22474
868.886	22276
869.017	22394
869.147	22500
869.278	22428
869.408	22394
869.539	22329
869.669	22478
869.799	22451
869.929	22504
870.06	22527
870.19	22675
870.32	22557
870.45	22637
870.58	22805
870.71	22797
870.84	22816
870.97	22748
871.1	22664
871.23	22934
871.36	22980
871.489	22790
871.619	22976
871.749	22839
871.879	22957
872.008	22987
872.138	23022
872.267	22896
872.397	22736
872.526	22805
872.656	22717
872.785	22816
872.915	22965
873.044	23025
873.173	22953
873.303	22934
873.432	22976
873.561	23136
873.69	23014
873.819	23041
873.948	23029
874.077	23022
874.206	22896
874.335	22946
874.464	23075
874.593	23166
874.722	23151
874.851	23307
874.979	23143
875.108	23162
875.237	23170
875.365	23029
875.494	23178
875.623	23269
875.751	23200
875.88	23231
876.008	23322
876.136	23345
876.265	23573
876.393	23832
876.521	23649
876.65	23703
876.778	23646
876.906	23478
877.034	23543
877.162	23524
877.29	23516
877.418	23630
877.546	23531
877.674	23425
877.802	23589
877.93	23459
878.058	23505
878.185	23368
878.313	23440
878.441	23493
878.568	23425
878.696	23440
878.824	23425
878.951	23653
879.079	23665
879.206	23863
879.333	23680
879.461	23452
879.588	23524
879.715	23642
879.842	23760
879.97	23627
880.097	23284
880.224	23376
880.351	23535
880.478	23303
880.605	23265
880.732	23349
880.859	23566
880.986	23273
881.112	23334
881.239	23128
881.366	22980
881.493	23010
881.619	23079
881.746	22911
881.872	22999
881.999	22881
882.125	22790
882.252	22927
882.378	22957
882.505	23071
882.631	22672
882.757	22611
882.883	22618
883.01	22531
883.136	22569
883.262	22432
883.388	22284
883.514	22675
883.64	22706
883.766	22542
883.892	22379
884.018	22352
884.143	22641
884.269	22538
884.395	22261
884.52	22177
884.646	22291
884.772	22150
884.897	22128
885.023	22299
885.148	22246
885.274	22367
885.399	22375
885.524	22207
885.65	22314
885.775	22253
885.9	22048
886.025	22314
886.15	22310
886.275	22093
886.4	22082
886.525	22086
886.65	22032
886.775	22101
886.9	22177
887.025	22382
887.149	22188
887.274	21953
887.399	21991
887.523	21930
887.648	21907
887.773	21823
887.897	22006
888.021	21899
888.146	21930
888.27	21987
888.395	22006
888.519	22002
888.643	21972
888.767	22059
888.891	21937
889.015	21953
889.139	21838
889.263	21713
889.387	21903
889.511	21903
889.635	21937
889.759	21663
889.883	21816
890.006	21698
890.13	21823
890.254	21603
890.377	21580
890.501	21481
890.624	21462
890.748	21447
890.871	21405
890.995	21298
891.118	21294
891.241	21351
891.364	21359
891.488	21325
891.611	21237
891.734	21321
891.857	21241
891.98	21317
892.103	21275
892.226	21264
892.349	21169
892.471	21089
892.594	21127
892.717	21214
892.839	21207
892.962	21203
893.085	21275
893.207	21203
893.33	21043
893.452	21165
893.575	21032
893.697	21218
893.819	21325
893.941	21435
894.064	21386
894.186	21055
894.308	21116
894.43	21252
894.552	21207
894.674	21135
894.796	21096
894.918	21211
895.04	21142
895.161	21218
895.283	21252
895.405	21165
895.526	21218
895.648	21104
895.769	21077
895.891	21157
896.012	21355
896.134	21252
896.255	21260
896.376	21161
896.498	21184
896.619	21195
896.74	21077
896.861	21188
896.982	21458
897.103	21648
897.224	21504
897.345	21241
897.466	21389
897.587	21386
897.708	21485
897.828	21359
897.949	21291
898.07	21119
898.19	21264
898.311	21310
898.431	21359
898.552	21321
898.672	21325
898.792	21393
898.913	21321
899.033	21272
899.153	21154
899.273	21039
899.393	21218
899.513	21081
899.633	21081
899.753	21024
899.873	21089
899.993	21176
900.113	21005
900.232	21096
900.352	20845
900.472	20937
900.591	20807
900.711	20921
900.83	20773
900.95	20872
901.069	20861
901.189	20743
901.308	20480
901.427	20374
901.546	20457
901.665	20442
901.784	20434
901.904	20263
902.023	20317
902.141	19894
902.26	19974
902.379	19955
902.498	20107
902.617	19928
902.735	19967
902.854	19963
902.973	19784
903.091	19529
903.21	19567
903.328	19571
903.446	19510
903.565	19312
903.683	19419
903.801	19327
903.919	19354
904.038	19282
904.156	19126
904.274	19282
904.392	19053
904.51	19133
904.627	19095
904.745	19145
904.863	19187
904.981	18916
905.098	18753
905.216	18802
905.334	18859
905.451	18871
905.569	18688
905.686	18768
905.803	18741
905.921	18559
906.038	18722
906.155	18627
906.272	18464
906.389	18528
906.506	18254
906.623	18384
906.74	18323
906.857	18182
906.974	18209
907.091	18464
907.208	18475
907.324	18399
907.441	18232
907.557	18041
907.674	18106
907.79	17969
907.907	17954
908.023	18068
908.139	18038
908.256	17946
908.372	17920
908.488	17824
908.604	17840
908.72	17699
908.836	17790
908.952	17752
909.068	17729
909.184	17813
909.3	17764
909.415	17878
909.531	17737
909.647	17463
909.762	17436
909.878	17311
909.993	17417
910.108	17414
910.224	17410
910.339	17356
910.454	17204
910.57	17284
910.685	17170
910.8	17349
910.915	17356
911.03	17151
911.145	17071
911.259	17071
911.374	17025
911.489	16972
911.604	16831
911.718	16736
911.833	16809
911.947	16713
912.062	16641
912.176	16748
912.291	16831
912.405	16790
912.519	16934
912.633	16919
912.748	16763
912.862	16744
912.976	16516
913.09	16382
913.204	16500
913.318	16588
913.431	16641
913.545	16618
913.659	16668
913.772	16512
913.886	16421
914	16329
914.113	16382
914.226	16329
914.34	16348
914.453	16207
914.566	16367
914.68	16272
914.793	16257
914.906	16063
915.019	16048
915.132	15865
915.245	15888
915.358	16029
915.47	15953
915.583	15960
915.696	15903
915.809	15987
915.921	16040
916.034	15926
916.146	15831
916.259	15804
916.371	15876
916.483	15762
916.595	15709
916.708	15762
916.82	15755
916.932	15671
917.044	15751
917.156	15606
917.268	15507
917.38	15538
917.491	15488
917.603	15568
917.715	15580
917.826	15542
917.938	15534
918.049	15408
918.161	15481
918.272	15580
918.384	15614
918.495	15420
918.606	15393
918.717	15218
918.828	15340
918.939	15325
919.05	15169
919.161	15317
919.272	15039
919.383	15043
919.494	15268
919.604	15511
919.715	15249
919.826	15142
919.936	15249
920.047	15279
920.157	15283
920.267	15348
920.378	15252
920.488	15161
920.598	15435
920.708	15561
920.818	15317
920.928	15332
921.038	15500
921.148	15420
921.258	15226
921.368	15104
921.477	15013
921.587	14994
921.697	14773
921.806	14998
921.916	14781
922.025	14667
922.134	14579
922.244	14537
922.353	14720
922.462	14377
922.571	14385
922.68	14214
922.789	14214
922.898	14233
923.007	14229
923.116	14278
923.224	14157
923.333	14176
923.442	14103
923.55	13959
923.659	14149
923.767	14130
923.876	14008
923.984	14084
924.092	13879
924.201	13947
924.309	13913
924.417	13940
924.525	13791
924.633	13917
924.741	14655
924.849	13685
924.956	13742
925.064	13693
925.172	13567
925.279	13590
925.387	13715
925.494	13624
925.602	13712
925.709	13620
925.816	13495
925.924	13518
926.031	13533
926.138	13525
926.245	13609
926.352	13434
926.459	13620
926.566	13594
926.673	13480
926.779	13350
926.886	13301
926.993	13209
927.099	13289
927.206	13156
927.312	13133
927.419	13137
927.525	13076
927.631	13175
927.737	13122
927.843	13126
927.95	12840
928.056	12962
928.162	12951
928.267	12962
928.373	13578
928.479	13114
928.585	12772
928.69	12935
928.796	12973
928.901	12833
929.007	12726
929.112	12768
929.218	12776
929.323	12616
929.428	12688
929.533	12852
929.638	12574
929.743	12593
929.848	12616
929.953	12597
930.058	12532
930.163	12365
930.267	12399
930.372	12563
930.477	12285
930.581	12597
930.685	12300
930.79	12262
930.894	12266
930.998	12194
931.103	12235
931.207	11965
931.311	11866
931.415	11790
931.519	11642
931.623	11505
