Data from test_V78500241_923.txt Node
Date: Fri Mar 25 15:48:11 CST 2022
User: usil
Spectrometer: V785-0024
Trigger mode: 0
Integration Time (sec): 4.000000E-1
Scans to average: 1
Nonlinearity correction enabled: false
Boxcar width: 0
Storing dark spectrum: false
XAxis mode: Wavelengths
Number of Pixels in Spectrum: 1024
>>>>>Begin Spectral Data<<<<<
801.071	27751
801.214	27743
801.356	27389
801.499	27382
801.641	27146
801.783	27370
801.926	27344
802.068	27252
802.211	27165
802.353	27222
802.496	26952
802.638	26944
802.78	27047
802.923	26971
803.065	26834
803.208	26834
803.35	26830
803.492	26857
803.635	27055
803.777	26929
803.919	27085
804.061	27302
804.204	27116
804.346	27020
804.488	26876
804.63	27028
804.773	26998
804.915	27123
805.057	27157
805.199	27020
805.341	27245
805.483	27252
805.626	27169
805.768	27188
805.91	27169
806.052	27169
806.194	27096
806.336	27370
806.478	27298
806.62	27214
806.762	27412
806.904	27580
807.046	27622
807.188	27713
807.33	27682
807.472	27717
807.614	27530
807.756	27610
807.898	27481
808.04	27492
808.182	27348
808.324	27652
808.465	27694
808.607	27686
808.749	27884
808.891	27793
809.033	27991
809.174	27949
809.316	27785
809.458	27899
809.6	27907
809.741	27934
809.883	28185
810.025	28116
810.166	28124
810.308	28234
810.45	28128
810.591	28044
810.733	27960
810.875	27861
811.016	27686
811.158	27793
811.299	27964
811.441	28150
811.582	28051
811.724	27914
811.865	27800
812.007	27880
812.148	27838
812.29	27899
812.431	28010
812.573	28287
812.714	28192
812.855	28428
812.997	28382
813.138	28641
813.279	28645
813.421	28428
813.562	28379
813.703	28204
813.845	28226
813.986	27781
814.127	27724
814.268	27629
814.41	27538
814.551	27431
814.692	27469
814.833	27431
814.974	27462
815.115	27542
815.256	27264
815.397	27481
815.539	27393
815.68	27283
815.821	27272
815.962	27306
816.103	27313
816.244	27252
816.385	27241
816.526	27184
816.666	26971
816.807	26823
816.948	26921
817.089	26918
817.23	26861
817.371	26834
817.512	26861
817.653	26830
817.793	26769
817.934	26956
818.075	26815
818.216	26864
818.356	26724
818.497	26670
818.638	26511
818.778	26575
818.919	26697
819.06	26644
819.2	26644
819.341	26830
819.481	26777
819.622	26990
819.762	27123
819.903	27096
820.043	27024
820.184	26895
820.324	26872
820.465	27112
820.605	26891
820.746	26902
820.886	26712
821.026	26925
821.167	26891
821.307	26899
821.447	26868
821.588	26769
821.728	26533
821.868	26518
822.008	26412
822.149	26267
822.289	26290
822.429	26005
822.569	26069
822.709	26043
822.849	25811
822.99	25818
823.13	25795
823.27	25734
823.41	25693
823.55	25590
823.69	25826
823.83	25582
823.97	25632
824.11	25506
824.25	25563
824.389	25479
824.529	25578
824.669	25415
824.809	25559
824.949	25689
825.089	25518
825.228	25411
825.368	25373
825.508	25274
825.648	25228
825.787	25190
825.927	25358
826.067	25464
826.206	25263
826.346	25422
826.485	25487
826.625	25282
826.765	25430
826.904	25403
827.044	25228
827.183	25168
827.323	25031
827.462	25160
827.601	25034
827.741	24962
827.88	25179
828.02	25053
828.159	25019
828.298	25145
828.437	25126
828.577	25012
828.716	25274
828.855	24954
828.994	24882
829.134	24768
829.273	24856
829.412	24703
829.551	24684
829.69	24776
829.829	24753
829.968	24882
830.107	24867
830.246	24779
830.385	24764
830.524	24642
830.663	24601
830.802	24475
830.941	24372
831.08	24369
831.219	24426
831.357	24376
831.496	24582
831.635	24300
831.774	24365
831.913	24300
832.051	24273
832.19	24098
832.329	24285
832.467	24121
832.606	23992
832.744	24011
832.883	24091
833.022	24057
833.16	24174
833.299	24057
833.437	24095
833.576	24060
833.714	24281
833.852	24258
833.991	24182
834.129	24152
834.267	24273
834.406	24095
834.544	24194
834.682	24190
834.821	24140
834.959	24334
835.097	24102
835.235	24163
835.373	24133
835.511	24060
835.65	23885
835.788	23946
835.926	23718
836.064	23794
836.202	23718
836.34	24087
836.478	24197
836.615	23885
836.753	23920
836.891	23942
837.029	23946
837.167	23855
837.305	23874
837.443	23752
837.58	23726
837.718	23866
837.856	23783
837.993	23691
838.131	23680
838.269	23562
838.406	23676
838.544	23581
838.681	23570
838.819	23516
838.956	23235
839.094	23299
839.231	23273
839.369	23379
839.506	23699
839.643	23634
839.781	23284
839.918	23231
840.055	23239
840.193	23132
840.33	23258
840.467	23151
840.604	23216
840.742	23452
840.879	23014
841.016	23204
841.153	23029
841.29	23307
841.427	23105
841.564	23208
841.701	23060
841.838	23029
841.975	23071
842.112	23109
842.249	23025
842.385	22949
842.522	23204
842.659	23136
842.796	22957
842.933	22873
843.069	22824
843.206	22858
843.343	22919
843.479	23044
843.616	22881
843.752	22683
843.889	22698
844.025	22843
844.162	22725
844.298	22923
844.435	22687
844.571	22729
844.708	22736
844.844	22816
844.98	22778
845.117	22934
845.253	22668
845.389	22527
845.525	22542
845.661	22550
845.798	22386
845.934	22478
846.07	22447
846.206	22466
846.342	22504
846.478	22333
846.614	22204
846.75	22234
846.886	22101
847.022	22242
847.158	22211
847.294	22162
847.429	22299
847.565	21987
847.701	22405
847.837	21937
847.972	21838
848.108	22017
848.244	22010
848.379	21679
848.515	21717
848.65	21747
848.786	21747
848.921	21713
849.057	21838
849.192	21785
849.328	21816
849.463	21812
849.598	21671
849.734	21614
849.869	21622
850.004	21420
850.14	21549
850.275	21564
850.41	21530
850.545	21351
850.68	21549
850.815	21625
850.95	21519
851.085	21637
851.22	21534
851.355	21599
851.49	21435
851.625	21534
851.76	21382
851.895	21492
852.03	21401
852.165	21416
852.299	21534
852.434	21618
852.569	21504
852.703	21534
852.838	21553
852.973	21686
853.107	21580
853.242	21473
853.376	21424
853.511	21302
853.645	21294
853.78	21351
853.914	21420
854.048	21340
854.183	21245
854.317	21344
854.451	21545
854.585	21245
854.72	21393
854.854	21492
854.988	21245
855.122	21340
855.256	21230
855.39	21321
855.524	21424
855.658	21431
855.792	21416
855.926	21405
856.06	21340
856.194	21477
856.327	21348
856.461	21214
856.595	21157
856.729	21249
856.862	21336
856.996	21378
857.13	21401
857.263	21325
857.397	21466
857.53	21386
857.664	21272
857.797	21420
857.931	21462
858.064	21351
858.197	21519
858.331	21325
858.464	21344
858.597	21252
858.731	21260
858.864	21249
858.997	21241
859.13	21260
859.263	21249
859.396	21378
859.529	21241
859.662	21233
859.795	21279
859.928	21298
860.061	21428
860.194	21610
860.327	21439
860.46	21226
860.592	21424
860.725	21462
860.858	21504
860.99	21287
861.123	21344
861.256	21245
861.388	21302
861.521	22025
861.653	21214
861.786	21195
861.918	21108
862.05	21252
862.183	21340
862.315	21264
862.447	21393
862.58	21176
862.712	20937
862.844	21013
862.976	21100
863.108	21264
863.24	21325
863.372	20960
863.504	21043
863.636	21032
863.768	20979
863.9	21028
864.032	21028
864.164	20998
864.296	21066
864.428	21089
864.559	21070
864.691	21150
864.823	21020
864.954	20990
865.086	20982
865.217	20975
865.349	21017
865.48	21119
865.612	20986
865.743	21043
865.875	21070
866.006	20948
866.137	20941
866.269	20998
866.4	20963
866.531	20887
866.662	20792
866.793	20933
866.924	20872
867.055	20937
867.186	20944
867.317	20883
867.448	20804
867.579	20921
867.71	20944
867.841	20876
867.972	20830
868.103	20819
868.233	20883
868.364	20914
868.495	20941
868.625	21047
868.756	21131
868.886	21036
869.017	21211
869.147	21157
869.278	21123
869.408	21169
869.539	21116
869.669	21203
869.799	21165
869.929	21226
870.06	21180
870.19	21511
870.32	21332
870.45	21424
870.58	21481
870.71	21603
870.84	21633
870.97	21542
871.1	21504
871.23	21679
871.36	21751
871.489	21625
871.619	21701
871.749	21785
871.879	21785
872.008	21888
872.138	21713
872.267	21709
872.397	21542
872.526	21504
872.656	21545
872.785	21549
872.915	21701
873.044	21747
873.173	21770
873.303	21698
873.432	21720
873.561	21937
873.69	21736
873.819	21694
873.948	21770
874.077	21728
874.206	21694
874.335	21595
874.464	21774
874.593	22048
874.722	21964
874.851	22006
874.979	21983
875.108	21972
875.237	21930
875.365	21797
875.494	21865
875.623	22070
875.751	21987
875.88	21953
876.008	22017
876.136	22295
876.265	22375
876.393	22398
876.521	22333
876.65	22398
876.778	22341
876.906	22440
877.034	22348
877.162	22253
877.29	22268
877.418	22394
877.546	22341
877.674	22390
877.802	22185
877.93	22325
878.058	22246
878.185	22169
878.313	22284
878.441	22280
878.568	22162
878.696	22291
878.824	22318
878.951	22428
879.079	22394
879.206	22664
879.333	22390
879.461	22375
879.588	22436
879.715	22428
879.842	22447
879.97	22356
880.097	22097
880.224	22204
880.351	22192
880.478	22169
880.605	22093
880.732	22173
880.859	22447
880.986	22063
881.112	22139
881.239	21945
881.366	21857
881.493	21637
881.619	21644
881.746	21732
881.872	21625
881.999	21618
882.125	21610
882.252	21698
882.378	21679
882.505	21759
882.631	21637
882.757	21462
882.883	21454
883.01	21348
883.136	21351
883.262	21348
883.388	21203
883.514	21359
883.64	21462
883.766	21260
883.892	21169
884.018	21203
884.143	21382
884.269	21393
884.395	21142
884.52	21036
884.646	21017
884.772	20925
884.897	20918
885.023	20986
885.148	21116
885.274	21112
885.399	21028
885.524	20990
885.65	21074
885.775	20998
885.9	21001
886.025	21199
886.15	21116
886.275	21020
886.4	20929
886.525	20979
886.65	20895
886.775	20998
886.9	21081
887.025	21298
887.149	20925
887.274	20804
887.399	20769
887.523	20769
887.648	20682
887.773	20746
887.897	20800
888.021	20868
888.146	20834
888.27	20796
888.395	20918
888.519	20960
888.643	20834
888.767	20872
888.891	20758
889.015	20640
889.139	20651
889.263	20530
889.387	20670
889.511	20750
889.635	20773
889.759	20625
889.883	20587
890.006	20655
890.13	20689
890.254	20613
890.377	20511
890.501	20362
890.624	20278
890.748	20446
890.871	20278
890.995	20157
891.118	20046
891.241	20225
891.364	20210
891.488	20320
891.611	20309
891.734	20168
891.857	20256
891.98	20084
892.103	20122
892.226	20202
892.349	20092
892.471	19989
892.594	20164
892.717	20244
892.839	20092
892.962	20134
893.085	20240
893.207	20119
893.33	20012
893.452	20020
893.575	20142
893.697	20096
893.819	20218
893.941	20305
894.064	20161
894.186	20027
894.308	19925
894.43	20187
894.552	20252
894.674	20259
894.796	20012
894.918	20115
895.04	20077
895.161	20096
895.283	20039
895.405	20058
895.526	20157
895.648	20126
895.769	20244
895.891	20065
896.012	20259
896.134	20218
896.255	20103
896.376	20122
896.498	20096
896.619	20073
896.74	20035
896.861	20092
896.982	20446
897.103	20598
897.224	20377
897.345	20374
897.466	20248
897.587	20317
897.708	20507
897.828	20294
897.949	20370
898.07	20221
898.19	20248
898.311	20286
898.431	20320
898.552	20438
898.672	20446
898.792	20275
898.913	20286
899.033	20248
899.153	20210
899.273	20084
899.393	19967
899.513	20050
899.633	20157
899.753	20183
899.873	20107
899.993	20172
900.113	19959
900.232	20027
900.352	20069
900.472	19898
900.591	19841
900.711	19909
900.83	19772
900.95	19826
901.069	19944
901.189	19689
901.308	19453
901.427	19396
901.546	19495
901.665	19293
901.784	19434
901.904	19327
902.023	19175
902.141	18981
902.26	18943
902.379	18985
902.498	18928
902.617	18878
902.735	18943
902.854	18947
902.973	18787
903.091	18623
903.21	18540
903.328	18601
903.446	18559
903.565	18429
903.683	18467
903.801	18330
903.919	18308
904.038	18342
904.156	18216
904.274	18300
904.392	18155
904.51	18197
904.627	18174
904.745	18258
904.863	18186
904.981	18034
905.098	17805
905.216	17912
905.334	17817
905.451	17866
905.569	17783
905.686	17832
905.803	17961
905.921	17627
906.038	17707
906.155	17657
906.272	17539
906.389	17524
906.506	17402
906.623	17433
906.74	17421
906.857	17273
906.974	17239
907.091	17433
907.208	17486
907.324	17474
907.441	17299
907.557	17128
907.674	17064
907.79	17003
907.907	17086
908.023	17220
908.139	17181
908.256	16987
908.372	17060
908.488	16965
908.604	16877
908.72	16858
908.836	16877
908.952	16786
909.068	16843
909.184	16885
909.3	16877
909.415	16805
909.531	16649
909.647	16500
909.762	16466
909.878	16519
909.993	16470
910.108	16462
910.224	16402
910.339	16546
910.454	16360
910.57	16318
910.685	16310
910.8	16561
910.915	16421
911.03	16211
911.145	16105
911.259	16105
911.374	16211
911.489	16021
911.604	16021
911.718	15789
911.833	15842
911.947	15831
912.062	15800
912.176	15846
912.291	15854
912.405	15880
912.519	15983
912.633	16048
912.748	15884
912.862	15842
912.976	15778
913.09	15595
913.204	15576
913.318	15781
913.431	15709
913.545	15717
913.659	15644
913.772	15633
913.886	15481
914	15462
914.113	15511
914.226	15656
914.34	15530
914.453	15378
914.566	15454
914.68	15424
914.793	15294
914.906	15123
915.019	15074
915.132	15051
915.245	15123
915.358	15062
915.47	15020
915.583	15074
915.696	15131
915.809	15081
915.921	15218
916.034	15100
916.146	15032
916.259	14918
916.371	15074
916.483	15077
916.595	14895
916.708	14967
916.82	14845
916.932	14902
917.044	14857
917.156	14788
917.268	14644
917.38	14724
917.491	14705
917.603	14667
917.715	14811
917.826	14769
917.938	14708
918.049	14583
918.161	14735
918.272	14861
918.384	14807
918.495	14689
918.606	14602
918.717	14469
918.828	14530
918.939	14530
919.05	14427
919.161	14450
919.272	14206
919.383	14282
919.494	14518
919.604	14716
919.715	14492
919.826	14374
919.936	14438
920.047	14602
920.157	14465
920.267	14606
920.378	14526
920.488	14332
920.598	14678
920.708	14807
920.818	14598
920.928	14682
921.038	14754
921.148	14670
921.258	14530
921.368	14446
921.477	14195
921.587	14336
921.697	14130
921.806	14062
921.916	14134
922.025	13967
922.134	13883
922.244	13780
922.353	13887
922.462	13742
922.571	13742
922.68	13514
922.789	13521
922.898	13548
923.007	13403
923.116	13384
923.224	13506
923.333	13457
923.442	13419
923.55	13324
923.659	13453
923.767	13480
923.876	13308
923.984	13396
924.092	13270
924.201	13289
924.309	13282
924.417	13270
924.525	13164
924.633	13183
924.741	14096
924.849	13004
924.956	13080
925.064	13004
925.172	12901
925.279	12913
925.387	12913
925.494	12916
925.602	13012
925.709	12977
925.816	12878
925.924	12897
926.031	12932
926.138	12852
926.245	12897
926.352	12726
926.459	12905
926.566	12916
926.673	12722
926.779	12673
926.886	12612
926.993	12509
927.099	12570
927.206	12376
927.312	12384
927.419	12559
927.525	12452
927.631	12490
927.737	12357
927.843	12330
927.95	12197
928.056	12304
928.162	12239
928.267	12350
928.373	12886
928.479	12300
928.585	12163
928.69	12171
928.796	12308
928.901	12106
929.007	12110
929.112	12216
929.218	12155
929.323	12019
929.428	12003
929.533	12106
929.638	11912
929.743	12007
929.848	11999
929.953	11965
930.058	11885
930.163	11783
930.267	11665
930.372	11809
930.477	11695
930.581	11874
930.685	11794
930.79	11638
930.894	11657
930.998	11592
931.103	11775
931.207	11383
931.311	11288
931.415	11235
931.519	10923
931.623	11025
