Data from test_V78500241_82.txt Node
Date: Fri Mar 25 15:42:22 CST 2022
User: usil
Spectrometer: V785-0024
Trigger mode: 0
Integration Time (sec): 4.000000E-1
Scans to average: 1
Nonlinearity correction enabled: false
Boxcar width: 0
Storing dark spectrum: false
XAxis mode: Wavelengths
Number of Pixels in Spectrum: 1024
>>>>>Begin Spectral Data<<<<<
801.071	30026
801.214	30018
801.356	29783
801.499	29710
801.641	29547
801.783	29657
801.926	29604
802.068	29535
802.211	29467
802.353	29326
802.496	29212
802.638	29197
802.78	29132
802.923	29064
803.065	29033
803.208	29064
803.35	29200
803.492	29330
803.635	29345
803.777	29265
803.919	29303
804.061	29802
804.204	29356
804.346	29231
804.488	29208
804.63	29220
804.773	29162
804.915	29383
805.057	29425
805.199	29113
805.341	29398
805.483	29368
805.626	29307
805.768	29326
805.91	29387
806.052	29356
806.194	29322
806.336	29672
806.478	29429
806.62	29395
806.762	29471
806.904	29619
807.046	29764
807.188	29748
807.33	29779
807.472	29794
807.614	29752
807.756	29615
807.898	29695
808.04	29611
808.182	29539
808.324	29585
808.465	29596
808.607	29779
808.749	29859
808.891	30030
809.033	30098
809.174	29969
809.316	29866
809.458	30003
809.6	29870
809.741	30030
809.883	30007
810.025	30079
810.166	30068
810.308	30110
810.45	30174
810.591	30205
810.733	29931
810.875	29988
811.016	29882
811.158	29824
811.299	30060
811.441	30076
811.582	29847
811.724	29954
811.865	29783
812.007	29821
812.148	29920
812.29	29908
812.431	30026
812.573	30098
812.714	30315
812.855	30369
812.997	30342
813.138	30627
813.279	30505
813.421	30349
813.562	30285
813.703	30327
813.845	30003
813.986	29653
814.127	29672
814.268	29535
814.41	29444
814.551	29490
814.692	29600
814.833	29516
814.974	29258
815.115	29292
815.256	29212
815.397	29299
815.539	29474
815.68	29356
815.821	29200
815.962	29311
816.103	29208
816.244	28961
816.385	28892
816.526	28915
816.666	28683
816.807	28691
816.948	28748
817.089	28649
817.23	28664
817.371	28577
817.512	28630
817.653	28508
817.793	28672
817.934	28573
818.075	28455
818.216	28519
818.356	28561
818.497	28344
818.638	28173
818.778	28394
818.919	28299
819.06	28367
819.2	28436
819.341	28573
819.481	28451
819.622	28561
819.762	28854
819.903	28622
820.043	28679
820.184	28656
820.324	28508
820.465	28679
820.605	28443
820.746	28527
820.886	28291
821.026	28546
821.167	28417
821.307	28557
821.447	28386
821.588	28276
821.728	28204
821.868	28048
822.008	27968
822.149	27994
822.289	27926
822.429	27709
822.569	27675
822.709	27591
822.849	27370
822.99	27317
823.13	27447
823.27	27386
823.41	27157
823.55	27108
823.69	27165
823.83	27173
823.97	27173
824.11	26940
824.25	26876
824.389	26986
824.529	27047
824.669	26895
824.809	27028
824.949	27070
825.089	27051
825.228	27001
825.368	26914
825.508	26735
825.648	26826
825.787	26864
825.927	26800
826.067	26781
826.206	26632
826.346	26838
826.485	26948
826.625	26781
826.765	26754
826.904	26830
827.044	26400
827.183	26374
827.323	26374
827.462	26400
827.601	26328
827.741	26347
827.88	26415
828.02	26351
828.159	26347
828.298	26336
828.437	26294
828.577	26336
828.716	26514
828.855	26343
828.994	26161
829.134	26054
829.273	26050
829.412	26081
829.551	26031
829.69	25974
829.829	26035
829.968	26065
830.107	25997
830.246	25947
830.385	26020
830.524	25772
830.663	25784
830.802	25700
830.941	25620
831.08	25483
831.219	25601
831.357	25696
831.496	25788
831.635	25605
831.774	25392
831.913	25407
832.051	25358
832.19	25362
832.329	25358
832.467	25369
832.606	25240
832.744	25198
832.883	25110
833.022	25251
833.16	25236
833.299	25301
833.437	25259
833.576	25145
833.714	25110
833.852	25381
833.991	25266
834.129	25362
834.267	25156
834.406	25194
834.544	25221
834.682	25202
834.821	25156
834.959	25403
835.097	25091
835.235	25236
835.373	25168
835.511	25137
835.65	24977
835.788	25103
835.926	24905
836.064	24730
836.202	24897
836.34	25072
836.478	25137
836.615	25160
836.753	24981
836.891	25072
837.029	24939
837.167	24939
837.305	24947
837.443	24783
837.58	24844
837.718	24833
837.856	24916
837.993	24844
838.131	24814
838.269	24692
838.406	24806
838.544	24555
838.681	24532
838.819	24505
838.956	24224
839.094	24266
839.231	24224
839.369	24429
839.506	24620
839.643	24555
839.781	24285
839.918	24072
840.055	24171
840.193	24133
840.33	24133
840.467	24171
840.604	24163
840.742	24445
840.879	24007
841.016	23958
841.153	24060
841.29	24148
841.427	24030
841.564	24129
841.701	24045
841.838	24102
841.975	23958
842.112	24018
842.249	23817
842.385	23752
842.522	24038
842.659	23859
842.796	23824
842.933	23733
843.069	23798
843.206	23604
843.343	23790
843.479	23691
843.616	23619
843.752	23471
843.889	23505
844.025	23535
844.162	23406
844.298	23646
844.435	23497
844.571	23410
844.708	23482
844.844	23566
844.98	23619
845.117	23524
845.253	23520
845.389	23379
845.525	23356
845.661	23242
845.798	23273
845.934	23337
846.07	23181
846.206	23147
846.342	23303
846.478	23246
846.614	22953
846.75	22885
846.886	22961
847.022	23018
847.158	22843
847.294	22904
847.429	22946
847.565	22835
847.701	23147
847.837	22607
847.972	22603
848.108	22672
848.244	22660
848.379	22489
848.515	22405
848.65	22386
848.786	22405
848.921	22489
849.057	22596
849.192	22440
849.328	22474
849.463	22493
849.598	22363
849.734	22299
849.869	22356
850.004	22093
850.14	22211
850.275	22192
850.41	22150
850.545	22105
850.68	22181
850.815	22219
850.95	22128
851.085	22249
851.22	22348
851.355	22192
851.49	22051
851.625	22070
851.76	22055
851.895	22078
852.03	22025
852.165	22135
852.299	22154
852.434	22215
852.569	22181
852.703	22109
852.838	22261
852.973	22291
853.107	22223
853.242	22013
853.376	22036
853.511	21842
853.645	21968
853.78	22101
853.914	21865
854.048	21953
854.183	21907
854.317	21953
854.451	22204
854.585	21941
854.72	21895
854.854	22051
854.988	21888
855.122	21804
855.256	21907
855.39	21873
855.524	22074
855.658	21926
855.792	21934
855.926	22158
856.06	21953
856.194	22002
856.327	21911
856.461	21922
856.595	21876
856.729	21884
856.862	22048
856.996	22021
857.13	22017
857.263	22021
857.397	21945
857.53	21808
857.664	21895
857.797	21922
857.931	21945
858.064	21926
858.197	21994
858.331	21991
858.464	21873
858.597	21766
858.731	21827
858.864	21892
858.997	21918
859.13	21747
859.263	21975
859.396	21831
859.529	21812
859.662	21869
859.795	21816
859.928	21781
860.061	21975
860.194	22017
860.327	21857
860.46	21793
860.592	21945
860.725	21975
860.858	21915
860.99	21762
861.123	21728
861.256	21656
861.388	21899
861.521	22371
861.653	21679
861.786	21675
861.918	21648
862.05	21800
862.183	21888
862.315	21838
862.447	21922
862.58	21869
862.712	21713
862.844	21507
862.976	21530
863.108	21523
863.24	22006
863.372	21473
863.504	21447
863.636	21488
863.768	21580
863.9	21485
864.032	21397
864.164	21443
864.296	21488
864.428	21595
864.559	21553
864.691	21492
864.823	21408
864.954	21500
865.086	21458
865.217	21405
865.349	21329
865.48	21291
865.612	21325
865.743	21519
865.875	21477
866.006	21370
866.137	21424
866.269	21428
866.4	21393
866.531	21344
866.662	21355
866.793	21473
866.924	21321
867.055	21325
867.186	21294
867.317	21237
867.448	21256
867.579	21378
867.71	21306
867.841	21260
867.972	21302
868.103	21332
868.233	21378
868.364	21378
868.495	21359
868.625	21545
868.756	21625
868.886	21519
869.017	21355
869.147	21618
869.278	21770
869.408	21572
869.539	21519
869.669	21671
869.799	21561
869.929	21709
870.06	21766
870.19	21823
870.32	21762
870.45	21816
870.58	21895
870.71	22162
870.84	21987
870.97	21911
871.1	21926
871.23	22093
871.36	22154
871.489	21991
871.619	21956
871.749	22154
871.879	22219
872.008	22344
872.138	22044
872.267	22048
872.397	22135
872.526	22093
872.656	21937
872.785	21915
872.915	22188
873.044	22139
873.173	22185
873.303	22211
873.432	22173
873.561	22234
873.69	22265
873.819	22097
873.948	22139
874.077	22078
874.206	22070
874.335	22177
874.464	22303
874.593	22432
874.722	22295
874.851	22459
874.979	22310
875.108	22386
875.237	22280
875.365	22333
875.494	22348
875.623	22535
875.751	22382
875.88	22356
876.008	22618
876.136	22603
876.265	22774
876.393	22793
876.521	22839
876.65	22892
876.778	22835
876.906	22778
877.034	22630
877.162	22809
877.29	22740
877.418	22828
877.546	22835
877.674	22675
877.802	22733
877.93	22736
878.058	22683
878.185	22641
878.313	22778
878.441	22626
878.568	22588
878.696	22752
878.824	22721
878.951	22733
879.079	23064
879.206	23003
879.333	22850
879.461	22858
879.588	22858
879.715	22904
879.842	22987
879.97	22839
880.097	22588
880.224	22493
880.351	22691
880.478	22500
880.605	22592
880.732	22618
880.859	22820
880.986	22519
881.112	22554
881.239	22440
881.366	22226
881.493	22303
881.619	22249
881.746	22109
881.872	22272
881.999	22086
882.125	22120
882.252	22196
882.378	22120
882.505	22295
882.631	22078
882.757	21930
882.883	21937
883.01	21816
883.136	21899
883.262	21766
883.388	21591
883.514	21823
883.64	21915
883.766	21728
883.892	21663
884.018	21701
884.143	21656
884.269	21892
884.395	21492
884.52	21420
884.646	21507
884.772	21420
884.897	21245
885.023	21450
885.148	21660
885.274	21629
885.399	21686
885.524	21443
885.65	21431
885.775	21435
885.9	21511
886.025	21610
886.15	21538
886.275	21473
886.4	21344
886.525	21458
886.65	21317
886.775	21252
886.9	21523
887.025	21679
887.149	21496
887.274	21275
887.399	21233
887.523	21218
887.648	21214
887.773	21085
887.897	21294
888.021	21340
888.146	21176
888.27	21329
888.395	21268
888.519	21218
888.643	21188
888.767	21222
888.891	21013
889.015	20910
889.139	21062
889.263	21028
889.387	21135
889.511	21207
889.635	21062
889.759	21036
889.883	21028
890.006	21058
890.13	20975
890.254	20918
890.377	20952
890.501	20739
890.624	20655
890.748	20811
890.871	20583
890.995	20689
891.118	20438
891.241	20560
891.364	20511
891.488	20602
891.611	20541
891.734	20541
891.857	20594
891.98	20617
892.103	20518
892.226	20575
892.349	20503
892.471	20298
892.594	20530
892.717	20549
892.839	20442
892.962	20495
893.085	20511
893.207	20404
893.33	20465
893.452	20427
893.575	20412
893.697	20423
893.819	20625
893.941	20625
894.064	20484
894.186	20313
894.308	20393
894.43	20511
894.552	20583
894.674	20461
894.796	20427
894.918	20465
895.04	20438
895.161	20415
895.283	20431
895.405	20294
895.526	20412
895.648	20415
895.769	20450
895.891	20511
896.012	20625
896.134	20503
896.255	20511
896.376	20374
896.498	20606
896.619	20556
896.74	20454
896.861	20636
896.982	20864
897.103	20845
897.224	20834
897.345	20750
897.466	20705
897.587	20746
897.708	20834
897.828	20826
897.949	20670
898.07	20450
898.19	20621
898.311	20819
898.431	20629
898.552	20625
898.672	20663
898.792	20693
898.913	20602
899.033	20457
899.153	20431
899.273	20301
899.393	20370
899.513	20408
899.633	20320
899.753	20336
899.873	20176
899.993	20381
900.113	20233
900.232	20180
900.352	20317
900.472	20225
900.591	20020
900.711	20172
900.83	20012
900.95	20313
901.069	20313
901.189	19944
901.308	19814
901.427	19769
901.546	19719
901.665	19693
901.784	19609
901.904	19613
902.023	19499
902.141	19293
902.26	19171
902.379	19407
902.498	19183
902.617	19232
902.735	19259
902.854	19152
902.973	19019
903.091	18878
903.21	18954
903.328	19000
903.446	18726
903.565	18749
903.683	18601
903.801	18532
903.919	18547
904.038	18673
904.156	18426
904.274	18498
904.392	18384
904.51	18361
904.627	18429
904.745	18342
904.863	18456
904.981	18178
905.098	18091
905.216	18060
905.334	18098
905.451	18072
905.569	18117
905.686	18053
905.803	18140
905.921	17813
906.038	17973
906.155	17901
906.272	17695
906.389	17779
906.506	17657
906.623	17516
906.74	17623
906.857	17497
906.974	17478
907.091	17642
907.208	17577
907.324	17592
907.441	17455
907.557	17284
907.674	17345
907.79	17185
907.907	17284
908.023	17341
908.139	17318
908.256	17288
908.372	17181
908.488	17022
908.604	17006
908.72	17033
908.836	17041
908.952	16915
909.068	16911
909.184	17029
909.3	16850
909.415	16999
909.531	16854
909.647	16664
909.762	16607
909.878	16599
909.993	16687
910.108	16561
910.224	16584
910.339	16561
910.454	16443
910.57	16428
910.685	16413
910.8	16577
910.915	16500
911.03	16417
911.145	16234
911.259	16265
911.374	16185
911.489	16116
911.604	16093
911.718	15937
911.833	15979
911.947	15998
912.062	15865
912.176	15964
912.291	16017
912.405	16044
912.519	16150
912.633	16124
912.748	15934
912.862	15922
912.976	15751
913.09	15553
913.204	15705
913.318	15785
913.431	15739
913.545	15846
913.659	15709
913.772	15709
913.886	15587
914	15545
914.113	15599
914.226	15622
914.34	15622
914.453	15439
914.566	15500
914.68	15389
914.793	15363
914.906	15184
915.019	15150
915.132	15104
915.245	15081
915.358	15195
915.47	15081
915.583	15222
915.696	15150
915.809	15241
915.921	15374
916.034	15165
916.146	15013
916.259	14971
916.371	15093
916.483	15161
916.595	14982
916.708	14933
916.82	14937
916.932	14956
917.044	15047
917.156	14872
917.268	14918
917.38	14872
917.491	14716
917.603	14697
917.715	14880
917.826	14864
917.938	14823
918.049	14659
918.161	14754
918.272	14883
918.384	14861
918.495	14644
918.606	14667
918.717	14415
918.828	14526
918.939	14689
919.05	14476
919.161	14530
919.272	14153
919.383	14362
919.494	14541
919.604	14800
919.715	14473
919.826	14446
919.936	14522
920.047	14503
920.157	14423
920.267	14735
920.378	14450
920.488	14434
920.598	14606
920.708	14743
920.818	14579
920.928	14583
921.038	14743
921.148	14701
921.258	14347
921.368	14271
921.477	14172
921.587	14134
921.697	14001
921.806	14286
921.916	14058
922.025	13837
922.134	13822
922.244	13871
922.353	13833
922.462	13712
922.571	13639
922.68	13525
922.789	13468
922.898	13544
923.007	13407
923.116	13434
923.224	13422
923.333	13335
923.442	13206
923.55	13274
923.659	13308
923.767	13324
923.876	13179
923.984	13266
924.092	13156
924.201	13202
924.309	13213
924.417	13149
924.525	13107
924.633	13088
924.741	13932
924.849	12905
924.956	13072
925.064	12897
925.172	12772
925.279	12825
925.387	12924
925.494	12901
925.602	12993
925.709	12905
925.816	12779
925.924	12783
926.031	12966
926.138	12810
926.245	12852
926.352	12711
926.459	12833
926.566	12863
926.673	12707
926.779	12555
926.886	12612
926.993	12448
927.099	12429
927.206	12407
927.312	12429
927.419	12422
927.525	12384
927.631	12498
927.737	12292
927.843	12129
927.95	12171
928.056	12194
928.162	12346
928.267	12342
928.373	12890
928.479	12403
928.585	12098
928.69	12182
928.796	12224
928.901	12129
929.007	11958
929.112	12083
929.218	12102
929.323	12015
929.428	12015
929.533	12076
929.638	11969
929.743	11889
929.848	11916
929.953	11984
930.058	11779
930.163	11615
930.267	11714
930.372	11764
930.477	11638
930.581	11779
930.685	11680
930.79	11558
930.894	11558
930.998	11585
931.103	11657
931.207	11322
931.311	11254
931.415	11121
931.519	10934
931.623	10835
