Data from test_V78500241_2958.txt Node
Date: Fri Mar 25 16:02:17 CST 2022
User: usil
Spectrometer: V785-0024
Trigger mode: 0
Integration Time (sec): 4.000000E-1
Scans to average: 1
Nonlinearity correction enabled: false
Boxcar width: 0
Storing dark spectrum: false
XAxis mode: Wavelengths
Number of Pixels in Spectrum: 1024
>>>>>Begin Spectral Data<<<<<
801.071	28809
801.214	28759
801.356	28634
801.499	28607
801.641	28409
801.783	28421
801.926	28493
802.068	28390
802.211	28337
802.353	28337
802.496	28192
802.638	28017
802.78	28124
802.923	28139
803.065	28055
803.208	28078
803.35	28234
803.492	28090
803.635	28276
803.777	28162
803.919	28405
804.061	28740
804.204	28417
804.346	28223
804.488	28352
804.63	28352
804.773	28192
804.915	28455
805.057	28489
805.199	28363
805.341	28470
805.483	28485
805.626	28413
805.768	28424
805.91	28455
806.052	28691
806.194	28394
806.336	28683
806.478	28622
806.62	28405
806.762	28679
806.904	28869
807.046	29086
807.188	28957
807.33	29025
807.472	29033
807.614	28908
807.756	28980
807.898	28843
808.04	28809
808.182	28767
808.324	28767
808.465	28946
808.607	29014
808.749	29273
808.891	29318
809.033	29497
809.174	29280
809.316	29227
809.458	29162
809.6	29208
809.741	29315
809.883	29299
810.025	29516
810.166	29524
810.308	29551
810.45	29505
810.591	29410
810.733	29482
810.875	29231
811.016	29162
811.158	29098
811.299	29334
811.441	29410
811.582	29379
811.724	29208
811.865	29299
812.007	29227
812.148	29265
812.29	29318
812.431	29486
812.573	29482
812.714	29577
812.855	29687
812.997	29847
813.138	30011
813.279	29794
813.421	29786
813.562	29653
813.703	29619
813.845	29353
813.986	29200
814.127	28965
814.268	29006
814.41	29090
814.551	28957
814.692	29067
814.833	28968
814.974	28888
815.115	29079
815.256	28725
815.397	28687
815.539	28763
815.68	28793
815.821	28740
815.962	28721
816.103	28858
816.244	28550
816.385	28565
816.526	28508
816.666	28322
816.807	28295
816.948	28226
817.089	28356
817.23	28314
817.371	28272
817.512	28325
817.653	28295
817.793	28109
817.934	28242
818.075	28284
818.216	28253
818.356	28291
818.497	28154
818.638	27945
818.778	27991
818.919	27926
819.06	28112
819.2	28200
819.341	28268
819.481	28272
819.622	28310
819.762	28649
819.903	28577
820.043	28280
820.184	28504
820.324	28436
820.465	28474
820.605	28508
820.746	28432
820.886	28303
821.026	28333
821.167	28257
821.307	28363
821.447	28215
821.588	28268
821.728	28173
821.868	28013
822.008	27739
822.149	27720
822.289	27622
822.429	27492
822.569	27443
822.709	27485
822.849	27264
822.99	27287
823.13	27211
823.27	27256
823.41	27233
823.55	27058
823.69	27135
823.83	27112
823.97	27127
824.11	26891
824.25	26838
824.389	26804
824.529	27104
824.669	26853
824.809	27001
824.949	27051
825.089	27043
825.228	26857
825.368	26682
825.508	26705
825.648	26861
825.787	26880
825.927	26960
826.067	26792
826.206	26857
826.346	26815
826.485	26880
826.625	26868
826.765	26807
826.904	26861
827.044	26583
827.183	26670
827.323	26533
827.462	26488
827.601	26609
827.741	26511
827.88	26571
828.02	26446
828.159	26522
828.298	26492
828.437	26632
828.577	26655
828.716	26613
828.855	26473
828.994	26214
829.134	26305
829.273	26275
829.412	26221
829.551	26050
829.69	26271
829.829	26290
829.968	26332
830.107	26339
830.246	26275
830.385	26157
830.524	26145
830.663	26092
830.802	25963
830.941	25868
831.08	25925
831.219	25982
831.357	25849
831.496	25890
831.635	25753
831.774	25791
831.913	25719
832.051	25571
832.19	25628
832.329	25586
832.467	25533
832.606	25556
832.744	25445
832.883	25594
833.022	25346
833.16	25563
833.299	25479
833.437	25540
833.576	25742
833.714	25597
833.852	25582
833.991	25582
834.129	25590
834.267	25670
834.406	25594
834.544	25620
834.682	25662
834.821	25582
834.959	25746
835.097	25575
835.235	25655
835.373	25537
835.511	25628
835.65	25499
835.788	25407
835.926	25377
836.064	25206
836.202	25316
836.34	25445
836.478	25362
836.615	25403
836.753	25403
836.891	25411
837.029	25491
837.167	25255
837.305	25354
837.443	25274
837.58	25198
837.718	25282
837.856	25369
837.993	25202
838.131	25274
838.269	25076
838.406	25038
838.544	25061
838.681	24825
838.819	24779
838.956	24661
839.094	24597
839.231	24779
839.369	24840
839.506	25099
839.643	24985
839.781	24772
839.918	24696
840.055	24642
840.193	24673
840.33	24525
840.467	24703
840.604	24772
840.742	24894
840.879	24353
841.016	24517
841.153	24388
841.29	24688
841.427	24589
841.564	24547
841.701	24677
841.838	24547
841.975	24486
842.112	24509
842.249	24399
842.385	24296
842.522	24559
842.659	24399
842.796	24399
842.933	24395
843.069	24292
843.206	24292
843.343	24429
843.479	24319
843.616	24304
843.752	24087
843.889	24148
844.025	24235
844.162	24167
844.298	24186
844.435	24087
844.571	23992
844.708	24190
844.844	24353
844.98	24243
845.117	24076
845.253	23999
845.389	24049
845.525	23980
845.661	23939
845.798	23840
845.934	23942
846.07	23950
846.206	23843
846.342	23961
846.478	23859
846.614	23729
846.75	23497
846.886	23505
847.022	23684
847.158	23634
847.294	23672
847.429	23630
847.565	23535
847.701	23851
847.837	23273
847.972	23258
848.108	23417
848.244	23356
848.379	23174
848.515	23113
848.65	23128
848.786	23136
848.921	23193
849.057	23273
849.192	23235
849.328	23235
849.463	23079
849.598	23056
849.734	22995
849.869	23018
850.004	22889
850.14	23010
850.275	22976
850.41	22866
850.545	22831
850.68	22987
850.815	23010
850.95	22862
851.085	23159
851.22	23170
851.355	22968
851.49	22911
851.625	23006
851.76	22908
851.895	22942
852.03	22767
852.165	22885
852.299	22923
852.434	23067
852.569	23022
852.703	22873
852.838	23029
852.973	23121
853.107	23022
853.242	22866
853.376	22748
853.511	22736
853.645	22733
853.78	22862
853.914	22881
854.048	22763
854.183	22721
854.317	22691
854.451	22976
854.585	22862
854.72	22752
854.854	22774
854.988	22713
855.122	22858
855.256	22729
855.39	22706
855.524	22771
855.658	22774
855.792	22763
855.926	22717
856.06	22683
856.194	22866
856.327	22656
856.461	22748
856.595	22618
856.729	22656
856.862	22900
856.996	22774
857.13	22801
857.263	22889
857.397	22873
857.53	22675
857.664	22801
857.797	22797
857.931	22892
858.064	22748
858.197	22759
858.331	22694
858.464	22634
858.597	22599
858.731	22645
858.864	22557
858.997	22672
859.13	22869
859.263	22721
859.396	22790
859.529	22710
859.662	22656
859.795	22706
859.928	22729
860.061	22854
860.194	22984
860.327	22767
860.46	22854
860.592	22820
860.725	22927
860.858	22919
860.99	22774
861.123	22622
861.256	22713
861.388	22778
861.521	23471
861.653	22603
861.786	22489
861.918	22554
862.05	22675
862.183	22672
862.315	22725
862.447	22694
862.58	22538
862.712	22470
862.844	22459
862.976	22577
863.108	22550
863.24	22991
863.372	22386
863.504	22440
863.636	22318
863.768	22390
863.9	22512
864.032	22402
864.164	22470
864.296	22462
864.428	22550
864.559	22470
864.691	22542
864.823	22451
864.954	22318
865.086	22455
865.217	22226
865.349	22291
865.48	22333
865.612	22238
865.743	22402
865.875	22390
866.006	22295
866.137	22284
866.269	22246
866.4	22242
866.531	22238
866.662	22234
866.793	22246
866.924	22291
867.055	22284
867.186	22238
867.317	22276
867.448	22063
867.579	22154
867.71	22185
867.841	22150
867.972	22314
868.103	22204
868.233	22299
868.364	22185
868.495	22344
868.625	22447
868.756	22504
868.886	22443
869.017	22550
869.147	22580
869.278	22474
869.408	22470
869.539	22428
869.669	22634
869.799	22554
869.929	22660
870.06	22634
870.19	22725
870.32	22771
870.45	22767
870.58	22896
870.71	23018
870.84	22991
870.97	22885
871.1	22919
871.23	22965
871.36	22938
871.489	23014
871.619	23102
871.749	22991
871.879	23105
872.008	23140
872.138	23044
872.267	23037
872.397	22987
872.526	22976
872.656	22961
872.785	23052
872.915	23094
873.044	23166
873.173	23086
873.303	23261
873.432	23178
873.561	23193
873.69	23090
873.819	23105
873.948	23132
874.077	23159
874.206	23079
874.335	23220
874.464	23109
874.593	23254
874.722	23429
874.851	23417
874.979	23406
875.108	23383
875.237	23299
875.365	23223
875.494	23269
875.623	23356
875.751	23242
875.88	23349
876.008	23406
876.136	23505
876.265	23638
876.393	23893
876.521	23805
876.65	23859
876.778	23729
876.906	23562
877.034	23680
877.162	23718
877.29	23684
877.418	23821
877.546	23729
877.674	23539
877.802	23638
877.93	23649
878.058	23653
878.185	23627
878.313	23741
878.441	23646
878.568	23531
878.696	23661
878.824	23745
878.951	23699
879.079	23847
879.206	23973
879.333	23847
879.461	23665
879.588	23729
879.715	23779
879.842	23992
879.97	23775
880.097	23577
880.224	23356
880.351	23558
880.478	23467
880.605	23265
880.732	23528
880.859	23684
880.986	23551
881.112	23524
881.239	23372
881.366	23239
881.493	23071
881.619	23193
881.746	23132
881.872	23121
881.999	22968
882.125	22934
882.252	23048
882.378	22923
882.505	23083
882.631	22854
882.757	22664
882.883	22801
883.01	22596
883.136	22725
883.262	22569
883.388	22607
883.514	22706
883.64	22831
883.766	22546
883.892	22287
884.018	22523
884.143	22683
884.269	22599
884.395	22504
884.52	22207
884.646	22363
884.772	22276
884.897	22192
885.023	22360
885.148	22409
885.274	22493
885.399	22481
885.524	22234
885.65	22447
885.775	22451
885.9	22261
886.025	22527
886.15	22375
886.275	22272
886.4	22249
886.525	22295
886.65	22230
886.775	22306
886.9	22459
887.025	22573
887.149	22303
887.274	22185
887.399	22082
887.523	21994
887.648	22048
887.773	22051
887.897	22150
888.021	22082
888.146	22128
888.27	22173
888.395	22093
888.519	22112
888.643	22105
888.767	22093
888.891	22036
889.015	21930
889.139	22025
889.263	21869
889.387	21918
889.511	22200
889.635	21979
889.759	21759
889.883	21850
890.006	21945
890.13	21892
890.254	21831
890.377	21778
890.501	21633
890.624	21583
890.748	21641
890.871	21572
890.995	21557
891.118	21374
891.241	21469
891.364	21557
891.488	21549
891.611	21439
891.734	21393
891.857	21408
891.98	21302
892.103	21477
892.226	21363
892.349	21374
892.471	21283
892.594	21260
892.717	21393
892.839	21443
892.962	21401
893.085	21313
893.207	21424
893.33	21188
893.452	21287
893.575	21363
893.697	21173
893.819	21511
893.941	21538
894.064	21412
894.186	21222
894.308	21218
894.43	21420
894.552	21386
894.674	21397
894.796	21211
894.918	21245
895.04	21252
895.161	21428
895.283	21321
895.405	21302
895.526	21131
895.648	21256
895.769	21275
895.891	21298
896.012	21355
896.134	21268
896.255	21218
896.376	21302
896.498	21241
896.619	21264
896.74	21325
896.861	21431
896.982	21587
897.103	21743
897.224	21557
897.345	21420
897.466	21424
897.587	21469
897.708	21564
897.828	21420
897.949	21359
898.07	21306
898.19	21542
898.311	21530
898.431	21321
898.552	21466
898.672	21614
898.792	21496
898.913	21504
899.033	21439
899.153	21249
899.273	21161
899.393	21233
899.513	21199
899.633	21317
899.753	21211
899.873	21108
899.993	21188
900.113	21104
900.232	21184
900.352	21127
900.472	20891
900.591	20899
900.711	20960
900.83	20963
900.95	21108
901.069	20963
901.189	20868
901.308	20625
901.427	20507
901.546	20492
901.665	20488
901.784	20530
901.904	20412
902.023	20324
902.141	20183
902.26	20054
902.379	20122
902.498	20096
902.617	20065
902.735	20115
902.854	19997
902.973	19868
903.091	19670
903.21	19765
903.328	19681
903.446	19643
903.565	19472
903.683	19571
903.801	19468
903.919	19472
904.038	19472
904.156	19259
904.274	19343
904.392	19324
904.51	19225
904.627	19266
904.745	19244
904.863	19327
904.981	19076
905.098	18989
905.216	18833
905.334	18939
905.451	18901
905.569	18829
905.686	18951
905.803	18863
905.921	18612
906.038	18760
906.155	18738
906.272	18688
906.389	18574
906.506	18525
906.623	18456
906.74	18342
906.857	18232
906.974	18209
907.091	18437
907.208	18528
907.324	18532
907.441	18357
907.557	18148
907.674	18152
907.79	18155
907.907	18011
908.023	18190
908.139	18106
908.256	18045
908.372	17973
908.488	18038
908.604	17790
908.72	17893
908.836	17901
908.952	17908
909.068	17824
909.184	17984
909.3	17847
909.415	17939
909.531	17794
909.647	17554
909.762	17478
909.878	17592
909.993	17471
910.108	17532
910.224	17471
910.339	17585
910.454	17486
910.57	17433
910.685	17273
910.8	17452
910.915	17376
911.03	17315
911.145	17090
911.259	17060
911.374	17102
911.489	17037
911.604	16968
911.718	16786
911.833	16915
911.947	16805
912.062	16710
912.176	16942
912.291	16850
912.405	16889
912.519	17022
912.633	16995
912.748	16820
912.862	16881
912.976	16653
913.09	16497
913.204	16656
913.318	16679
913.431	16786
913.545	16763
913.659	16767
913.772	16630
913.886	16489
914	16443
914.113	16554
914.226	16554
914.34	16470
914.453	16382
914.566	16478
914.68	16398
914.793	16257
914.906	16105
915.019	16032
915.132	16021
915.245	15972
915.358	16093
915.47	16013
915.583	16006
915.696	15968
915.809	16101
915.921	16166
916.034	15915
916.146	15922
916.259	15838
916.371	15911
916.483	15941
916.595	15888
916.708	15861
916.82	15892
916.932	15816
917.044	15892
917.156	15755
917.268	15709
917.38	15641
917.491	15682
917.603	15660
917.715	15724
917.826	15759
917.938	15507
918.049	15572
918.161	15667
918.272	15732
918.384	15739
918.495	15580
918.606	15485
918.717	15367
918.828	15378
918.939	15488
919.05	15268
919.161	15393
919.272	15176
919.383	15237
919.494	15363
919.604	15576
919.715	15405
919.826	15214
919.936	15260
920.047	15435
920.157	15268
920.267	15542
920.378	15469
920.488	15207
920.598	15500
920.708	15652
920.818	15431
920.928	15405
921.038	15545
921.148	15584
921.258	15252
921.368	15119
921.477	15074
921.587	15032
921.697	14918
921.806	14998
921.916	14914
922.025	14731
922.134	14754
922.244	14598
922.353	14781
922.462	14549
922.571	14541
922.68	14412
922.789	14442
922.898	14385
923.007	14187
923.116	14313
923.224	14301
923.333	14240
923.442	14210
923.55	14248
923.659	14180
923.767	14115
923.876	14153
923.984	14237
924.092	14001
924.201	14054
924.309	14103
924.417	14077
924.525	13947
924.633	14039
924.741	14762
924.849	13689
924.956	13959
925.064	13788
925.172	13609
925.279	13719
925.387	13651
925.494	13765
925.602	13818
925.709	13742
925.816	13601
925.924	13704
926.031	13769
926.138	13666
926.245	13719
926.352	13567
926.459	13704
926.566	13582
926.673	13518
926.779	13506
926.886	13426
926.993	13266
927.099	13316
927.206	13118
927.312	13274
927.419	13304
927.525	13217
927.631	13110
927.737	13107
927.843	13061
927.95	12989
928.056	13076
928.162	13110
928.267	13156
928.373	13639
928.479	13084
928.585	12776
928.69	12935
928.796	13046
928.901	12939
929.007	12700
929.112	12901
929.218	12745
929.323	12696
929.428	12753
929.533	12829
929.638	12650
929.743	12604
929.848	12616
929.953	12662
930.058	12540
930.163	12475
930.267	12517
930.372	12525
930.477	12380
930.581	12608
930.685	12452
930.79	12266
930.894	12357
930.998	12270
931.103	12369
931.207	12068
931.311	11946
931.415	11813
931.519	11741
931.623	11642
