Data from test_V78500241_3632.txt Node
Date: Fri Mar 25 16:06:57 CST 2022
User: usil
Spectrometer: V785-0024
Trigger mode: 0
Integration Time (sec): 4.000000E-1
Scans to average: 1
Nonlinearity correction enabled: false
Boxcar width: 0
Storing dark spectrum: false
XAxis mode: Wavelengths
Number of Pixels in Spectrum: 1024
>>>>>Begin Spectral Data<<<<<
801.071	28398
801.214	28238
801.356	27991
801.499	28010
801.641	27827
801.783	27941
801.926	27994
802.068	27759
802.211	27770
802.353	27785
802.496	27641
802.638	27534
802.78	27553
802.923	27355
803.065	27325
803.208	27443
803.35	27622
803.492	27606
803.635	27698
803.777	27587
803.919	27880
804.061	27873
804.204	27838
804.346	27625
804.488	27549
804.63	27770
804.773	27781
804.915	27774
805.057	27827
805.199	27698
805.341	27819
805.483	27759
805.626	27819
805.768	27667
805.91	27846
806.052	27922
806.194	27816
806.336	28055
806.478	27895
806.62	27838
806.762	28002
806.904	28154
807.046	28405
807.188	28226
807.33	28257
807.472	28417
807.614	28257
807.756	28310
807.898	28215
808.04	28162
808.182	28181
808.324	28074
808.465	28379
808.607	28322
808.749	28561
808.891	28702
809.033	28755
809.174	28550
809.316	28538
809.458	28683
809.6	28398
809.741	28653
809.883	28679
810.025	28831
810.166	28854
810.308	28748
810.45	28774
810.591	28687
810.733	28577
810.875	28508
811.016	28390
811.158	28470
811.299	28573
811.441	28778
811.582	28653
811.724	28679
811.865	28443
812.007	28478
812.148	28451
812.29	28538
812.431	28679
812.573	28831
812.714	29064
812.855	29003
812.997	29166
813.138	29360
813.279	29277
813.421	29151
813.562	28946
813.703	28976
813.845	28691
813.986	28615
814.127	28341
814.268	28207
814.41	28314
814.551	28303
814.692	28230
814.833	28177
814.974	28166
815.115	28329
815.256	28185
815.397	28192
815.539	28253
815.68	28002
815.821	28029
815.962	28158
816.103	27918
816.244	27789
816.385	28002
816.526	27747
816.666	27561
816.807	27530
816.948	27534
817.089	27656
817.23	27629
817.371	27656
817.512	27587
817.653	27488
817.793	27564
817.934	27545
818.075	27549
818.216	27561
818.356	27542
818.497	27401
818.638	27211
818.778	27268
818.919	27389
819.06	27241
819.2	27549
819.341	27549
819.481	27576
819.622	27751
819.762	27770
819.903	27781
820.043	27774
820.184	27618
820.324	27587
820.465	27831
820.605	27568
820.746	27641
820.886	27370
821.026	27542
821.167	27591
821.307	27713
821.447	27538
821.588	27488
821.728	27412
821.868	27252
822.008	27074
822.149	27051
822.289	26963
822.429	26807
822.569	26697
822.709	26826
822.849	26533
822.99	26583
823.13	26450
823.27	26568
823.41	26480
823.55	26355
823.69	26282
823.83	26187
823.97	26248
824.11	26263
824.25	26202
824.389	26088
824.529	26336
824.669	26320
824.809	26317
824.949	26259
825.089	26294
825.228	26187
825.368	25917
825.508	25989
825.648	26103
825.787	26027
825.927	26103
826.067	26035
826.206	26065
826.346	26024
826.485	26020
826.625	26001
826.765	26191
826.904	26157
827.044	25898
827.183	25868
827.323	25830
827.462	25845
827.601	25845
827.741	25719
827.88	25951
828.02	25624
828.159	25776
828.298	25666
828.437	25811
828.577	25696
828.716	25887
828.855	25674
828.994	25392
829.134	25468
829.273	25499
829.412	25263
829.551	25247
829.69	25350
829.829	25510
829.968	25491
830.107	25525
830.246	25422
830.385	25400
830.524	25339
830.663	25304
830.802	25152
830.941	25168
831.08	25069
831.219	25114
831.357	25198
831.496	25270
831.635	25084
831.774	24996
831.913	24951
832.051	24760
832.19	24825
832.329	24970
832.467	24798
832.606	24604
832.744	24882
832.883	24726
833.022	24627
833.16	24726
833.299	24757
833.437	24631
833.576	24894
833.714	24867
833.852	24779
833.991	24890
834.129	24825
834.267	24867
834.406	24829
834.544	24772
834.682	24863
834.821	24734
834.959	24996
835.097	24650
835.235	24954
835.373	24871
835.511	24635
835.65	24661
835.788	24749
835.926	24505
836.064	24479
836.202	24452
836.34	24627
836.478	24669
836.615	24536
836.753	24677
836.891	24738
837.029	24631
837.167	24536
837.305	24460
837.443	24479
837.58	24388
837.718	24604
837.856	24582
837.993	24342
838.131	24403
838.269	24429
838.406	24327
838.544	24330
838.681	24045
838.819	24106
838.956	24015
839.094	23843
839.231	24144
839.369	24011
839.506	24308
839.643	24068
839.781	23954
839.918	23882
840.055	23912
840.193	23764
840.33	23878
840.467	23870
840.604	23874
840.742	24072
840.879	23783
841.016	23802
841.153	23710
841.29	23954
841.427	23821
841.564	23786
841.701	23950
841.838	23733
841.975	23733
842.112	23615
842.249	23570
842.385	23611
842.522	23786
842.659	23710
842.796	23501
842.933	23592
843.069	23691
843.206	23425
843.343	23657
843.479	23490
843.616	23680
843.752	23444
843.889	23353
844.025	23520
844.162	23512
844.298	23493
844.435	23417
844.571	23288
844.708	23376
844.844	23497
844.98	23566
845.117	23535
845.253	23212
845.389	23364
845.525	23341
845.661	23220
845.798	23151
845.934	23220
846.07	23071
846.206	23223
846.342	23277
846.478	23037
846.614	22900
846.75	22736
846.886	22793
847.022	22991
847.158	22828
847.294	22885
847.429	22881
847.565	22820
847.701	22942
847.837	22634
847.972	22603
848.108	22588
848.244	22538
848.379	22386
848.515	22398
848.65	22333
848.786	22428
848.921	22405
849.057	22481
849.192	22637
849.328	22451
849.463	22470
849.598	22356
849.734	22367
849.869	22306
850.004	22166
850.14	22192
850.275	22211
850.41	22059
850.545	22162
850.68	22120
850.815	22223
850.95	22226
851.085	22375
851.22	22204
851.355	22226
851.49	22166
851.625	22169
851.76	22169
851.895	22150
852.03	22135
852.165	22067
852.299	22265
852.434	22291
852.569	22139
852.703	22169
852.838	22261
852.973	22166
853.107	22348
853.242	22097
853.376	22048
853.511	21926
853.645	21968
853.78	22070
853.914	22010
854.048	22032
854.183	21892
854.317	21975
854.451	22192
854.585	21975
854.72	22055
854.854	22109
854.988	21968
855.122	22010
855.256	21953
855.39	22017
855.524	22006
855.658	22048
855.792	22090
855.926	22067
856.06	21979
856.194	22051
856.327	22006
856.461	21975
856.595	22036
856.729	22082
856.862	22158
856.996	22070
857.13	22021
857.263	22196
857.397	22147
857.53	22013
857.664	22032
857.797	21972
857.931	22086
858.064	22074
858.197	22211
858.331	22021
858.464	22013
858.597	21979
858.731	21918
858.864	21831
858.997	22017
859.13	21937
859.263	21979
859.396	22021
859.529	21911
859.662	21907
859.795	21930
859.928	21930
860.061	22139
860.194	22177
860.327	21991
860.46	21972
860.592	22105
860.725	22188
860.858	22059
860.99	22105
861.123	21899
861.256	21983
861.388	21918
861.521	22675
861.653	21880
861.786	21797
861.918	21899
862.05	21835
862.183	21922
862.315	21846
862.447	21979
862.58	21850
862.712	21720
862.844	21732
862.976	21770
863.108	21743
863.24	22246
863.372	21686
863.504	21739
863.636	21698
863.768	21660
863.9	21751
864.032	21603
864.164	21656
864.296	21873
864.428	21816
864.559	21888
864.691	21766
864.823	21736
864.954	21682
865.086	21759
865.217	21610
865.349	21519
865.48	21542
865.612	21401
865.743	21755
865.875	21701
866.006	21561
866.137	21637
866.269	21469
866.4	21545
866.531	21591
866.662	21538
866.793	21572
866.924	21538
867.055	21542
867.186	21576
867.317	21492
867.448	21416
867.579	21488
867.71	21534
867.841	21561
867.972	21580
868.103	21473
868.233	21500
868.364	21545
868.495	21553
868.625	21766
868.756	22010
868.886	21648
869.017	21785
869.147	21964
869.278	21922
869.408	21808
869.539	21709
869.669	21812
869.799	21880
869.929	21876
870.06	21854
870.19	22063
870.32	22074
870.45	22131
870.58	22036
870.71	22375
870.84	22124
870.97	22139
871.1	22078
871.23	22443
871.36	22318
871.489	22181
871.619	22325
871.749	22379
871.879	22413
872.008	22500
872.138	22382
872.267	22382
872.397	22154
872.526	22101
872.656	22242
872.785	22215
872.915	22512
873.044	22504
873.173	22493
873.303	22386
873.432	22527
873.561	22428
873.69	22394
873.819	22417
873.948	22512
874.077	22306
874.206	22386
874.335	22409
874.464	22569
874.593	22611
874.722	22694
874.851	22637
874.979	22611
875.108	22694
875.237	22592
875.365	22573
875.494	22527
875.623	22649
875.751	22538
875.88	22599
876.008	22778
876.136	22771
876.265	22984
876.393	23124
876.521	23060
876.65	23128
876.778	23029
876.906	22927
877.034	22942
877.162	22915
877.29	22976
877.418	22949
877.546	22934
877.674	23037
877.802	22904
877.93	23018
878.058	23014
878.185	22778
878.313	22873
878.441	22885
878.568	22809
878.696	22957
878.824	23117
878.951	23067
879.079	23098
879.206	23356
879.333	23159
879.461	23079
879.588	22968
879.715	23075
879.842	23239
879.97	23174
880.097	22752
880.224	22767
880.351	22839
880.478	22816
880.605	22744
880.732	22710
880.859	23048
880.986	22755
881.112	22774
881.239	22634
881.366	22675
881.493	22451
881.619	22440
881.746	22375
881.872	22348
881.999	22360
882.125	22276
882.252	22394
882.378	22337
882.505	22394
882.631	22055
882.757	22070
882.883	22143
883.01	22055
883.136	22013
883.262	22010
883.388	21880
883.514	21994
883.64	22112
883.766	21941
883.892	21793
884.018	21835
884.143	21972
884.269	22032
884.395	21755
884.52	21625
884.646	21637
884.772	21603
884.897	21534
885.023	21599
885.148	21724
885.274	21835
885.399	21816
885.524	21679
885.65	21759
885.775	21667
885.9	21690
886.025	21827
886.15	21800
886.275	21542
886.4	21542
886.525	21583
886.65	21507
886.775	21515
886.9	21679
887.025	21907
887.149	21492
887.274	21344
887.399	21428
887.523	21359
887.648	21443
887.773	21374
887.897	21477
888.021	21439
888.146	21344
888.27	21405
888.395	21622
888.519	21428
888.643	21431
888.767	21526
888.891	21306
889.015	21195
889.139	21226
889.263	21108
889.387	21382
889.511	21439
889.635	21294
889.759	21192
889.883	21241
890.006	21287
890.13	21386
890.254	21093
890.377	21173
890.501	20990
890.624	20948
890.748	21070
890.871	20948
890.995	20739
891.118	20781
891.241	20781
891.364	20720
891.488	20963
891.611	20773
891.734	20743
891.857	20800
891.98	20899
892.103	20796
892.226	20788
892.349	20674
892.471	20590
892.594	20632
892.717	20720
892.839	20655
892.962	20792
893.085	20819
893.207	20632
893.33	20473
893.452	20533
893.575	20796
893.697	20632
893.819	20853
893.941	20895
894.064	20823
894.186	20716
894.308	20674
894.43	20697
894.552	20811
894.674	20781
894.796	20560
894.918	20629
895.04	20575
895.161	20800
895.283	20667
895.405	20594
895.526	20678
895.648	20651
895.769	20629
895.891	20739
896.012	20746
896.134	20750
896.255	20625
896.376	20701
896.498	20655
896.619	20651
896.74	20602
896.861	20575
896.982	20952
897.103	21108
897.224	20944
897.345	20910
897.466	20868
897.587	20853
897.708	20925
897.828	21001
897.949	20792
898.07	20636
898.19	20895
898.311	20944
898.431	20705
898.552	20891
898.672	20918
898.792	20967
898.913	20853
899.033	20724
899.153	20568
899.273	20526
899.393	20674
899.513	20598
899.633	20583
899.753	20678
899.873	20598
899.993	20583
900.113	20598
900.232	20507
900.352	20461
900.472	20488
900.591	20389
900.711	20484
900.83	20404
900.95	20503
901.069	20537
901.189	20328
901.308	20077
901.427	19906
901.546	20024
901.665	19970
901.784	19989
901.904	19852
902.023	19727
902.141	19525
902.26	19472
902.379	19540
902.498	19567
902.617	19422
902.735	19502
902.854	19472
902.973	19331
903.091	19183
903.21	19137
903.328	19114
903.446	18996
903.565	18882
903.683	18966
903.801	18669
903.919	18859
904.038	18939
904.156	18673
904.274	18795
904.392	18681
904.51	18688
904.627	18726
904.745	18776
904.863	18741
904.981	18483
905.098	18258
905.216	18232
905.334	18471
905.451	18357
905.569	18311
905.686	18338
905.803	18376
905.921	18091
906.038	18232
906.155	18159
906.272	18022
906.389	18102
906.506	17912
906.623	17946
906.74	17874
906.857	17851
906.974	17901
907.091	17969
907.208	18068
907.324	17954
907.441	17817
907.557	17589
907.674	17642
907.79	17589
907.907	17623
908.023	17596
908.139	17661
908.256	17532
908.372	17463
908.488	17402
908.604	17406
908.72	17315
908.836	17356
908.952	17296
909.068	17273
909.184	17299
909.3	17280
909.415	17463
909.531	17368
909.647	17102
909.762	17022
909.878	17029
909.993	17056
910.108	17086
910.224	16927
910.339	16965
910.454	16900
910.57	16866
910.685	16748
910.8	17052
910.915	16995
911.03	16778
911.145	16721
911.259	16497
911.374	16626
911.489	16485
911.604	16481
911.718	16447
911.833	16337
911.947	16299
912.062	16242
912.176	16314
912.291	16386
912.405	16360
912.519	16596
912.633	16497
912.748	16474
912.862	16348
912.976	16207
913.09	16162
913.204	15945
913.318	16211
913.431	16242
913.545	16287
913.659	16181
913.772	16128
913.886	15972
914	16078
914.113	16109
914.226	16093
914.34	15945
914.453	15785
914.566	15968
914.68	15838
914.793	15827
914.906	15762
915.019	15500
915.132	15488
915.245	15500
915.358	15538
915.47	15625
915.583	15545
915.696	15644
915.809	15587
915.921	15652
916.034	15511
916.146	15447
916.259	15458
916.371	15496
916.483	15542
916.595	15424
916.708	15447
916.82	15386
916.932	15294
917.044	15249
917.156	15249
917.268	15203
917.38	15165
917.491	15199
917.603	15237
917.715	15214
917.826	15340
917.938	15112
918.049	15020
918.161	15180
918.272	15252
918.384	15211
918.495	15104
918.606	14899
918.717	14944
918.828	14967
918.939	14979
919.05	14899
919.161	14933
919.272	14769
919.383	14773
919.494	14906
919.604	15123
919.715	14963
919.826	14853
919.936	14914
920.047	14937
920.157	14887
920.267	15077
920.378	14880
920.488	14861
920.598	15081
920.708	15135
920.818	14986
920.928	15009
921.038	15180
921.148	15051
921.258	14853
921.368	14610
921.477	14724
921.587	14644
921.697	14518
921.806	14632
921.916	14530
922.025	14431
922.134	14294
922.244	14263
922.353	14347
922.462	14145
922.571	14115
922.68	14046
922.789	13913
922.898	13902
923.007	13856
923.116	13818
923.224	13875
923.333	13860
923.442	13780
923.55	13620
923.659	13734
923.767	13757
923.876	13742
923.984	13719
924.092	13616
924.201	13712
924.309	13639
924.417	13620
924.525	13613
924.633	13597
924.741	14507
924.849	13320
924.956	13578
925.064	13278
925.172	13339
925.279	13308
925.387	13339
925.494	13293
925.602	13411
925.709	13331
925.816	13247
925.924	13320
926.031	13232
926.138	13278
926.245	13244
926.352	13137
926.459	13217
926.566	13259
926.673	13095
926.779	13042
926.886	13008
926.993	12821
927.099	12859
927.206	12741
927.312	12776
927.419	12795
927.525	12852
927.631	12890
927.737	12730
927.843	12601
927.95	12620
928.056	12555
928.162	12620
928.267	12696
928.373	13282
928.479	12688
928.585	12467
928.69	12555
928.796	12616
928.901	12593
929.007	12380
929.112	12437
929.218	12494
929.323	12391
929.428	12357
929.533	12452
929.638	12338
929.743	12330
929.848	12300
929.953	12357
930.058	12163
930.163	12049
930.267	12072
930.372	12247
930.477	11984
930.581	12270
930.685	12079
930.79	11851
930.894	11904
930.998	11946
931.103	11950
931.207	11707
931.311	11589
931.415	11474
931.519	11303
931.623	11410
