Data from test_V78500241_1024.txt Node
Date: Fri Mar 25 15:48:53 CST 2022
User: usil
Spectrometer: V785-0024
Trigger mode: 0
Integration Time (sec): 4.000000E-1
Scans to average: 1
Nonlinearity correction enabled: false
Boxcar width: 0
Storing dark spectrum: false
XAxis mode: Wavelengths
Number of Pixels in Spectrum: 1024
>>>>>Begin Spectral Data<<<<<
801.071	28417
801.214	28192
801.356	27911
801.499	27835
801.641	27686
801.783	27690
801.926	27690
802.068	27800
802.211	27614
802.353	27701
802.496	27272
802.638	27386
802.78	27412
802.923	27249
803.065	27317
803.208	27344
803.35	27332
803.492	27462
803.635	27686
803.777	27496
803.919	27553
804.061	27850
804.204	27743
804.346	27507
804.488	27576
804.63	27606
804.773	27431
804.915	27660
805.057	27770
805.199	27572
805.341	27686
805.483	27854
805.626	27709
805.768	27568
805.91	27728
806.052	27656
806.194	27747
806.336	27812
806.478	27869
806.62	27778
806.762	27903
806.904	28036
807.046	28253
807.188	28234
807.33	28207
807.472	28242
807.614	28112
807.756	28169
807.898	28147
808.04	27941
808.182	28078
808.324	28097
808.465	28101
808.607	28390
808.749	28386
808.891	28493
809.033	28550
809.174	28451
809.316	28451
809.458	28447
809.6	28360
809.741	28478
809.883	28470
810.025	28786
810.166	28702
810.308	28774
810.45	28736
810.591	28691
810.733	28489
810.875	28497
811.016	28371
811.158	28192
811.299	28630
811.441	28660
811.582	28660
811.724	28504
811.865	28466
812.007	28512
812.148	28451
812.29	28424
812.431	28565
812.573	28725
812.714	28953
812.855	28854
812.997	28965
813.138	29174
813.279	29029
813.421	29022
813.562	28923
813.703	28782
813.845	28641
813.986	28367
814.127	28303
814.268	28234
814.41	28162
814.551	28192
814.692	28147
814.833	28097
814.974	28158
815.115	28086
815.256	28017
815.397	27991
815.539	27922
815.68	27922
815.821	27850
815.962	27922
816.103	27998
816.244	27812
816.385	27751
816.526	27557
816.666	27606
816.807	27424
816.948	27599
817.089	27545
817.23	27458
817.371	27378
817.512	27424
817.653	27363
817.793	27370
817.934	27401
818.075	27504
818.216	27329
818.356	27427
818.497	27123
818.638	27264
818.778	27127
818.919	27176
819.06	27275
819.2	27325
819.341	27523
819.481	27523
819.622	27431
819.762	27739
819.903	27732
820.043	27618
820.184	27644
820.324	27660
820.465	27557
820.605	27606
820.746	27416
820.886	27344
821.026	27504
821.167	27450
821.307	27538
821.447	27397
821.588	27401
821.728	27287
821.868	27024
822.008	26940
822.149	26944
822.289	26979
822.429	26788
822.569	26644
822.709	26796
822.849	26427
822.99	26423
823.13	26446
823.27	26408
823.41	26263
823.55	26187
823.69	26248
823.83	26233
823.97	26244
824.11	26016
824.25	26024
824.389	26024
824.529	26081
824.669	26210
824.809	26168
824.949	26214
825.089	26111
825.228	26092
825.368	25925
825.508	25849
825.648	25879
825.787	26069
825.927	26077
826.067	26001
826.206	25932
826.346	25917
826.485	26039
826.625	25917
826.765	26084
826.904	25989
827.044	25662
827.183	25734
827.323	25594
827.462	25601
827.601	25605
827.741	25563
827.88	25757
828.02	25514
828.159	25639
828.298	25563
828.437	25616
828.577	25632
828.716	25715
828.855	25590
828.994	25491
829.134	25244
829.273	25373
829.412	25327
829.551	25228
829.69	25407
829.829	25339
829.968	25415
830.107	25350
830.246	25350
830.385	25285
830.524	25274
830.663	25122
830.802	25053
830.941	25042
831.08	25019
831.219	25061
831.357	25038
831.496	25084
831.635	24943
831.774	24779
831.913	24920
832.051	24913
832.19	24711
832.329	24863
832.467	24681
832.606	24540
832.744	24642
832.883	24570
833.022	24540
833.16	24677
833.299	24829
833.437	24601
833.576	24726
833.714	24795
833.852	24642
833.991	24844
834.129	24859
834.267	24878
834.406	24642
834.544	24779
834.682	24783
834.821	24658
834.959	24852
835.097	24585
835.235	24703
835.373	24711
835.511	24639
835.65	24532
835.788	24467
835.926	24376
836.064	24380
836.202	24429
836.34	24521
836.478	24631
836.615	24547
836.753	24563
836.891	24604
837.029	24445
837.167	24471
837.305	24475
837.443	24342
837.58	24319
837.718	24319
837.856	24342
837.993	24239
838.131	24426
838.269	24277
838.406	24266
838.544	24041
838.681	23912
838.819	24018
838.956	23851
839.094	23828
839.231	23893
839.369	24026
839.506	24232
839.643	24087
839.781	23832
839.918	23668
840.055	23893
840.193	23779
840.33	23718
840.467	23756
840.604	23798
840.742	23897
840.879	23596
841.016	23821
841.153	23573
841.29	23901
841.427	23684
841.564	23832
841.701	23786
841.838	23551
841.975	23501
842.112	23699
842.249	23657
842.385	23452
842.522	23786
842.659	23657
842.796	23573
842.933	23455
843.069	23490
843.206	23493
843.343	23387
843.479	23520
843.616	23509
843.752	23284
843.889	23185
844.025	23406
844.162	23277
844.298	23349
844.435	23284
844.571	23242
844.708	23318
844.844	23493
844.98	23417
845.117	23410
845.253	23242
845.389	23090
845.525	23109
845.661	23060
845.798	22957
845.934	23140
846.07	22892
846.206	23052
846.342	23105
846.478	22991
846.614	22889
846.75	22683
846.886	22664
847.022	22717
847.158	22759
847.294	22683
847.429	22755
847.565	22744
847.701	23022
847.837	22455
847.972	22367
848.108	22489
848.244	22603
848.379	22421
848.515	22249
848.65	22314
848.786	22325
848.921	22447
849.057	22485
849.192	22451
849.328	22337
849.463	22226
849.598	22295
849.734	22109
849.869	22188
850.004	22063
850.14	21998
850.275	22147
850.41	21953
850.545	22013
850.68	22051
850.815	22055
850.95	22188
851.085	22223
851.22	22215
851.355	22093
851.49	22063
851.625	22002
851.76	22101
851.895	22090
852.03	21975
852.165	22070
852.299	22017
852.434	22238
852.569	22078
852.703	22032
852.838	22032
852.973	22154
853.107	22181
853.242	22040
853.376	21781
853.511	21789
853.645	21720
853.78	22006
853.914	21964
854.048	21934
854.183	21800
854.317	21869
854.451	21991
854.585	21835
854.72	21816
854.854	22040
854.988	21816
855.122	21865
855.256	21827
855.39	21831
855.524	21934
855.658	22010
855.792	21869
855.926	21930
856.06	22006
856.194	21949
856.327	21743
856.461	21869
856.595	21808
856.729	21911
856.862	22025
856.996	21869
857.13	21949
857.263	21964
857.397	21873
857.53	21835
857.664	22059
857.797	22017
857.931	21987
858.064	21774
858.197	21991
858.331	21964
858.464	21762
858.597	21778
858.731	21895
858.864	21804
858.997	21915
859.13	21854
859.263	21998
859.396	22040
859.529	21819
859.662	21819
859.795	21728
859.928	21968
860.061	21956
860.194	22044
860.327	21861
860.46	21911
860.592	21895
860.725	21991
860.858	22128
860.99	21915
861.123	21930
861.256	21751
861.388	21816
861.521	22736
861.653	21781
861.786	21564
861.918	21660
862.05	21679
862.183	21831
862.315	21842
862.447	21819
862.58	21789
862.712	21610
862.844	21580
862.976	21595
863.108	21778
863.24	22067
863.372	21523
863.504	21587
863.636	21542
863.768	21667
863.9	21648
864.032	21549
864.164	21526
864.296	21583
864.428	21736
864.559	21660
864.691	21606
864.823	21618
864.954	21549
865.086	21500
865.217	21610
865.349	21488
865.48	21496
865.612	21618
865.743	21580
865.875	21477
866.006	21447
866.137	21504
866.269	21458
866.4	21549
866.531	21572
866.662	21405
866.793	21382
866.924	21450
867.055	21378
867.186	21428
867.317	21443
867.448	21275
867.579	21511
867.71	21344
867.841	21462
867.972	21428
868.103	21488
868.233	21447
868.364	21325
868.495	21549
868.625	21492
868.756	21800
868.886	21583
869.017	21694
869.147	21869
869.278	21728
869.408	21747
869.539	21656
869.669	21720
869.799	21743
869.929	21800
870.06	21701
870.19	21987
870.32	21838
870.45	22036
870.58	22097
870.71	22196
870.84	22082
870.97	22017
871.1	22139
871.23	22177
871.36	22192
871.489	22173
871.619	22207
871.749	22238
871.879	22223
872.008	22386
872.138	22139
872.267	22246
872.397	22093
872.526	22074
872.656	22112
872.785	22036
872.915	22276
873.044	22382
873.173	22234
873.303	22249
873.432	22276
873.561	22375
873.69	22246
873.819	22188
873.948	22462
874.077	22242
874.206	22249
874.335	22344
874.464	22394
874.593	22527
874.722	22451
874.851	22466
874.979	22493
875.108	22569
875.237	22436
875.365	22428
875.494	22470
875.623	22577
875.751	22466
875.88	22550
876.008	22546
876.136	22691
876.265	22896
876.393	23003
876.521	22991
876.65	22942
876.778	22911
876.906	22835
877.034	22786
877.162	22820
877.29	22759
877.418	22900
877.546	22793
877.674	22767
877.802	22854
877.93	22809
878.058	22805
878.185	22664
878.313	22778
878.441	22904
878.568	22584
878.696	22710
878.824	22820
878.951	22987
879.079	23010
879.206	23010
879.333	22908
879.461	22873
879.588	22965
879.715	22965
879.842	23014
879.97	22873
880.097	22630
880.224	22645
880.351	22759
880.478	22698
880.605	22645
880.732	22763
880.859	22877
880.986	22702
881.112	22656
881.239	22451
881.366	22535
881.493	22333
881.619	22314
881.746	22162
881.872	22265
881.999	22261
882.125	22234
882.252	22291
882.378	22147
882.505	22379
882.631	22021
882.757	21838
882.883	21888
883.01	21865
883.136	21762
883.262	21785
883.388	21759
883.514	21842
883.64	21895
883.766	21778
883.892	21526
884.018	21789
884.143	21819
884.269	22006
884.395	21625
884.52	21614
884.646	21580
884.772	21450
884.897	21378
885.023	21603
885.148	21534
885.274	21629
885.399	21690
885.524	21576
885.65	21492
885.775	21549
885.9	21534
886.025	21663
886.15	21610
886.275	21549
886.4	21397
886.525	21606
886.65	21466
886.775	21355
886.9	21614
887.025	21747
887.149	21534
887.274	21336
887.399	21332
887.523	21397
887.648	21211
887.773	21157
887.897	21370
888.021	21332
888.146	21233
888.27	21393
888.395	21424
888.519	21351
888.643	21313
888.767	21317
888.891	21157
889.015	21043
889.139	21195
889.263	21081
889.387	21199
889.511	21317
889.635	21382
889.759	21043
889.883	21024
890.006	21138
890.13	21123
890.254	21047
890.377	21077
890.501	20811
890.624	20830
890.748	20746
890.871	20777
890.995	20689
891.118	20526
891.241	20640
891.364	20598
891.488	20811
891.611	20743
891.734	20629
891.857	20743
891.98	20640
892.103	20807
892.226	20579
892.349	20568
892.471	20484
892.594	20552
892.717	20549
892.839	20530
892.962	20636
893.085	20613
893.207	20667
893.33	20473
893.452	20518
893.575	20651
893.697	20568
893.819	20716
893.941	20743
894.064	20602
894.186	20465
894.308	20476
894.43	20556
894.552	20777
894.674	20613
894.796	20377
894.918	20564
895.04	20431
895.161	20571
895.283	20575
895.405	20450
895.526	20541
895.648	20503
895.769	20560
895.891	20720
896.012	20587
896.134	20579
896.255	20583
896.376	20598
896.498	20526
896.619	20606
896.74	20583
896.861	20568
896.982	20902
897.103	20963
897.224	20781
897.345	20876
897.466	20663
897.587	20670
897.708	20842
897.828	20826
897.949	20701
898.07	20617
898.19	20651
898.311	20826
898.431	20724
898.552	20697
898.672	20876
898.792	20712
898.913	20876
899.033	20667
899.153	20625
899.273	20495
899.393	20457
899.513	20583
899.633	20461
899.753	20571
899.873	20511
899.993	20514
900.113	20533
900.232	20469
900.352	20541
900.472	20450
900.591	20252
900.711	20275
900.83	20244
900.95	20309
901.069	20347
901.189	20252
901.308	20054
901.427	19868
901.546	19841
901.665	19830
901.784	19803
901.904	19712
902.023	19727
902.141	19449
902.26	19354
902.379	19373
902.498	19438
902.617	19327
902.735	19411
902.854	19335
902.973	19232
903.091	19114
903.21	18993
903.328	18993
903.446	18882
903.565	18817
903.683	18867
903.801	18859
903.919	18878
904.038	18711
904.156	18525
904.274	18715
904.392	18578
904.51	18623
904.627	18601
904.745	18669
904.863	18749
904.981	18433
905.098	18304
905.216	18399
905.334	18182
905.451	18228
905.569	18205
905.686	18243
905.803	18205
905.921	18003
906.038	18167
906.155	18026
906.272	17946
906.389	18011
906.506	17813
906.623	17954
906.74	17851
906.857	17699
906.974	17634
907.091	17668
907.208	18022
907.324	17741
907.441	17718
907.557	17452
907.674	17493
907.79	17379
907.907	17448
908.023	17520
908.139	17516
908.256	17406
908.372	17277
908.488	17288
908.604	17315
908.72	17174
908.836	17227
908.952	17124
909.068	17151
909.184	17258
909.3	17220
909.415	17322
909.531	17170
909.647	17048
909.762	16877
909.878	16946
909.993	16934
910.108	16862
910.224	16759
910.339	16869
910.454	16873
910.57	16774
910.685	16645
910.8	16984
910.915	16847
911.03	16736
911.145	16607
911.259	16500
911.374	16478
911.489	16398
911.604	16417
911.718	16337
911.833	16211
911.947	16120
912.062	16082
912.176	16200
912.291	16272
912.405	16238
912.519	16470
912.633	16447
912.748	16333
912.862	16185
912.976	16109
913.09	15903
913.204	16010
913.318	16071
913.431	16211
913.545	16139
913.659	16029
913.772	15987
913.886	15751
914	15717
914.113	15869
914.226	16067
914.34	15911
914.453	15770
914.566	15884
914.68	15682
914.793	15690
914.906	15553
915.019	15447
915.132	15462
915.245	15469
915.358	15477
915.47	15393
915.583	15481
915.696	15462
915.809	15599
915.921	15507
916.034	15416
916.146	15329
916.259	15393
916.371	15469
916.483	15424
916.595	15237
916.708	15245
916.82	15294
916.932	15329
917.044	15207
917.156	15268
917.268	15097
917.38	15184
917.491	15051
917.603	15028
917.715	15108
917.826	15176
917.938	15055
918.049	14921
918.161	14982
918.272	15131
918.384	15176
918.495	15070
918.606	14960
918.717	14804
918.828	14864
918.939	14921
919.05	14842
919.161	14800
919.272	14648
919.383	14739
919.494	14853
919.604	14994
919.715	14716
919.826	14724
919.936	14880
920.047	14891
920.157	14857
920.267	14998
920.378	14868
920.488	14792
920.598	14986
920.708	15070
920.818	14971
920.928	14994
921.038	15131
921.148	15085
921.258	14682
921.368	14651
921.477	14613
921.587	14476
921.697	14389
921.806	14465
921.916	14393
922.025	14248
922.134	14180
922.244	14180
922.353	14221
922.462	14111
922.571	13989
922.68	13845
922.789	13811
922.898	13795
923.007	13723
923.116	13776
923.224	13757
923.333	13780
923.442	13708
923.55	13655
923.659	13670
923.767	13731
923.876	13590
923.984	13624
924.092	13480
924.201	13605
924.309	13761
924.417	13556
924.525	13422
924.633	13468
924.741	14183
924.849	13206
924.956	13449
925.064	13301
925.172	13244
925.279	13129
925.387	13202
925.494	13259
925.602	13289
925.709	13259
925.816	13145
925.924	13217
926.031	13285
926.138	13217
926.245	13175
926.352	13114
926.459	13145
926.566	13312
926.673	13061
926.779	13019
926.886	13023
926.993	12909
927.099	12772
927.206	12783
927.312	12692
927.419	12848
927.525	12768
927.631	12760
927.737	12612
927.843	12620
927.95	12521
928.056	12612
928.162	12639
928.267	12585
928.373	13149
928.479	12654
928.585	12437
928.69	12574
928.796	12551
928.901	12460
929.007	12285
929.112	12563
929.218	12391
929.323	12304
929.428	12292
929.533	12422
929.638	12247
929.743	12289
929.848	12258
929.953	12216
930.058	12205
930.163	12022
930.267	12038
930.372	12243
930.477	11950
930.581	12155
930.685	12072
930.79	11863
930.894	11908
930.998	11847
931.103	11897
931.207	11638
931.311	11566
931.415	11421
931.519	11288
931.623	11318
