Data from test_V78500241_597.txt Node
Date: Fri Mar 25 15:45:56 CST 2022
User: usil
Spectrometer: V785-0024
Trigger mode: 0
Integration Time (sec): 4.000000E-1
Scans to average: 1
Nonlinearity correction enabled: false
Boxcar width: 0
Storing dark spectrum: false
XAxis mode: Wavelengths
Number of Pixels in Spectrum: 1024
>>>>>Begin Spectral Data<<<<<
801.071	27492
801.214	27545
801.356	27157
801.499	27203
801.641	26944
801.783	27001
801.926	27154
802.068	27032
802.211	26918
802.353	26864
802.496	26693
802.638	26781
802.78	26697
802.923	26701
803.065	26495
803.208	26651
803.35	26545
803.492	26758
803.635	26773
803.777	26830
803.919	26868
804.061	27157
804.204	26933
804.346	26659
804.488	26739
804.63	26838
804.773	26701
804.915	26864
805.057	27070
805.199	26826
805.341	26940
805.483	26861
805.626	26994
805.768	26960
805.91	26876
806.052	26986
806.194	26921
806.336	27055
806.478	27005
806.62	26960
806.762	27127
806.904	27161
807.046	27431
807.188	27275
807.33	27538
807.472	27595
807.614	27363
807.756	27351
807.898	27154
808.04	27264
808.182	27237
808.324	27214
808.465	27317
808.607	27370
808.749	27488
808.891	27610
809.033	27880
809.174	27747
809.316	27500
809.458	27625
809.6	27603
809.741	27644
809.883	27644
810.025	28006
810.166	27827
810.308	27888
810.45	27994
810.591	27732
810.733	27679
810.875	27500
811.016	27469
811.158	27542
811.299	27732
811.441	27850
811.582	27698
811.724	27549
811.865	27530
812.007	27576
812.148	27561
812.29	27663
812.431	27644
812.573	27934
812.714	28040
812.855	28048
812.997	28234
813.138	28466
813.279	28154
813.421	28215
813.562	28070
813.703	28036
813.845	27774
813.986	27553
814.127	27298
814.268	27283
814.41	27237
814.551	27180
814.692	27420
814.833	27256
814.974	27165
815.115	27241
815.256	27165
815.397	27108
815.539	27184
815.68	27180
815.821	27032
815.962	27104
816.103	27070
816.244	26937
816.385	27020
816.526	26823
816.666	26590
816.807	26453
816.948	26526
817.089	26735
817.23	26541
817.371	26556
817.512	26613
817.653	26568
817.793	26579
817.934	26530
818.075	26606
818.216	26560
818.356	26450
818.497	26450
818.638	26202
818.778	26256
818.919	26271
819.06	26286
819.2	26514
819.341	26473
819.481	26590
819.622	26659
819.762	26731
819.903	26819
820.043	26716
820.184	26655
820.324	26556
820.465	26613
820.605	26659
820.746	26541
820.886	26495
821.026	26564
821.167	26461
821.307	26629
821.447	26655
821.588	26450
821.728	26442
821.868	26252
822.008	26138
822.149	26054
822.289	25940
822.429	25807
822.569	25670
822.709	25712
822.849	25533
822.99	25491
823.13	25483
823.27	25422
823.41	25407
823.55	25194
823.69	25358
823.83	25400
823.97	25282
824.11	25122
824.25	25076
824.389	25084
824.529	25194
824.669	25129
824.809	25225
824.949	25244
825.089	25232
825.228	25301
825.368	25057
825.508	24973
825.648	24909
825.787	25103
825.927	25034
826.067	24962
826.206	25053
826.346	24989
826.485	25023
826.625	24970
826.765	25164
826.904	25034
827.044	24730
827.183	24833
827.323	24566
827.462	24829
827.601	24604
827.741	24642
827.88	24707
828.02	24654
828.159	24779
828.298	24703
828.437	24852
828.577	24772
828.716	24764
828.855	24616
828.994	24452
829.134	24490
829.273	24407
829.412	24369
829.551	24281
829.69	24426
829.829	24433
829.968	24505
830.107	24380
830.246	24452
830.385	24445
830.524	24254
830.663	24197
830.802	24106
830.941	24087
831.08	24152
831.219	24152
831.357	24098
831.496	24342
831.635	24018
831.774	23954
831.913	23885
832.051	23813
832.19	23916
832.329	23767
832.467	23646
832.606	23596
832.744	23722
832.883	23691
833.022	23638
833.16	23764
833.299	23764
833.437	23726
833.576	23729
833.714	23851
833.852	23836
833.991	23809
834.129	23893
834.267	23843
834.406	23710
834.544	23798
834.682	23798
834.821	23813
834.959	23870
835.097	23718
835.235	23863
835.373	23642
835.511	23707
835.65	23551
835.788	23547
835.926	23459
836.064	23543
836.202	23444
836.34	23551
836.478	23661
836.615	23509
836.753	23486
836.891	23786
837.029	23547
837.167	23573
837.305	23570
837.443	23421
837.58	23455
837.718	23436
837.856	23490
837.993	23455
838.131	23372
838.269	23395
838.406	23353
838.544	23235
838.681	23128
838.819	23048
838.956	22831
839.094	22904
839.231	23018
839.369	23197
839.506	23223
839.643	23037
839.781	22953
839.918	22873
840.055	22972
840.193	22790
840.33	22805
840.467	22850
840.604	22877
840.742	23227
840.879	22691
841.016	22847
841.153	22755
841.29	22923
841.427	22672
841.564	22828
841.701	22763
841.838	22793
841.975	22725
842.112	22755
842.249	22672
842.385	22588
842.522	22782
842.659	22637
842.796	22519
842.933	22596
843.069	22592
843.206	22561
843.343	22599
843.479	22626
843.616	22542
843.752	22394
843.889	22344
844.025	22497
844.162	22173
844.298	22546
844.435	22402
844.571	22337
844.708	22344
844.844	22489
844.98	22497
845.117	22451
845.253	22356
845.389	22196
845.525	22257
845.661	22181
845.798	22090
845.934	22272
846.07	22059
846.206	22051
846.342	22150
846.478	22032
846.614	21930
846.75	21835
846.886	21720
847.022	22029
847.158	21762
847.294	21804
847.429	21880
847.565	21717
847.701	22025
847.837	21618
847.972	21576
848.108	21644
848.244	21568
848.379	21397
848.515	21469
848.65	21397
848.786	21382
848.921	21454
849.057	21431
849.192	21485
849.328	21359
849.463	21580
849.598	21317
849.734	21302
849.869	21211
850.004	21108
850.14	21233
850.275	21188
850.41	21131
850.545	21074
850.68	21161
850.815	21230
850.95	21169
851.085	21336
851.22	21249
851.355	21218
851.49	21188
851.625	21119
851.76	20982
851.895	21024
852.03	21047
852.165	21165
852.299	21188
852.434	21199
852.569	21245
852.703	21165
852.838	21211
852.973	21252
853.107	21294
853.242	21089
853.376	20956
853.511	20796
853.645	20948
853.78	21104
853.914	20994
854.048	20948
854.183	21047
854.317	21066
854.451	21199
854.585	20902
854.72	20994
854.854	21074
854.988	20899
855.122	20960
855.256	20914
855.39	20842
855.524	21020
855.658	20971
855.792	20963
855.926	21074
856.06	21138
856.194	21074
856.327	20990
856.461	21017
856.595	20902
856.729	21081
856.862	21058
856.996	20941
857.13	20979
857.263	21131
857.397	21161
857.53	21077
857.664	21074
857.797	21074
857.931	21218
858.064	20956
858.197	21051
858.331	21081
858.464	21032
858.597	20815
858.731	21028
858.864	21077
858.997	20963
859.13	21017
859.263	21074
859.396	21085
859.529	20975
859.662	20933
859.795	20861
859.928	21001
860.061	21123
860.194	21306
860.327	21039
860.46	20979
860.592	21043
860.725	21123
860.858	21047
860.99	21058
861.123	20868
861.256	20899
861.388	20986
861.521	21485
861.653	20914
861.786	20864
861.918	20807
862.05	20838
862.183	20834
862.315	20804
862.447	21047
862.58	20853
862.712	20568
862.844	20598
862.976	20792
863.108	20826
863.24	21138
863.372	20560
863.504	20716
863.636	20750
863.768	20701
863.9	20758
864.032	20670
864.164	20644
864.296	20674
864.428	20739
864.559	20758
864.691	20746
864.823	20689
864.954	20636
865.086	20689
865.217	20579
865.349	20587
865.48	20530
865.612	20602
865.743	20773
865.875	20712
866.006	20564
866.137	20571
866.269	20606
866.4	20674
866.531	20629
866.662	20590
866.793	20560
866.924	20571
867.055	20530
867.186	20469
867.317	20514
867.448	20442
867.579	20511
867.71	20389
867.841	20476
867.972	20507
868.103	20507
868.233	20533
868.364	20609
868.495	20693
868.625	20758
868.756	20796
868.886	20648
869.017	20701
869.147	20941
869.278	20933
869.408	20758
869.539	20804
869.669	20876
869.799	20826
869.929	20975
870.06	20910
870.19	21150
870.32	21013
870.45	21131
870.58	21180
870.71	21245
870.84	21211
870.97	21131
871.1	21119
871.23	21268
871.36	21439
871.489	21321
871.619	21306
871.749	21313
871.879	21424
872.008	21469
872.138	21389
872.267	21450
872.397	21287
872.526	21131
872.656	21363
872.785	21230
872.915	21401
873.044	21374
873.173	21507
873.303	21553
873.432	21313
873.561	21576
873.69	21325
873.819	21348
873.948	21458
874.077	21408
874.206	21412
874.335	21340
874.464	21485
874.593	21606
874.722	21641
874.851	21622
874.979	21694
875.108	21679
875.237	21686
875.365	21557
875.494	21606
875.623	21686
875.751	21652
875.88	21648
876.008	21762
876.136	21819
876.265	22051
876.393	22211
876.521	22067
876.65	22150
876.778	22006
876.906	22097
877.034	21960
877.162	21953
877.29	22051
877.418	21956
877.546	21895
877.674	21975
877.802	21930
877.93	21991
878.058	21975
878.185	21857
878.313	21975
878.441	21895
878.568	21770
878.696	21903
878.824	22067
878.951	21983
879.079	22185
879.206	22200
879.333	22276
879.461	22051
879.588	22006
879.715	22185
879.842	22265
879.97	22021
880.097	21915
880.224	21895
880.351	21819
880.478	21766
880.605	21732
880.732	21770
880.859	22055
880.986	21884
881.112	21903
881.239	21675
881.366	21534
881.493	21557
881.619	21485
881.746	21405
881.872	21458
881.999	21386
882.125	21325
882.252	21275
882.378	21340
882.505	21511
882.631	21294
882.757	21119
882.883	21169
883.01	21005
883.136	21077
883.262	20933
883.388	20952
883.514	21199
883.64	21104
883.766	21028
883.892	20906
884.018	20845
884.143	21043
884.269	21100
884.395	20819
884.52	20693
884.646	20765
884.772	20613
884.897	20632
885.023	20743
885.148	20868
885.274	20982
885.399	20910
885.524	20727
885.65	20750
885.775	20758
885.9	20727
886.025	20823
886.15	20807
886.275	20712
886.4	20621
886.525	20701
886.65	20640
886.775	20659
886.9	20941
887.025	21024
887.149	20705
887.274	20571
887.399	20507
887.523	20492
887.648	20469
887.773	20431
887.897	20564
888.021	20571
888.146	20423
888.27	20549
888.395	20621
888.519	20499
888.643	20644
888.767	20560
888.891	20355
889.015	20355
889.139	20454
889.263	20301
889.387	20358
889.511	20522
889.635	20381
889.759	20294
889.883	20290
890.006	20286
890.13	20488
890.254	20221
890.377	20164
890.501	20119
890.624	20107
890.748	20050
890.871	19970
890.995	19921
891.118	19936
891.241	19909
891.364	19890
891.488	20043
891.611	19837
891.734	19982
891.857	19940
891.98	19753
892.103	19909
892.226	19879
892.349	19681
892.471	19689
892.594	19746
892.717	19727
892.839	19883
892.962	19757
893.085	19757
893.207	19849
893.33	19708
893.452	19616
893.575	19845
893.697	19791
893.819	20027
893.941	20016
894.064	20008
894.186	19761
894.308	19715
894.43	19883
894.552	19959
894.674	19906
894.796	19666
894.918	19681
895.04	19799
895.161	19776
895.283	19799
895.405	19795
895.526	19799
895.648	19776
895.769	19860
895.891	19845
896.012	19902
896.134	19909
896.255	19894
896.376	19826
896.498	19830
896.619	19940
896.74	19864
896.861	19837
896.982	20180
897.103	20339
897.224	20081
897.345	19989
897.466	20035
897.587	20103
897.708	20275
897.828	20134
897.949	19974
898.07	19879
898.19	20027
898.311	20096
898.431	19955
898.552	20088
898.672	19989
898.792	20084
898.913	20103
899.033	19928
899.153	19868
899.273	19681
899.393	19833
899.513	19776
899.633	19875
899.753	19830
899.873	19738
899.993	19928
900.113	19666
900.232	19849
900.352	19772
900.472	19556
900.591	19651
900.711	19601
900.83	19499
900.95	19567
901.069	19605
901.189	19559
901.308	19274
901.427	19080
901.546	19164
901.665	19152
901.784	19164
901.904	19057
902.023	18894
902.141	18726
902.26	18700
902.379	18696
902.498	18738
902.617	18544
902.735	18639
902.854	18681
902.973	18589
903.091	18304
903.21	18304
903.328	18323
903.446	18296
903.565	18117
903.683	18270
903.801	18152
903.919	18095
904.038	18072
904.156	17866
904.274	17942
904.392	17912
904.51	17912
904.627	17920
904.745	17935
904.863	17863
904.981	17809
905.098	17581
905.216	17687
905.334	17600
905.451	17661
905.569	17566
905.686	17661
905.803	17608
905.921	17417
906.038	17482
906.155	17501
906.272	17311
906.389	17360
906.506	17151
906.623	17185
906.74	17174
906.857	17048
906.974	17060
907.091	17105
907.208	17189
907.324	17117
907.441	17086
907.557	16995
907.674	16900
907.79	16797
907.907	16889
908.023	16915
908.139	16885
908.256	16866
908.372	16778
908.488	16691
908.604	16634
908.72	16584
908.836	16573
908.952	16535
909.068	16599
909.184	16660
909.3	16462
909.415	16713
909.531	16580
909.647	16310
909.762	16322
909.878	16287
909.993	16352
910.108	16341
910.224	16185
910.339	16242
910.454	16143
910.57	16051
910.685	16120
910.8	16314
910.915	16306
911.03	16090
911.145	15968
911.259	15903
911.374	15884
911.489	15854
911.604	15713
911.718	15625
911.833	15675
911.947	15561
912.062	15469
912.176	15648
912.291	15625
912.405	15641
912.519	15838
912.633	15831
912.748	15663
912.862	15526
912.976	15447
913.09	15275
913.204	15447
913.318	15485
913.431	15584
913.545	15511
913.659	15595
913.772	15336
913.886	15302
914	15180
914.113	15355
914.226	15355
914.34	15245
914.453	15169
914.566	15332
914.68	15233
914.793	15131
914.906	14895
915.019	14804
915.132	14781
915.245	14826
915.358	14815
915.47	14883
915.583	14804
915.696	15024
915.809	14960
915.921	14944
916.034	14910
916.146	14796
916.259	14788
916.371	14868
916.483	14788
916.595	14659
916.708	14788
916.82	14655
916.932	14727
917.044	14613
917.156	14663
917.268	14587
917.38	14541
917.491	14564
917.603	14590
917.715	14590
917.826	14610
917.938	14427
918.049	14362
918.161	14511
918.272	14663
918.384	14655
918.495	14507
918.606	14393
918.717	14305
918.828	14336
918.939	14301
919.05	14271
919.161	14240
919.272	14168
919.383	14149
919.494	14423
919.604	14522
919.715	14370
919.826	14233
919.936	14256
920.047	14339
920.157	14278
920.267	14450
920.378	14210
920.488	14218
920.598	14503
920.708	14598
920.818	14385
920.928	14415
921.038	14617
921.148	14461
921.258	14290
921.368	14145
921.477	14039
921.587	14020
921.697	13784
921.806	13974
921.916	13868
922.025	13696
922.134	13746
922.244	13578
922.353	13670
922.462	13506
922.571	13464
922.68	13362
922.789	13396
922.898	13263
923.007	13202
923.116	13244
923.224	13251
923.333	13297
923.442	13270
923.55	13190
923.659	13152
923.767	13213
923.876	13050
923.984	13145
924.092	13027
924.201	13095
924.309	13031
924.417	13023
924.525	12947
924.633	13023
924.741	13894
924.849	12795
924.956	12970
925.064	12719
925.172	12616
925.279	12798
925.387	12825
925.494	12730
925.602	12901
925.709	12821
925.816	12627
925.924	12677
926.031	12806
926.138	12658
926.245	12711
926.352	12582
926.459	12669
926.566	12684
926.673	12616
926.779	12536
926.886	12513
926.993	12330
927.099	12266
927.206	12266
927.312	12350
927.419	12292
927.525	12243
927.631	12384
927.737	12243
927.843	12220
927.95	12083
928.056	12194
928.162	12175
928.267	12224
928.373	12856
928.479	12197
928.585	11980
928.69	12034
928.796	12171
928.901	11988
929.007	11798
929.112	11973
929.218	11958
929.323	11866
929.428	11859
929.533	11999
929.638	11832
929.743	11771
929.848	11878
929.953	11824
930.058	11794
930.163	11539
930.267	11554
930.372	11718
930.477	11532
930.581	11859
930.685	11691
930.79	11516
930.894	11455
930.998	11421
931.103	11585
931.207	11223
931.311	11155
931.415	11094
931.519	10904
931.623	10847
