Data from test_V78500241_965.txt Node
Date: Fri Mar 25 15:48:29 CST 2022
User: usil
Spectrometer: V785-0024
Trigger mode: 0
Integration Time (sec): 4.000000E-1
Scans to average: 1
Nonlinearity correction enabled: false
Boxcar width: 0
Storing dark spectrum: false
XAxis mode: Wavelengths
Number of Pixels in Spectrum: 1024
>>>>>Begin Spectral Data<<<<<
801.071	28405
801.214	28409
801.356	28070
801.499	27956
801.641	27884
801.783	27911
801.926	28013
802.068	27831
802.211	27945
802.353	27720
802.496	27572
802.638	27576
802.78	27660
802.923	27481
803.065	27561
803.208	27606
803.35	27701
803.492	27603
803.635	27861
803.777	27778
803.919	27876
804.061	27926
804.204	27736
804.346	27709
804.488	27838
804.63	27739
804.773	27701
804.915	27888
805.057	27945
805.199	27854
805.341	27937
805.483	27781
805.626	27937
805.768	27724
805.91	27960
806.052	27975
806.194	27869
806.336	28204
806.478	27991
806.62	28116
806.762	28185
806.904	28154
807.046	28421
807.188	28344
807.33	28356
807.472	28474
807.614	28386
807.756	28493
807.898	28265
808.04	28185
808.182	28211
808.324	28424
808.465	28291
808.607	28580
808.749	28481
808.891	28831
809.033	28812
809.174	28755
809.316	28607
809.458	28721
809.6	28512
809.741	28759
809.883	28630
810.025	28858
810.166	28885
810.308	28949
810.45	28873
810.591	28862
810.733	28607
810.875	28702
811.016	28565
811.158	28519
811.299	28694
811.441	28831
811.582	28733
811.724	28694
811.865	28615
812.007	28649
812.148	28656
812.29	28512
812.431	28801
812.573	29109
812.714	29102
812.855	29181
812.997	29303
813.138	29433
813.279	29307
813.421	29178
813.562	29140
813.703	28908
813.845	28885
813.986	28538
814.127	28455
814.268	28310
814.41	28272
814.551	28287
814.692	28512
814.833	28272
814.974	28481
815.115	28356
815.256	28246
815.397	28329
815.539	28265
815.68	28124
815.821	28147
815.962	28139
816.103	28257
816.244	28128
816.385	27979
816.526	28055
816.666	27781
816.807	27736
816.948	27823
817.089	27743
817.23	27606
817.371	27827
817.512	27675
817.653	27606
817.793	27663
817.934	27774
818.075	27698
818.216	27534
818.356	27641
818.497	27622
818.638	27443
818.778	27370
818.919	27359
819.06	27492
819.2	27481
819.341	27660
819.481	27637
819.622	27816
819.762	28055
819.903	27930
820.043	27846
820.184	27819
820.324	27739
820.465	27857
820.605	27755
820.746	27800
820.886	27595
821.026	27819
821.167	27686
821.307	27812
821.447	27831
821.588	27466
821.728	27393
821.868	27283
822.008	27116
822.149	27089
822.289	27161
822.429	26857
822.569	26693
822.709	26735
822.849	26644
822.99	26663
823.13	26617
823.27	26533
823.41	26453
823.55	26408
823.69	26366
823.83	26446
823.97	26419
824.11	26240
824.25	26309
824.389	26286
824.529	26374
824.669	26248
824.809	26412
824.949	26320
825.089	26374
825.228	26343
825.368	26202
825.508	26187
825.648	26077
825.787	26142
825.927	26221
826.067	26115
826.206	26168
826.346	26180
826.485	26225
826.625	26168
826.765	26248
826.904	26191
827.044	25868
827.183	25856
827.323	25906
827.462	25974
827.601	26031
827.741	25944
827.88	25963
828.02	25868
828.159	25940
828.298	25921
828.437	25879
828.577	25883
828.716	25974
828.855	25852
828.994	25693
829.134	25685
829.273	25616
829.412	25533
829.551	25537
829.69	25647
829.829	25616
829.968	25704
830.107	25632
830.246	25529
830.385	25563
830.524	25384
830.663	25369
830.802	25327
830.941	25168
831.08	25091
831.219	25228
831.357	25247
831.496	25396
831.635	25179
831.774	25175
831.913	25053
832.051	25012
832.19	24947
832.329	24844
832.467	24852
832.606	24909
832.744	24875
832.883	24787
833.022	24817
833.16	25008
833.299	24852
833.437	24867
833.576	24882
833.714	24901
833.852	25099
833.991	24973
834.129	25000
834.267	25118
834.406	24878
834.544	24966
834.682	24981
834.821	24897
834.959	25046
835.097	24981
835.235	24840
835.373	25008
835.511	24890
835.65	24802
835.788	24711
835.926	24612
836.064	24505
836.202	24559
836.34	24654
836.478	24715
836.615	24734
836.753	24757
836.891	24848
837.029	24711
837.167	24779
837.305	24658
837.443	24551
837.58	24486
837.718	24570
837.856	24620
837.993	24593
838.131	24608
838.269	24433
838.406	24429
838.544	24471
838.681	24270
838.819	24251
838.956	24022
839.094	24216
839.231	24110
839.369	24266
839.506	24372
839.643	24292
839.781	24087
839.918	24049
840.055	24178
840.193	24038
840.33	23954
840.467	23950
840.604	24057
840.742	24254
840.879	23859
841.016	23878
841.153	23908
841.29	24091
841.427	23961
841.564	23950
841.701	24030
841.838	23707
841.975	23771
842.112	23836
842.249	23794
842.385	23665
842.522	23965
842.659	23836
842.796	23722
842.933	23589
843.069	23509
843.206	23672
843.343	23638
843.479	23672
843.616	23726
843.752	23493
843.889	23566
844.025	23554
844.162	23471
844.298	23608
844.435	23490
844.571	23318
844.708	23417
844.844	23661
844.98	23680
845.117	23490
845.253	23471
845.389	23185
845.525	23539
845.661	23330
845.798	23364
845.934	23284
846.07	23299
846.206	23322
846.342	23155
846.478	23197
846.614	22972
846.75	22965
846.886	22987
847.022	22995
847.158	22896
847.294	22900
847.429	22873
847.565	22896
847.701	23143
847.837	22687
847.972	22626
848.108	22755
848.244	22744
848.379	22596
848.515	22569
848.65	22497
848.786	22489
848.921	22470
849.057	22485
849.192	22577
849.328	22554
849.463	22577
849.598	22512
849.734	22280
849.869	22348
850.004	22230
850.14	22329
850.275	22314
850.41	22135
850.545	22200
850.68	22295
850.815	22348
850.95	22215
851.085	22382
851.22	22390
851.355	22360
851.49	22390
851.625	22344
851.76	22246
851.895	22128
852.03	22173
852.165	22325
852.299	22360
852.434	22363
852.569	22249
852.703	22303
852.838	22367
852.973	22337
853.107	22413
853.242	22219
853.376	22154
853.511	21945
853.645	22101
853.78	22230
853.914	22200
854.048	21953
854.183	22124
854.317	22169
854.451	22173
854.585	22032
854.72	22013
854.854	22207
854.988	22055
855.122	22196
855.256	21937
855.39	22112
855.524	22166
855.658	22074
855.792	22082
855.926	22234
856.06	22032
856.194	22147
856.327	22143
856.461	22067
856.595	22059
856.729	22185
856.862	22158
856.996	22215
857.13	22200
857.263	22272
857.397	22249
857.53	22070
857.664	22188
857.797	22135
857.931	22131
858.064	22158
858.197	22276
858.331	22029
858.464	21926
858.597	21941
858.731	22063
858.864	21979
858.997	22070
859.13	22029
859.263	22093
859.396	22154
859.529	22177
859.662	22162
859.795	22158
859.928	22188
860.061	22185
860.194	22272
860.327	22211
860.46	22040
860.592	22272
860.725	22303
860.858	22299
860.99	22112
861.123	21918
861.256	22017
861.388	22090
861.521	22725
861.653	21941
861.786	21934
861.918	22070
862.05	22029
862.183	22059
862.315	22154
862.447	22067
862.58	22017
862.712	21755
862.844	21846
862.976	21922
863.108	21926
863.24	22131
863.372	21800
863.504	21774
863.636	21827
863.768	21895
863.9	21766
864.032	21675
864.164	21766
864.296	21751
864.428	21915
864.559	21816
864.691	21842
864.823	21755
864.954	21876
865.086	21793
865.217	21698
865.349	21709
865.48	21747
865.612	21720
865.743	21850
865.875	21701
866.006	21622
866.137	21595
866.269	21637
866.4	21641
866.531	21606
866.662	21648
866.793	21644
866.924	21542
867.055	21629
867.186	21766
867.317	21549
867.448	21557
867.579	21652
867.71	21458
867.841	21488
867.972	21587
868.103	21526
868.233	21545
868.364	21644
868.495	21823
868.625	21819
868.756	21991
868.886	21705
869.017	21739
869.147	22002
869.278	21915
869.408	21964
869.539	21895
869.669	21876
869.799	21915
869.929	21964
870.06	21956
870.19	22124
870.32	22234
870.45	22135
870.58	22219
870.71	22409
870.84	22398
870.97	22291
871.1	22246
871.23	22500
871.36	22504
871.489	22367
871.619	22402
871.749	22474
871.879	22508
872.008	22649
872.138	22554
872.267	22375
872.397	22341
872.526	22253
872.656	22226
872.785	22246
872.915	22337
873.044	22550
873.173	22497
873.303	22626
873.432	22557
873.561	22634
873.69	22519
873.819	22443
873.948	22641
874.077	22382
874.206	22474
874.335	22447
874.464	22615
874.593	22679
874.722	22672
874.851	22721
874.979	22740
875.108	22698
875.237	22611
875.365	22637
875.494	22649
875.623	22683
875.751	22706
875.88	22637
876.008	22733
876.136	22900
876.265	23128
876.393	23083
876.521	23090
876.65	23170
876.778	23067
876.906	23014
877.034	23022
877.162	22930
877.29	22987
877.418	23018
877.546	22995
877.674	22991
877.802	22999
877.93	23044
878.058	23018
878.185	22835
878.313	22946
878.441	22949
878.568	22816
878.696	23006
878.824	23094
878.951	23067
879.079	23200
879.206	23204
879.333	23151
879.461	23052
879.588	23239
879.715	23254
879.842	23220
879.97	23071
880.097	22831
880.224	22911
880.351	22885
880.478	22961
880.605	22733
880.732	22896
880.859	23067
880.986	22816
881.112	22805
881.239	22630
881.366	22645
881.493	22592
881.619	22432
881.746	22500
881.872	22447
881.999	22386
882.125	22322
882.252	22459
882.378	22398
882.505	22462
882.631	22306
882.757	22086
882.883	22234
883.01	22032
883.136	21968
883.262	21964
883.388	21979
883.514	22124
883.64	22063
883.766	21937
883.892	21797
884.018	21842
884.143	21915
884.269	22067
884.395	21899
884.52	21671
884.646	21797
884.772	21667
884.897	21690
885.023	21656
885.148	21694
885.274	21895
885.399	21766
885.524	21854
885.65	21641
885.775	21793
885.9	21690
886.025	21892
886.15	21838
886.275	21732
886.4	21671
886.525	21762
886.65	21637
886.775	21583
886.9	21671
887.025	21869
887.149	21751
887.274	21454
887.399	21488
887.523	21572
887.648	21477
887.773	21431
887.897	21492
888.021	21485
888.146	21504
888.27	21618
888.395	21542
888.519	21553
888.643	21466
888.767	21504
888.891	21382
889.015	21230
889.139	21291
889.263	21226
889.387	21355
889.511	21523
889.635	21447
889.759	21165
889.883	21214
890.006	21260
890.13	21313
890.254	21256
890.377	21275
890.501	21055
890.624	20914
890.748	20986
890.871	20929
890.995	20830
891.118	20735
891.241	20914
891.364	20864
891.488	20914
891.611	20921
891.734	20880
891.857	20823
891.98	20796
892.103	20815
892.226	20929
892.349	20796
892.471	20663
892.594	20731
892.717	20807
892.839	20602
892.962	20659
893.085	20842
893.207	20705
893.33	20568
893.452	20785
893.575	20876
893.697	20765
893.819	20925
893.941	20944
894.064	20807
894.186	20655
894.308	20602
894.43	20716
894.552	20956
894.674	20826
894.796	20651
894.918	20739
895.04	20670
895.161	20815
895.283	20731
895.405	20686
895.526	20697
895.648	20758
895.769	20731
895.891	20804
896.012	20826
896.134	20830
896.255	20644
896.376	20689
896.498	20708
896.619	20853
896.74	20804
896.861	20735
896.982	21077
897.103	21154
897.224	21104
897.345	20998
897.466	20857
897.587	20967
897.708	21077
897.828	21017
897.949	20872
898.07	20769
898.19	20872
898.311	20990
898.431	20906
898.552	20853
898.672	20963
898.792	20899
898.913	20971
899.033	20853
899.153	20796
899.273	20549
899.393	20689
899.513	20594
899.633	20644
899.753	20765
899.873	20568
899.993	20727
900.113	20636
900.232	20602
900.352	20526
900.472	20518
900.591	20434
900.711	20465
900.83	20412
900.95	20412
901.069	20408
901.189	20252
901.308	20020
901.427	20012
901.546	19944
901.665	19936
901.784	20005
901.904	19963
902.023	19814
902.141	19487
902.26	19445
902.379	19590
902.498	19460
902.617	19540
902.735	19514
902.854	19525
902.973	19415
903.091	19171
903.21	19187
903.328	19209
903.446	19137
903.565	18985
903.683	19099
903.801	18821
903.919	18932
904.038	18951
904.156	18798
904.274	18859
904.392	18760
904.51	18654
904.627	18703
904.745	18692
904.863	18726
904.981	18483
905.098	18467
905.216	18334
905.334	18486
905.451	18399
905.569	18433
905.686	18407
905.803	18391
905.921	18194
906.038	18323
906.155	18292
906.272	18117
906.389	18057
906.506	17973
906.623	18045
906.74	17885
906.857	17790
906.974	17771
907.091	18171
907.208	17958
907.324	18076
907.441	17775
907.557	17722
907.674	17703
907.79	17661
907.907	17649
908.023	17767
908.139	17585
908.256	17672
908.372	17478
908.488	17524
908.604	17292
908.72	17341
908.836	17425
908.952	17417
909.068	17414
909.184	17528
909.3	17273
909.415	17410
909.531	17341
909.647	17181
909.762	17128
909.878	17041
909.993	17117
910.108	17098
910.224	17235
910.339	17041
910.454	16774
910.57	16866
910.685	16930
910.8	17143
910.915	17014
911.03	16809
911.145	16710
911.259	16599
911.374	16675
911.489	16615
911.604	16516
911.718	16432
911.833	16398
911.947	16314
912.062	16249
912.176	16344
912.291	16470
912.405	16398
912.519	16603
912.633	16523
912.748	16455
912.862	16360
912.976	16257
913.09	16105
913.204	16181
913.318	16211
913.431	16310
913.545	16284
913.659	16394
913.772	16097
913.886	16090
914	15956
914.113	16105
914.226	16185
914.34	16090
914.453	15994
914.566	15991
914.68	15812
914.793	15827
914.906	15679
915.019	15644
915.132	15534
915.245	15591
915.358	15614
915.47	15686
915.583	15542
915.696	15603
915.809	15690
915.921	15728
916.034	15545
916.146	15622
916.259	15389
916.371	15545
916.483	15580
916.595	15530
916.708	15389
916.82	15424
916.932	15370
917.044	15298
917.156	15306
917.268	15173
917.38	15291
917.491	15283
917.603	15230
917.715	15192
917.826	15302
917.938	15127
918.049	15062
918.161	15116
918.272	15283
918.384	15367
918.495	15169
918.606	14982
918.717	14944
918.828	14986
918.939	14948
919.05	14929
919.161	14891
919.272	14712
919.383	14754
919.494	15047
919.604	15192
919.715	14967
919.826	14868
919.936	14887
920.047	14887
920.157	14986
920.267	15150
920.378	15005
920.488	14891
920.598	15028
920.708	15256
920.818	14990
920.928	15017
921.038	15142
921.148	15184
921.258	14853
921.368	14815
921.477	14689
921.587	14724
921.697	14533
921.806	14648
921.916	14492
922.025	14336
922.134	14252
922.244	14290
922.353	14415
922.462	14088
922.571	14084
922.68	13963
922.789	13951
922.898	13974
923.007	13845
923.116	13978
923.224	13841
923.333	13925
923.442	13883
923.55	13757
923.659	13780
923.767	13833
923.876	13765
923.984	13791
924.092	13639
924.201	13738
924.309	13685
924.417	13715
924.525	13552
924.633	13613
924.741	14514
924.849	13362
924.956	13552
925.064	13384
925.172	13324
925.279	13407
925.387	13297
925.494	13449
925.602	13540
925.709	13384
925.816	13183
925.924	13285
926.031	13301
926.138	13263
926.245	13282
926.352	13168
926.459	13232
926.566	13346
926.673	13187
926.779	13050
926.886	12985
926.993	12932
927.099	12928
927.206	12848
927.312	12810
927.419	12882
927.525	12867
927.631	12951
927.737	12875
927.843	12703
927.95	12578
928.056	12700
928.162	12703
928.267	12715
928.373	13228
928.479	12684
928.585	12441
928.69	12547
928.796	12783
928.901	12578
929.007	12429
929.112	12498
929.218	12525
929.323	12445
929.428	12433
929.533	12570
929.638	12281
929.743	12334
929.848	12342
929.953	12315
930.058	12277
930.163	12117
930.267	12095
930.372	12194
930.477	12007
930.581	12323
930.685	12133
930.79	12015
930.894	12060
930.998	11950
931.103	12030
931.207	11726
931.311	11688
931.415	11512
931.519	11311
931.623	11356
