Data from test_V78500241_2076.txt Node
Date: Fri Mar 25 15:56:10 CST 2022
User: usil
Spectrometer: V785-0024
Trigger mode: 0
Integration Time (sec): 4.000000E-1
Scans to average: 1
Nonlinearity correction enabled: false
Boxcar width: 0
Storing dark spectrum: false
XAxis mode: Wavelengths
Number of Pixels in Spectrum: 1024
>>>>>Begin Spectral Data<<<<<
801.071	29109
801.214	29083
801.356	28862
801.499	28721
801.641	28824
801.783	28736
801.926	28847
802.068	28816
802.211	28771
802.353	28489
802.496	28546
802.638	28459
802.78	28459
802.923	28428
803.065	28314
803.208	28303
803.35	28554
803.492	28649
803.635	28710
803.777	28565
803.919	28637
804.061	28942
804.204	28896
804.346	28641
804.488	28538
804.63	28713
804.773	28603
804.915	28687
805.057	28778
805.199	28656
805.341	28790
805.483	28927
805.626	28721
805.768	28763
805.91	28755
806.052	28774
806.194	28824
806.336	29033
806.478	28828
806.62	28820
806.762	28949
806.904	29113
807.046	29269
807.188	29216
807.33	29356
807.472	29421
807.614	29227
807.756	29223
807.898	29181
808.04	29105
808.182	29056
808.324	29083
808.465	29197
808.607	29375
808.749	29345
808.891	29707
809.033	29779
809.174	29695
809.316	29600
809.458	29493
809.6	29463
809.741	29570
809.883	29748
810.025	29885
810.166	29817
810.308	29832
810.45	29745
810.591	29737
810.733	29524
810.875	29642
811.016	29478
811.158	29387
811.299	29764
811.441	29668
811.582	29695
811.724	29638
811.865	29566
812.007	29577
812.148	29566
812.29	29615
812.431	29733
812.573	29828
812.714	30098
812.855	30045
812.997	30102
813.138	30281
813.279	30159
813.421	30095
813.562	29969
813.703	29916
813.845	29741
813.986	29474
814.127	29425
814.268	29231
814.41	29303
814.551	29159
814.692	29269
814.833	29170
814.974	29208
815.115	29235
815.256	29121
815.397	29170
815.539	29151
815.68	29010
815.821	29025
815.962	29014
816.103	29193
816.244	28927
816.385	28733
816.526	28930
816.666	28725
816.807	28519
816.948	28641
817.089	28626
817.23	28641
817.371	28527
817.512	28641
817.653	28618
817.793	28500
817.934	28645
818.075	28554
818.216	28596
818.356	28500
818.497	28451
818.638	28341
818.778	28462
818.919	28421
819.06	28455
819.2	28455
819.341	28603
819.481	28615
819.622	28793
819.762	28919
819.903	28892
820.043	28900
820.184	28733
820.324	28679
820.465	28850
820.605	28656
820.746	28660
820.886	28493
821.026	28740
821.167	28774
821.307	28831
821.447	28626
821.588	28584
821.728	28470
821.868	28348
822.008	28192
822.149	28131
822.289	28029
822.429	27728
822.569	27816
822.709	27903
822.849	27564
822.99	27739
823.13	27606
823.27	27618
823.41	27389
823.55	27363
823.69	27564
823.83	27454
823.97	27439
824.11	27325
824.25	27279
824.389	27218
824.529	27412
824.669	27233
824.809	27272
824.949	27367
825.089	27310
825.228	27279
825.368	27108
825.508	27146
825.648	27077
825.787	27165
825.927	27283
826.067	27077
826.206	27043
826.346	27154
826.485	27150
826.625	27085
826.765	27306
826.904	27127
827.044	26857
827.183	26845
827.323	26960
827.462	26940
827.601	26986
827.741	26819
827.88	26876
828.02	26644
828.159	26899
828.298	26758
828.437	27032
828.577	26800
828.716	26902
828.855	26716
828.994	26404
829.134	26590
829.273	26533
829.412	26705
829.551	26480
829.69	26632
829.829	26446
829.968	26549
830.107	26739
830.246	26511
830.385	26377
830.524	26419
830.663	26263
830.802	26199
830.941	26256
831.08	26081
831.219	26142
831.357	26263
831.496	26495
831.635	26157
831.774	26065
831.913	25947
832.051	25898
832.19	25970
832.329	25928
832.467	25738
832.606	25864
832.744	25761
832.883	25826
833.022	25757
833.16	25826
833.299	25887
833.437	25974
833.576	25913
833.714	25989
833.852	25860
833.991	25917
834.129	25951
834.267	25871
834.406	25852
834.544	25826
834.682	26027
834.821	25833
834.959	26050
835.097	25738
835.235	25849
835.373	25947
835.511	25917
835.65	25780
835.788	25693
835.926	25628
836.064	25518
836.202	25582
836.34	25696
836.478	25795
836.615	25613
836.753	25731
836.891	25902
837.029	25780
837.167	25609
837.305	25632
837.443	25586
837.58	25552
837.718	25613
837.856	25605
837.993	25487
838.131	25582
838.269	25297
838.406	25369
838.544	25335
838.681	25320
838.819	25232
838.956	25031
839.094	24962
839.231	25004
839.369	25164
839.506	25438
839.643	25285
839.781	25099
839.918	24973
840.055	24837
840.193	24875
840.33	24859
840.467	24901
840.604	24810
840.742	25164
840.879	24703
841.016	24806
841.153	24658
841.29	24935
841.427	24962
841.564	24837
841.701	24954
841.838	24852
841.975	24802
842.112	24779
842.249	24715
842.385	24673
842.522	24764
842.659	24681
842.796	24620
842.933	24540
843.069	24608
843.206	24608
843.343	24669
843.479	24623
843.616	24658
843.752	24361
843.889	24384
844.025	24494
844.162	24346
844.298	24357
844.435	24418
844.571	24403
844.708	24437
844.844	24597
844.98	24604
845.117	24448
845.253	24315
845.389	24376
845.525	24334
845.661	24285
845.798	24178
845.934	24304
846.07	24148
846.206	24224
846.342	24129
846.478	24076
846.614	23916
846.75	23798
846.886	23988
847.022	23984
847.158	23866
847.294	23958
847.429	23961
847.565	23870
847.701	24064
847.837	23551
847.972	23596
848.108	23726
848.244	23592
848.379	23356
848.515	23398
848.65	23398
848.786	23383
848.921	23520
849.057	23440
849.192	23535
849.328	23497
849.463	23501
849.598	23387
849.734	23227
849.869	23261
850.004	23292
850.14	23261
850.275	23220
850.41	23025
850.545	23166
850.68	23094
850.815	23216
850.95	23044
851.085	23391
851.22	23368
851.355	23200
851.49	23094
851.625	23307
851.76	23246
851.895	23121
852.03	23132
852.165	23212
852.299	23353
852.434	23159
852.569	23216
852.703	23216
852.838	23151
852.973	23296
853.107	23242
853.242	23151
853.376	23102
853.511	22869
853.645	22953
853.78	23155
853.914	22999
854.048	22915
854.183	22949
854.317	23041
854.451	23254
854.585	23079
854.72	23117
854.854	23075
854.988	22984
855.122	23136
855.256	22900
855.39	22896
855.524	23006
855.658	23041
855.792	22915
855.926	23029
856.06	23037
856.194	23098
856.327	23067
856.461	22972
856.595	22999
856.729	23037
856.862	23162
856.996	23018
857.13	23083
857.263	23277
857.397	23117
857.53	22915
857.664	23102
857.797	23147
857.931	23174
858.064	23071
858.197	23048
858.331	23022
858.464	22896
858.597	22946
858.731	22991
858.864	22965
858.997	22980
859.13	23006
859.263	23086
859.396	23083
859.529	22942
859.662	22999
859.795	22968
859.928	23025
860.061	23098
860.194	23170
860.327	23052
860.46	23075
860.592	23189
860.725	23136
860.858	23079
860.99	23033
861.123	22942
861.256	22938
861.388	23022
861.521	23638
861.653	22919
861.786	22763
861.918	22930
862.05	22873
862.183	22915
862.315	22934
862.447	23102
862.58	22980
862.712	22736
862.844	22588
862.976	22679
863.108	22721
863.24	23216
863.372	22660
863.504	22797
863.636	22660
863.768	22691
863.9	22584
864.032	22656
864.164	22550
864.296	22740
864.428	22911
864.559	22622
864.691	22790
864.823	22763
864.954	22675
865.086	22733
865.217	22584
865.349	22500
865.48	22584
865.612	22554
865.743	22611
865.875	22535
866.006	22584
866.137	22554
866.269	22599
866.4	22565
866.531	22493
866.662	22542
866.793	22447
866.924	22470
867.055	22523
867.186	22573
867.317	22561
867.448	22508
867.579	22363
867.71	22440
867.841	22329
867.972	22459
868.103	22318
868.233	22531
868.364	22519
868.495	22516
868.625	22740
868.756	22915
868.886	22706
869.017	22694
869.147	22850
869.278	22862
869.408	22793
869.539	22797
869.669	22885
869.799	22599
869.929	22831
870.06	22869
870.19	23044
870.32	23067
870.45	23162
870.58	23204
870.71	23254
870.84	23151
870.97	23162
871.1	23151
871.23	23269
871.36	23299
871.489	23239
871.619	23246
871.749	23299
871.879	23387
872.008	23410
872.138	23463
872.267	23269
872.397	23178
872.526	23200
872.656	23155
872.785	23258
872.915	23353
873.044	23410
873.173	23471
873.303	23387
873.432	23402
873.561	23482
873.69	23379
873.819	23406
873.948	23467
874.077	23387
874.206	23395
874.335	23372
874.464	23425
874.593	23668
874.722	23482
874.851	23619
874.979	23455
875.108	23570
875.237	23459
875.365	23505
875.494	23493
875.623	23623
875.751	23543
875.88	23551
876.008	23535
876.136	23805
876.265	24110
876.393	24178
876.521	24053
876.65	23923
876.778	24045
876.906	23901
877.034	23935
877.162	23904
877.29	23999
877.418	23901
877.546	23863
877.674	23939
877.802	23954
877.93	23969
878.058	23923
878.185	23836
878.313	23828
878.441	23847
878.568	23661
878.696	23741
878.824	23870
878.951	24045
879.079	24030
879.206	24285
879.333	24041
879.461	23832
879.588	24087
879.715	24117
879.842	24190
879.97	23863
880.097	23729
880.224	23638
880.351	23718
880.478	23642
880.605	23558
880.732	23630
880.859	23996
880.986	23794
881.112	23722
881.239	23554
881.366	23505
881.493	23353
881.619	23246
881.746	23379
881.872	23273
881.999	23334
882.125	23159
882.252	23353
882.378	23220
882.505	23220
882.631	23303
882.757	22938
882.883	22999
883.01	22892
883.136	22896
883.262	22843
883.388	22790
883.514	22816
883.64	22953
883.766	22809
883.892	22615
884.018	22793
884.143	22915
884.269	22927
884.395	22565
884.52	22592
884.646	22664
884.772	22462
884.897	22424
885.023	22554
885.148	22637
885.274	22584
885.399	22516
885.524	22519
885.65	22622
885.775	22516
885.9	22592
886.025	22554
886.15	22713
886.275	22451
886.4	22413
886.525	22500
886.65	22546
886.775	22478
886.9	22679
887.025	22816
887.149	22630
887.274	22436
887.399	22360
887.523	22402
887.648	22253
887.773	22124
887.897	22474
888.021	22268
888.146	22234
888.27	22447
888.395	22478
888.519	22249
888.643	22268
888.767	22306
888.891	22223
889.015	22128
889.139	22196
889.263	22074
889.387	22223
889.511	22276
889.635	22173
889.759	22158
889.883	22040
890.006	22124
890.13	22169
890.254	22128
890.377	22048
890.501	21838
890.624	21808
890.748	21884
890.871	21819
890.995	21679
891.118	21583
891.241	21633
891.364	21644
891.488	21709
891.611	21591
891.734	21610
891.857	21701
891.98	21599
892.103	21842
892.226	21705
892.349	21713
892.471	21477
892.594	21553
892.717	21656
892.839	21572
892.962	21473
893.085	21557
893.207	21526
893.33	21351
893.452	21526
893.575	21644
893.697	21416
893.819	21705
893.941	21747
894.064	21675
894.186	21469
894.308	21469
894.43	21610
894.552	21572
894.674	21641
894.796	21351
894.918	21549
895.04	21447
895.161	21564
895.283	21595
895.405	21534
895.526	21485
895.648	21504
895.769	21458
895.891	21629
896.012	21553
896.134	21618
896.255	21500
896.376	21428
896.498	21496
896.619	21507
896.74	21435
896.861	21675
896.982	21785
897.103	22006
897.224	21743
897.345	21614
897.466	21614
897.587	21732
897.708	21876
897.828	21705
897.949	21553
898.07	21515
898.19	21618
898.311	21846
898.431	21595
898.552	21720
898.672	21701
898.792	21934
898.913	21686
899.033	21561
899.153	21397
899.273	21477
899.393	21336
899.513	21367
899.633	21386
899.753	21389
899.873	21393
899.993	21393
900.113	21355
900.232	21291
900.352	21408
900.472	21199
900.591	21268
900.711	21176
900.83	21245
900.95	21294
901.069	21180
901.189	21089
901.308	20765
901.427	20708
901.546	20667
901.665	20834
901.784	20758
901.904	20686
902.023	20469
902.141	20256
902.26	20256
902.379	20305
902.498	20065
902.617	20145
902.735	20248
902.854	20119
902.973	20142
903.091	19951
903.21	19970
903.328	19761
903.446	19822
903.565	19693
903.683	19723
903.801	19639
903.919	19537
904.038	19563
904.156	19434
904.274	19525
904.392	19373
904.51	19407
904.627	19453
904.745	19552
904.863	19392
904.981	19255
905.098	19175
905.216	19088
905.334	19099
905.451	19065
905.569	19019
905.686	19076
905.803	19137
905.921	18909
906.038	19027
906.155	18878
906.272	18802
906.389	18932
906.506	18684
906.623	18536
906.74	18642
906.857	18448
906.974	18460
907.091	18635
907.208	18700
907.324	18673
907.441	18517
907.557	18353
907.674	18372
907.79	18182
907.907	18194
908.023	18384
908.139	18361
908.256	18228
908.372	18174
908.488	18209
908.604	18148
908.72	17969
908.836	17927
908.952	18076
909.068	18106
909.184	18114
909.3	18003
909.415	18106
909.531	17973
909.647	17794
909.762	17722
909.878	17752
909.993	17649
910.108	17676
910.224	17726
910.339	17691
910.454	17592
910.57	17608
910.685	17490
910.8	17695
910.915	17737
911.03	17535
911.145	17356
911.259	17341
911.374	17417
911.489	17212
911.604	17155
911.718	17025
911.833	17079
911.947	17014
912.062	16881
912.176	17105
912.291	17056
912.405	17029
912.519	17307
912.633	17223
912.748	17098
912.862	16968
912.976	16824
913.09	16653
913.204	16862
913.318	16892
913.431	17014
913.545	16896
913.659	16961
913.772	16786
913.886	16668
914	16626
914.113	16706
914.226	16759
914.34	16618
914.453	16542
914.566	16687
914.68	16497
914.793	16432
914.906	16246
915.019	16223
915.132	16226
915.245	16158
915.358	16067
915.47	16135
915.583	16124
915.696	16276
915.809	16322
915.921	16375
916.034	16067
916.146	16055
916.259	16044
916.371	16166
916.483	16173
916.595	16074
916.708	15998
916.82	16013
916.932	15922
917.044	15895
917.156	15846
917.268	15880
917.38	15804
917.491	15831
917.603	15865
917.715	15823
917.826	15934
917.938	15713
918.049	15705
918.161	15679
918.272	15785
918.384	15846
918.495	15686
918.606	15637
918.717	15568
918.828	15614
918.939	15637
919.05	15641
919.161	15450
919.272	15332
919.383	15378
919.494	15511
919.604	15793
919.715	15545
919.826	15412
919.936	15458
920.047	15557
920.157	15553
920.267	15622
920.378	15393
920.488	15397
920.598	15637
920.708	15705
920.818	15564
920.928	15519
921.038	15774
921.148	15618
921.258	15477
921.368	15233
921.477	15237
921.587	15150
921.697	15066
921.806	15298
921.916	15024
922.025	14845
922.134	14777
922.244	14811
922.353	14804
922.462	14712
922.571	14632
922.68	14503
922.789	14511
922.898	14370
923.007	14389
923.116	14522
923.224	14545
923.333	14415
923.442	14336
923.55	14259
923.659	14320
923.767	14370
923.876	14301
923.984	14339
924.092	14142
924.201	14237
924.309	14130
924.417	14183
924.525	14176
924.633	14149
924.741	15089
924.849	13856
924.956	14016
925.064	13909
925.172	13807
925.279	13769
925.387	13890
925.494	13780
925.602	13963
925.709	13811
925.816	13666
925.924	13734
926.031	13791
926.138	13772
926.245	13814
926.352	13632
926.459	13791
926.566	13811
926.673	13704
926.779	13559
926.886	13556
926.993	13407
927.099	13407
927.206	13304
927.312	13331
927.419	13335
927.525	13384
927.631	13358
927.737	13312
927.843	13187
927.95	13069
928.056	13198
928.162	13225
928.267	13209
928.373	13818
928.479	13228
928.585	13000
928.69	13095
928.796	13031
928.901	13050
929.007	12806
929.112	13012
929.218	12973
929.323	13031
929.428	12757
929.533	13027
929.638	12844
929.743	12844
929.848	12848
929.953	12821
930.058	12734
930.163	12467
930.267	12486
930.372	12722
930.477	12525
930.581	12703
930.685	12593
930.79	12380
930.894	12483
930.998	12380
931.103	12445
931.207	12178
931.311	12155
931.415	12003
931.519	11737
931.623	11737
