Data from test_V78500241_569.txt Node
Date: Fri Mar 25 15:45:44 CST 2022
User: usil
Spectrometer: V785-0024
Trigger mode: 0
Integration Time (sec): 4.000000E-1
Scans to average: 1
Nonlinearity correction enabled: false
Boxcar width: 0
Storing dark spectrum: false
XAxis mode: Wavelengths
Number of Pixels in Spectrum: 1024
>>>>>Begin Spectral Data<<<<<
801.071	27260
801.214	27237
801.356	26929
801.499	26979
801.641	26807
801.783	26826
801.926	26994
802.068	26823
802.211	26705
802.353	26686
802.496	26621
802.638	26499
802.78	26385
802.923	26514
803.065	26339
803.208	26427
803.35	26495
803.492	26560
803.635	26644
803.777	26408
803.919	26625
804.061	26830
804.204	26648
804.346	26400
804.488	26423
804.63	26632
804.773	26476
804.915	26571
805.057	26621
805.199	26594
805.341	26667
805.483	26727
805.626	26651
805.768	26552
805.91	26655
806.052	26815
806.194	26629
806.336	26887
806.478	26762
806.62	26682
806.762	26804
806.904	27005
807.046	27370
807.188	27104
807.33	27127
807.472	27214
807.614	26963
807.756	27146
807.898	26872
808.04	26982
808.182	26975
808.324	26929
808.465	26902
808.607	27074
808.749	27268
808.891	27488
809.033	27542
809.174	27382
809.316	27336
809.458	27454
809.6	27252
809.741	27447
809.883	27652
810.025	27576
810.166	27511
810.308	27641
810.45	27576
810.591	27488
810.733	27306
810.875	27237
811.016	27287
811.158	27176
811.299	27458
811.441	27431
811.582	27557
811.724	27176
811.865	27302
812.007	27256
812.148	27321
812.29	27203
812.431	27473
812.573	27622
812.714	27663
812.855	27736
812.997	27781
813.138	28013
813.279	28021
813.421	27880
813.562	27941
813.703	27603
813.845	27466
813.986	27192
814.127	27165
814.268	27005
814.41	26944
814.551	26998
814.692	27074
814.833	26868
814.974	26956
815.115	26933
815.256	26861
815.397	26853
815.539	26910
815.68	26769
815.821	26883
815.962	26853
816.103	26682
816.244	26629
816.385	26617
816.526	26492
816.666	26305
816.807	26248
816.948	26195
817.089	26507
817.23	26233
817.371	26191
817.512	26225
817.653	26107
817.793	26233
817.934	26202
818.075	26206
818.216	26164
818.356	26115
818.497	26081
818.638	25974
818.778	26035
818.919	25947
819.06	26122
819.2	26088
819.341	26206
819.481	26259
819.622	26309
819.762	26617
819.903	26526
820.043	26351
820.184	26328
820.324	26366
820.465	26408
820.605	26427
820.746	26282
820.886	26214
821.026	26301
821.167	26256
821.307	26442
821.447	26244
821.588	26145
821.728	25989
821.868	25822
822.008	25719
822.149	25761
822.289	25677
822.429	25434
822.569	25327
822.709	25491
822.849	25327
822.99	25171
823.13	25027
823.27	25304
823.41	25053
823.55	24878
823.69	25069
823.83	25023
823.97	24939
824.11	24856
824.25	24825
824.389	24916
824.529	24924
824.669	24947
824.809	24954
824.949	24970
825.089	25053
825.228	24875
825.368	24722
825.508	24783
825.648	24730
825.787	24681
825.927	24882
826.067	24677
826.206	24734
826.346	24719
826.485	24856
826.625	24791
826.765	24875
826.904	24738
827.044	24521
827.183	24467
827.323	24395
827.462	24490
827.601	24521
827.741	24445
827.88	24391
828.02	24254
828.159	24388
828.298	24380
828.437	24646
828.577	24277
828.716	24532
828.855	24220
828.994	24087
829.134	24098
829.273	24121
829.412	24194
829.551	24083
829.69	24102
829.829	24095
829.968	24178
830.107	24262
830.246	24125
830.385	24057
830.524	23996
830.663	23897
830.802	23851
830.941	23718
831.08	23714
831.219	23813
831.357	23821
831.496	23901
831.635	23589
831.774	23676
831.913	23623
832.051	23493
832.19	23566
832.329	23558
832.467	23372
832.606	23341
832.744	23341
832.883	23528
833.022	23410
833.16	23337
833.299	23467
833.437	23455
833.576	23421
833.714	23421
833.852	23440
833.991	23531
834.129	23547
834.267	23577
834.406	23444
834.544	23482
834.682	23467
834.821	23486
834.959	23718
835.097	23341
835.235	23463
835.373	23433
835.511	23448
835.65	23322
835.788	23208
835.926	23277
836.064	23147
836.202	23117
836.34	23322
836.478	23330
836.615	23246
836.753	23349
836.891	23330
837.029	23433
837.167	23273
837.305	23162
837.443	23185
837.58	23056
837.718	23121
837.856	23147
837.993	23037
838.131	23200
838.269	22892
838.406	22984
838.544	22908
838.681	22847
838.819	22790
838.956	22603
839.094	22546
839.231	22691
839.369	22923
839.506	22911
839.643	22862
839.781	22641
839.918	22603
840.055	22618
840.193	22641
840.33	22653
840.467	22607
840.604	22592
840.742	22759
840.879	22466
841.016	22413
841.153	22428
841.29	22672
841.427	22573
841.564	22478
841.701	22519
841.838	22443
841.975	22474
842.112	22554
842.249	22276
842.385	22246
842.522	22485
842.659	22344
842.796	22299
842.933	22322
843.069	22181
843.206	22230
843.343	22360
843.479	22268
843.616	22226
843.752	21968
843.889	22036
844.025	22158
844.162	22029
844.298	22200
844.435	22070
844.571	21949
844.708	22074
844.844	22276
844.98	22177
845.117	22036
845.253	21987
845.389	21880
845.525	21949
845.661	21972
845.798	21876
845.934	21884
846.07	21682
846.206	21819
846.342	22010
846.478	21812
846.614	21652
846.75	21500
846.886	21637
847.022	21603
847.158	21656
847.294	21549
847.429	21591
847.565	21519
847.701	21785
847.837	21245
847.972	21298
848.108	21329
848.244	21321
848.379	21252
848.515	21157
848.65	21116
848.786	21013
848.921	21100
849.057	21287
849.192	21138
849.328	21188
849.463	20998
849.598	21138
849.734	21131
849.869	20956
850.004	20891
850.14	21005
850.275	20834
850.41	20765
850.545	20807
850.68	20910
850.815	20982
850.95	20887
851.085	21039
851.22	20941
851.355	20910
851.49	20883
851.625	20838
851.76	20929
851.895	20724
852.03	20834
852.165	20853
852.299	20944
852.434	21036
852.569	20872
852.703	20838
852.838	20906
852.973	20982
853.107	21051
853.242	20857
853.376	20716
853.511	20583
853.645	20632
853.78	20819
853.914	20686
854.048	20613
854.183	20682
854.317	20720
854.451	20853
854.585	20659
854.72	20609
854.854	20842
854.988	20678
855.122	20762
855.256	20571
855.39	20655
855.524	20720
855.658	20693
855.792	20765
855.926	20765
856.06	20689
856.194	20857
856.327	20708
856.461	20640
856.595	20712
856.729	20549
856.862	20731
856.996	20792
857.13	20716
857.263	20815
857.397	20792
857.53	20712
857.664	20792
857.797	20682
857.931	20823
858.064	20762
858.197	20800
858.331	20667
858.464	20609
858.597	20655
858.731	20571
858.864	20659
858.997	20701
859.13	20651
859.263	20632
859.396	20746
859.529	20701
859.662	20777
859.795	20712
859.928	20617
860.061	20792
860.194	20872
860.327	20788
860.46	20678
860.592	20906
860.725	20746
860.858	20830
860.99	20724
861.123	20594
861.256	20575
861.388	20743
861.521	21272
861.653	20533
861.786	20552
861.918	20560
862.05	20644
862.183	20708
862.315	20663
862.447	20689
862.58	20488
862.712	20461
862.844	20301
862.976	20625
863.108	20408
863.24	21055
863.372	20362
863.504	20393
863.636	20442
863.768	20514
863.9	20461
864.032	20332
864.164	20408
864.296	20408
864.428	20454
864.559	20590
864.691	20499
864.823	20518
864.954	20339
865.086	20457
865.217	20347
865.349	20298
865.48	20362
865.612	20389
865.743	20503
865.875	20362
866.006	20339
866.137	20267
866.269	20290
866.4	20305
866.531	20366
866.662	20317
866.793	20259
866.924	20343
867.055	20271
867.186	20244
867.317	20195
867.448	20073
867.579	20256
867.71	20122
867.841	20103
867.972	20240
868.103	20142
868.233	20320
868.364	20328
868.495	20362
868.625	20503
868.756	20469
868.886	20324
869.017	20533
869.147	20507
869.278	20621
869.408	20537
869.539	20537
869.669	20507
869.799	20659
869.929	20571
870.06	20648
870.19	20765
870.32	20819
870.45	20758
870.58	20868
870.71	21036
870.84	20887
870.97	20910
871.1	20895
871.23	21077
871.36	21195
871.489	20986
871.619	21074
871.749	21112
871.879	21180
872.008	21146
872.138	21070
872.267	21032
872.397	20971
872.526	20857
872.656	21005
872.785	20967
872.915	21142
873.044	21192
873.173	21116
873.303	21203
873.432	21230
873.561	21184
873.69	21161
873.819	21085
873.948	21131
874.077	21188
874.206	21116
874.335	21093
874.464	21230
874.593	21382
874.722	21268
874.851	21298
874.979	21313
875.108	21454
875.237	21291
875.365	21279
875.494	21405
875.623	21420
875.751	21401
875.88	21450
876.008	21454
876.136	21515
876.265	21812
876.393	21835
876.521	21808
876.65	21778
876.778	21656
876.906	21656
877.034	21755
877.162	21724
877.29	21603
877.418	21717
877.546	21717
877.674	21732
877.802	21698
877.93	21698
878.058	21663
878.185	21580
878.313	21629
878.441	21686
878.568	21488
878.696	21717
878.824	21785
878.951	21804
879.079	21903
879.206	21941
879.333	21835
879.461	21819
879.588	21888
879.715	21800
879.842	22112
879.97	21698
880.097	21606
880.224	21564
880.351	21526
880.478	21523
880.605	21526
880.732	21622
880.859	21606
880.986	21538
881.112	21648
881.239	21458
881.366	21268
881.493	21256
881.619	21188
881.746	21070
881.872	21176
881.999	21173
882.125	21013
882.252	21192
882.378	21116
882.505	21214
882.631	21055
882.757	20902
882.883	20982
883.01	20864
883.136	20705
883.262	20716
883.388	20765
883.514	20838
883.64	20796
883.766	20674
883.892	20537
884.018	20598
884.143	20750
884.269	20914
884.395	20511
884.52	20442
884.646	20469
884.772	20423
884.897	20210
885.023	20571
885.148	20621
885.274	20651
885.399	20408
885.524	20434
885.65	20549
885.775	20473
885.9	20377
886.025	20651
886.15	20431
886.275	20446
886.4	20393
886.525	20389
886.65	20358
886.775	20396
886.9	20617
887.025	20686
887.149	20476
887.274	20195
887.399	20214
887.523	20172
887.648	20199
887.773	20065
887.897	20286
888.021	20199
888.146	20191
888.27	20240
888.395	20320
888.519	20317
888.643	20256
888.767	20244
888.891	20164
889.015	20084
889.139	20096
889.263	20062
889.387	20149
889.511	20263
889.635	20206
889.759	20031
889.883	20024
890.006	20065
890.13	20225
890.254	19967
890.377	20103
890.501	19822
890.624	19742
890.748	19860
890.871	19700
890.995	19559
891.118	19559
891.241	19761
891.364	19525
891.488	19719
891.611	19563
891.734	19693
891.857	19586
891.98	19590
892.103	19639
892.226	19609
892.349	19510
892.471	19514
892.594	19624
892.717	19563
892.839	19578
892.962	19521
893.085	19586
893.207	19556
893.33	19537
893.452	19540
893.575	19643
893.697	19578
893.819	19765
893.941	19696
894.064	19731
894.186	19449
894.308	19571
894.43	19578
894.552	19571
894.674	19723
894.796	19472
894.918	19590
895.04	19552
895.161	19582
895.283	19696
895.405	19540
895.526	19578
895.648	19548
895.769	19647
895.891	19594
896.012	19696
896.134	19544
896.255	19696
896.376	19544
896.498	19696
896.619	19506
896.74	19533
896.861	19685
896.982	19902
897.103	20103
897.224	19940
897.345	19708
897.466	19738
897.587	19875
897.708	19982
897.828	19856
897.949	19677
898.07	19708
898.19	19769
898.311	19913
898.431	19913
898.552	19761
898.672	19906
898.792	19890
898.913	19921
899.033	19715
899.153	19757
899.273	19453
899.393	19635
899.513	19582
899.633	19601
899.753	19533
899.873	19499
899.993	19616
900.113	19472
900.232	19495
900.352	19571
900.472	19369
900.591	19377
900.711	19441
900.83	19285
900.95	19499
901.069	19343
901.189	19289
901.308	19107
901.427	18939
901.546	18966
901.665	19008
901.784	18867
901.904	18859
902.023	18783
902.141	18589
902.26	18456
902.379	18540
902.498	18448
902.617	18479
902.735	18483
902.854	18388
902.973	18433
903.091	18201
903.21	18125
903.328	18110
903.446	17996
903.565	17980
903.683	18083
903.801	17821
903.919	17958
904.038	18034
904.156	17786
904.274	17775
904.392	17661
904.51	17596
904.627	17726
904.745	17623
904.863	17745
904.981	17512
905.098	17364
905.216	17474
905.334	17360
905.451	17372
905.569	17429
905.686	17353
905.803	17330
905.921	17124
906.038	17181
906.155	17159
906.272	17056
906.389	17140
906.506	17029
906.623	16942
906.74	16934
906.857	16759
906.974	16713
907.091	16889
907.208	17064
907.324	17064
907.441	16828
907.557	16611
907.674	16546
907.79	16538
907.907	16668
908.023	16607
908.139	16649
908.256	16603
908.372	16615
908.488	16489
908.604	16322
908.72	16306
908.836	16344
908.952	16341
909.068	16329
909.184	16455
909.3	16440
909.415	16360
909.531	16382
909.647	16211
909.762	16021
909.878	16006
909.993	16067
910.108	16048
910.224	15941
910.339	16032
910.454	15876
910.57	15876
910.685	15842
910.8	16101
910.915	16059
911.03	15865
911.145	15743
911.259	15709
911.374	15679
911.489	15633
911.604	15629
911.718	15382
911.833	15466
911.947	15344
912.062	15218
912.176	15401
912.291	15435
912.405	15363
912.519	15656
912.633	15584
912.748	15443
912.862	15473
912.976	15256
913.09	15123
913.204	15138
913.318	15233
913.431	15348
913.545	15359
913.659	15393
913.772	15268
913.886	15028
914	15066
914.113	15077
914.226	15195
914.34	15055
914.453	14925
914.566	15024
914.68	15005
914.793	14956
914.906	14682
915.019	14682
915.132	14636
915.245	14678
915.358	14727
915.47	14651
915.583	14678
915.696	14606
915.809	14773
915.921	14792
916.034	14571
916.146	14514
916.259	14655
916.371	14621
916.483	14545
916.595	14465
916.708	14488
916.82	14473
916.932	14507
917.044	14480
917.156	14438
917.268	14336
917.38	14358
917.491	14358
917.603	14313
917.715	14442
917.826	14438
917.938	14244
918.049	14153
918.161	14263
918.272	14450
918.384	14381
918.495	14240
918.606	14130
918.717	14054
918.828	14039
918.939	14123
919.05	14081
919.161	14168
919.272	13894
919.383	13986
919.494	14145
919.604	14355
919.715	14073
919.826	14077
919.936	14096
920.047	14077
920.157	14092
920.267	14214
920.378	14111
920.488	14103
920.598	14278
920.708	14347
920.818	14183
920.928	14248
921.038	14366
921.148	14339
921.258	14016
921.368	14058
921.477	13898
921.587	13887
921.697	13658
921.806	13868
921.916	13700
922.025	13597
922.134	13468
922.244	13388
922.353	13476
922.462	13339
922.571	13343
922.68	13118
922.789	13118
922.898	13053
923.007	13069
923.116	13164
923.224	13107
923.333	13156
923.442	13004
923.55	13008
923.659	12905
923.767	13008
923.876	12935
923.984	13008
924.092	12878
924.201	12905
924.309	12878
924.417	12840
924.525	12856
924.633	12768
924.741	13841
924.849	12631
924.956	12707
925.064	12711
925.172	12479
925.279	12521
925.387	12654
925.494	12627
925.602	12715
925.709	12563
925.816	12441
925.924	12486
926.031	12528
926.138	12540
926.245	12547
926.352	12456
926.459	12544
926.566	12582
926.673	12399
926.779	12334
926.886	12323
926.993	12178
927.099	12106
927.206	12019
927.312	12133
927.419	12277
927.525	12159
927.631	12239
927.737	12117
927.843	11992
927.95	11904
928.056	11946
928.162	11996
928.267	12064
928.373	12597
928.479	12007
928.585	11710
928.69	11904
928.796	12095
928.901	11805
929.007	11718
929.112	11908
929.218	11863
929.323	11805
929.428	11741
929.533	11863
929.638	11657
929.743	11649
929.848	11684
929.953	11710
930.058	11547
930.163	11387
930.267	11436
930.372	11585
930.477	11280
930.581	11592
930.685	11474
930.79	11330
930.894	11337
930.998	11273
931.103	11398
931.207	11079
931.311	11022
931.415	10991
931.519	10729
931.623	10687
