Data from test_V78500241_1651.txt Node
Date: Fri Mar 25 15:53:14 CST 2022
User: usil
Spectrometer: V785-0024
Trigger mode: 0
Integration Time (sec): 4.000000E-1
Scans to average: 1
Nonlinearity correction enabled: false
Boxcar width: 0
Storing dark spectrum: false
XAxis mode: Wavelengths
Number of Pixels in Spectrum: 1024
>>>>>Begin Spectral Data<<<<<
801.071	27705
801.214	27507
801.356	27382
801.499	27317
801.641	27226
801.783	27203
801.926	27176
802.068	27245
802.211	27203
802.353	27112
802.496	26940
802.638	26929
802.78	26807
802.923	26716
803.065	26640
803.208	26804
803.35	26762
803.492	26785
803.635	26971
803.777	26956
803.919	27180
804.061	27351
804.204	27100
804.346	27001
804.488	26925
804.63	26994
804.773	27055
804.915	27024
805.057	27123
805.199	27062
805.341	27028
805.483	27241
805.626	27233
805.768	27020
805.91	27272
806.052	27108
806.194	27100
806.336	27321
806.478	27233
806.62	27199
806.762	27325
806.904	27595
807.046	27743
807.188	27618
807.33	27652
807.472	27739
807.614	27526
807.756	27705
807.898	27542
808.04	27367
808.182	27363
808.324	27538
808.465	27500
808.607	27728
808.749	27770
808.891	27899
809.033	28120
809.174	27926
809.316	27819
809.458	27743
809.6	27698
809.741	28006
809.883	28021
810.025	28021
810.166	28101
810.308	28082
810.45	28044
810.591	28029
810.733	27850
810.875	27663
811.016	27591
811.158	27728
811.299	27717
811.441	27903
811.582	27899
811.724	27720
811.865	27686
812.007	27759
812.148	27797
812.29	27808
812.431	28025
812.573	28188
812.714	28268
812.855	28196
812.997	28523
813.138	28580
813.279	28390
813.421	28440
813.562	28181
813.703	28135
813.845	28029
813.986	27774
814.127	27599
814.268	27408
814.41	27606
814.551	27561
814.692	27477
814.833	27363
814.974	27382
815.115	27477
815.256	27454
815.397	27313
815.539	27420
815.68	27351
815.821	27150
815.962	27336
816.103	27237
816.244	27062
816.385	27077
816.526	27055
816.666	26914
816.807	26746
816.948	26796
817.089	26823
817.23	26842
817.371	26750
817.512	26762
817.653	26777
817.793	26579
817.934	26735
818.075	26640
818.216	26655
818.356	26731
818.497	26648
818.638	26492
818.778	26537
818.919	26377
819.06	26526
819.2	26598
819.341	26636
819.481	26727
819.622	26914
819.762	27100
819.903	27081
820.043	26887
820.184	26952
820.324	26792
820.465	27009
820.605	26861
820.746	26880
820.886	26594
821.026	26716
821.167	26788
821.307	26921
821.447	26674
821.588	26514
821.728	26396
821.868	26476
822.008	26252
822.149	26259
822.289	26237
822.429	26046
822.569	25955
822.709	25860
822.849	25708
822.99	25655
823.13	25765
823.27	25708
823.41	25445
823.55	25457
823.69	25563
823.83	25586
823.97	25411
824.11	25228
824.25	25373
824.389	25350
824.529	25499
824.669	25350
824.809	25407
824.949	25457
825.089	25468
825.228	25495
825.368	25209
825.508	25244
825.648	25206
825.787	25396
825.927	25270
826.067	25088
826.206	25247
826.346	25270
826.485	25183
826.625	25236
826.765	25369
826.904	25217
827.044	24962
827.183	25023
827.323	24935
827.462	24954
827.601	24913
827.741	24882
827.88	24981
828.02	24802
828.159	24932
828.298	25034
828.437	25027
828.577	24894
828.716	24916
828.855	24745
828.994	24525
829.134	24494
829.273	24544
829.412	24608
829.551	24544
829.69	24620
829.829	24585
829.968	24715
830.107	24654
830.246	24639
830.385	24505
830.524	24517
830.663	24502
830.802	24296
830.941	24102
831.08	24045
831.219	24448
831.357	24247
831.496	24384
831.635	24167
831.774	24125
831.913	24083
832.051	24057
832.19	23961
832.329	23969
832.467	23809
832.606	23802
832.744	23901
832.883	23874
833.022	23779
833.16	23821
833.299	23954
833.437	23802
833.576	23946
833.714	24003
833.852	24068
833.991	23996
834.129	23992
834.267	24030
834.406	23950
834.544	24079
834.682	23863
834.821	23946
834.959	24163
835.097	23912
835.235	24011
835.373	23927
835.511	24034
835.65	23817
835.788	23767
835.926	23668
836.064	23611
836.202	23695
836.34	23809
836.478	23840
836.615	23737
836.753	23653
836.891	23809
837.029	23741
837.167	23600
837.305	23722
837.443	23752
837.58	23646
837.718	23695
837.856	23794
837.993	23528
838.131	23672
838.269	23459
838.406	23486
838.544	23436
838.681	23269
838.819	23299
838.956	23113
839.094	23227
839.231	23147
839.369	23296
839.506	23551
839.643	23280
839.781	23025
839.918	23044
840.055	23162
840.193	22987
840.33	23044
840.467	23086
840.604	23079
840.742	23265
840.879	22885
841.016	22946
841.153	23029
841.29	23197
841.427	22968
841.564	23098
841.701	23025
841.838	22869
841.975	22927
842.112	22946
842.249	22835
842.385	22801
842.522	22961
842.659	22850
842.796	22717
842.933	22607
843.069	22592
843.206	22622
843.343	22790
843.479	22835
843.616	22809
843.752	22466
843.889	22436
844.025	22588
844.162	22497
844.298	22637
844.435	22508
844.571	22466
844.708	22531
844.844	22744
844.98	22679
845.117	22672
845.253	22436
845.389	22443
845.525	22440
845.661	22318
845.798	22272
845.934	22299
846.07	22276
846.206	22337
846.342	22318
846.478	22162
846.614	22051
846.75	21812
846.886	21953
847.022	22025
847.158	21964
847.294	22048
847.429	22124
847.565	22044
847.701	22257
847.837	21709
847.972	21663
848.108	21899
848.244	21785
848.379	21633
848.515	21679
848.65	21523
848.786	21709
848.921	21656
849.057	21827
849.192	21671
849.328	21568
849.463	21679
849.598	21488
849.734	21439
849.869	21439
850.004	21370
850.14	21416
850.275	21344
850.41	21351
850.545	21226
850.68	21279
850.815	21507
850.95	21370
851.085	21466
851.22	21454
851.355	21450
851.49	21283
851.625	21222
851.76	21325
851.895	21405
852.03	21317
852.165	21412
852.299	21496
852.434	21355
852.569	21344
852.703	21435
852.838	21435
852.973	21450
853.107	21435
853.242	21321
853.376	21279
853.511	21074
853.645	21241
853.78	21287
853.914	21264
854.048	21207
854.183	21214
854.317	21283
854.451	21325
854.585	21188
854.72	21173
854.854	21275
854.988	21135
855.122	21214
855.256	21093
855.39	21154
855.524	21241
855.658	21348
855.792	21203
855.926	21214
856.06	21104
856.194	21294
856.327	21112
856.461	21062
856.595	21165
856.729	21154
856.862	21325
856.996	21313
857.13	21116
857.263	21340
857.397	21291
857.53	21070
857.664	21275
857.797	21241
857.931	21310
858.064	21233
858.197	21294
858.331	21043
858.464	21127
858.597	20994
858.731	21169
858.864	21093
858.997	21131
859.13	21173
859.263	21165
859.396	21340
859.529	21165
859.662	21157
859.795	21165
859.928	21047
860.061	21374
860.194	21268
860.327	21298
860.46	21131
860.592	21374
860.725	21317
860.858	21313
860.99	21127
861.123	21184
861.256	20990
861.388	21180
861.521	21850
861.653	21047
861.786	20868
861.918	21055
862.05	21180
862.183	21085
862.315	21184
862.447	21138
862.58	21085
862.712	20864
862.844	20864
862.976	21024
863.108	21058
863.24	21313
863.372	20956
863.504	20914
863.636	20933
863.768	20941
863.9	20849
864.032	20758
864.164	20853
864.296	21165
864.428	21032
864.559	20861
864.691	20880
864.823	20952
864.954	20975
865.086	20773
865.217	20902
865.349	20689
865.48	20830
865.612	20800
865.743	20906
865.875	20815
866.006	20735
866.137	20785
866.269	20785
866.4	20762
866.531	20765
866.662	20705
866.793	20655
866.924	20773
867.055	20773
867.186	20731
867.317	20762
867.448	20743
867.579	20617
867.71	20663
867.841	20705
867.972	20849
868.103	20727
868.233	20651
868.364	20705
868.495	20781
868.625	21001
868.756	21096
868.886	21005
869.017	21020
869.147	21112
869.278	21173
869.408	20921
869.539	20948
869.669	21096
869.799	20887
869.929	21039
870.06	21085
870.19	21283
870.32	21325
870.45	21226
870.58	21302
870.71	21553
870.84	21473
870.97	21351
871.1	21443
871.23	21530
871.36	21728
871.489	21397
871.619	21496
871.749	21625
871.879	21724
872.008	21633
872.138	21587
872.267	21492
872.397	21500
872.526	21485
872.656	21439
872.785	21515
872.915	21511
873.044	21671
873.173	21595
873.303	21717
873.432	21720
873.561	21842
873.69	21679
873.819	21770
873.948	21720
874.077	21660
874.206	21530
874.335	21644
874.464	21656
874.593	21865
874.722	21755
874.851	21819
874.979	21934
875.108	21873
875.237	21892
875.365	21713
875.494	21884
875.623	21915
875.751	21770
875.88	21838
876.008	21911
876.136	22070
876.265	22204
876.393	22394
876.521	22242
876.65	22344
876.778	22097
876.906	22120
877.034	22120
877.162	22226
877.29	22185
877.418	22139
877.546	22215
877.674	22196
877.802	22181
877.93	22162
878.058	22143
878.185	21945
878.313	22169
878.441	22040
878.568	22017
878.696	22139
878.824	22143
878.951	22207
879.079	22291
879.206	22462
879.333	22402
879.461	22154
879.588	22329
879.715	22360
879.842	22474
879.97	22284
880.097	22029
880.224	21987
880.351	22090
880.478	21975
880.605	21956
880.732	22048
880.859	22348
880.986	21926
881.112	21991
881.239	21983
881.366	21675
881.493	21713
881.619	21618
881.746	21561
881.872	21591
881.999	21705
882.125	21462
882.252	21564
882.378	21504
882.505	21686
882.631	21469
882.757	21298
882.883	21378
883.01	21367
883.136	21138
883.262	21096
883.388	21100
883.514	21306
883.64	21359
883.766	21142
883.892	21066
884.018	21093
884.143	21226
884.269	21233
884.395	20971
884.52	20910
884.646	20883
884.772	20845
884.897	20731
885.023	20895
885.148	20994
885.274	21169
885.399	21066
885.524	20864
885.65	21005
885.775	20941
885.9	20807
886.025	21024
886.15	21070
886.275	20842
886.4	20716
886.525	20899
886.65	20880
886.775	20727
886.9	20933
887.025	21096
887.149	20891
887.274	20815
887.399	20739
887.523	20746
887.648	20640
887.773	20552
887.897	20762
888.021	20807
888.146	20518
888.27	20712
888.395	20811
888.519	20598
888.643	20682
888.767	20697
888.891	20514
889.015	20457
889.139	20511
889.263	20533
889.387	20568
889.511	20613
889.635	20476
889.759	20347
889.883	20514
890.006	20583
890.13	20564
890.254	20469
890.377	20450
890.501	20396
890.624	20149
890.748	20317
890.871	20172
890.995	20012
891.118	19925
891.241	20126
891.364	20024
891.488	20103
891.611	20062
891.734	20050
891.857	20031
891.98	19974
892.103	20153
892.226	19959
892.349	20008
892.471	19807
892.594	19955
892.717	19959
892.839	19940
892.962	19921
893.085	20001
893.207	19986
893.33	19738
893.452	19959
893.575	20046
893.697	19947
893.819	20027
893.941	20180
894.064	20054
894.186	20024
894.308	19917
894.43	20039
894.552	20115
894.674	20039
894.796	19890
894.918	19928
895.04	19860
895.161	19944
895.283	20039
895.405	19932
895.526	20073
895.648	19978
895.769	20005
895.891	20008
896.012	19989
896.134	19974
896.255	19944
896.376	19982
896.498	19898
896.619	20027
896.74	19909
896.861	20024
896.982	20252
897.103	20408
897.224	20221
897.345	20119
897.466	20183
897.587	20119
897.708	20290
897.828	20180
897.949	20115
898.07	19944
898.19	20065
898.311	20282
898.431	20172
898.552	20142
898.672	20206
898.792	20252
898.913	20149
899.033	20081
899.153	20077
899.273	19951
899.393	19921
899.513	19883
899.633	20054
899.753	19978
899.873	19974
899.993	19989
900.113	19913
900.232	19936
900.352	19864
900.472	19769
900.591	19704
900.711	19712
900.83	19696
900.95	19925
901.069	19799
901.189	19563
901.308	19415
901.427	19320
901.546	19320
901.665	19430
901.784	19335
901.904	19187
902.023	19118
902.141	18901
902.26	18817
902.379	18996
902.498	18897
902.617	18726
902.735	18814
902.854	18688
902.973	18745
903.091	18574
903.21	18426
903.328	18441
903.446	18357
903.565	18304
903.683	18251
903.801	18110
903.919	18190
904.038	18254
904.156	18076
904.274	18171
904.392	18110
904.51	18049
904.627	18011
904.745	18053
904.863	18136
904.981	17821
905.098	17661
905.216	17707
905.334	17809
905.451	17786
905.569	17661
905.686	17771
905.803	17623
905.921	17539
906.038	17604
906.155	17558
906.272	17429
906.389	17478
906.506	17208
906.623	17299
906.74	17273
906.857	17178
906.974	17204
907.091	17349
907.208	17341
907.324	17307
907.441	17181
907.557	17033
907.674	16961
907.79	16904
907.907	16873
908.023	16984
908.139	16919
908.256	16946
908.372	16847
908.488	16869
908.604	16793
908.72	16748
908.836	16713
908.952	16694
909.068	16755
909.184	16862
909.3	16607
909.415	16793
909.531	16774
909.647	16443
909.762	16436
909.878	16382
909.993	16348
910.108	16447
910.224	16363
910.339	16363
910.454	16166
910.57	16261
910.685	16188
910.8	16462
910.915	16352
911.03	16249
911.145	16131
911.259	15949
911.374	16048
911.489	15987
911.604	15899
911.718	15812
911.833	15739
911.947	15652
912.062	15614
912.176	15690
912.291	15800
912.405	15816
912.519	15983
912.633	15987
912.748	15918
912.862	15705
912.976	15671
913.09	15542
913.204	15614
913.318	15504
913.431	15724
913.545	15694
913.659	15660
913.772	15511
913.886	15408
914	15317
914.113	15428
914.226	15526
914.34	15485
914.453	15260
914.566	15374
914.68	15195
914.793	15222
914.906	15081
915.019	15112
915.132	15028
915.245	14956
915.358	14937
915.47	14883
915.583	14990
915.696	14967
915.809	15116
915.921	15051
916.034	15051
916.146	14838
916.259	14872
916.371	14986
916.483	14944
916.595	14785
916.708	14807
916.82	14819
916.932	14811
917.044	14739
917.156	14735
917.268	14697
917.38	14678
917.491	14636
917.603	14716
917.715	14739
917.826	14727
917.938	14644
918.049	14480
918.161	14564
918.272	14670
918.384	14712
918.495	14636
918.606	14408
918.717	14393
918.828	14396
918.939	14518
919.05	14377
919.161	14298
919.272	14183
919.383	14278
919.494	14454
919.604	14545
919.715	14427
919.826	14347
919.936	14298
920.047	14480
920.157	14366
920.267	14495
920.378	14442
920.488	14328
920.598	14522
920.708	14667
920.818	14457
920.928	14404
921.038	14655
921.148	14617
921.258	14408
921.368	14176
921.477	14172
921.587	14111
921.697	14027
921.806	14123
921.916	14035
922.025	13917
922.134	13849
922.244	13643
922.353	13750
922.462	13681
922.571	13628
922.68	13438
922.789	13343
922.898	13483
923.007	13358
923.116	13460
923.224	13377
923.333	13400
923.442	13331
923.55	13316
923.659	13282
923.767	13324
923.876	13228
923.984	13259
924.092	13156
924.201	13183
924.309	13107
924.417	13228
924.525	13133
924.633	13107
924.741	13864
924.849	12814
924.956	13046
925.064	12848
925.172	12779
925.279	12817
925.387	12810
925.494	12894
925.602	12947
925.709	12890
925.816	12829
925.924	12749
926.031	12894
926.138	12776
926.245	12833
926.352	12627
926.459	12817
926.566	12932
926.673	12696
926.779	12563
926.886	12563
926.993	12357
927.099	12388
927.206	12285
927.312	12342
927.419	12391
927.525	12403
927.631	12388
927.737	12300
927.843	12251
927.95	12148
928.056	12224
928.162	12277
928.267	12273
928.373	12894
928.479	12228
928.585	12079
928.69	12144
928.796	12228
928.901	12064
929.007	11916
929.112	12064
929.218	12083
929.323	11988
929.428	11965
929.533	12049
929.638	11870
929.743	11901
929.848	11923
929.953	11984
930.058	11752
930.163	11695
930.267	11623
930.372	11771
930.477	11611
930.581	11882
930.685	11760
930.79	11524
930.894	11600
930.998	11532
931.103	11684
931.207	11318
931.311	11223
931.415	11064
931.519	10991
931.623	10923
