Data from test_V78500241_3524.txt Node
Date: Fri Mar 25 16:06:12 CST 2022
User: usil
Spectrometer: V785-0024
Trigger mode: 0
Integration Time (sec): 4.000000E-1
Scans to average: 1
Nonlinearity correction enabled: false
Boxcar width: 0
Storing dark spectrum: false
XAxis mode: Wavelengths
Number of Pixels in Spectrum: 1024
>>>>>Begin Spectral Data<<<<<
801.071	28885
801.214	28904
801.356	28626
801.499	28584
801.641	28421
801.783	28516
801.926	28618
802.068	28497
802.211	28417
802.353	28417
802.496	28360
802.638	28303
802.78	28299
802.923	28219
803.065	28124
803.208	28188
803.35	28265
803.492	28478
803.635	28409
803.777	28261
803.919	28409
804.061	28877
804.204	28538
804.346	28451
804.488	28432
804.63	28459
804.773	28352
804.915	28424
805.057	28649
805.199	28493
805.341	28527
805.483	28641
805.626	28538
805.768	28493
805.91	28481
806.052	28869
806.194	28531
806.336	28805
806.478	28771
806.62	28596
806.762	28904
806.904	29006
807.046	29250
807.188	29079
807.33	29189
807.472	29064
807.614	28987
807.756	29204
807.898	28942
808.04	28984
808.182	29022
808.324	29003
808.465	29029
808.607	29204
808.749	29387
808.891	29444
809.033	29630
809.174	29303
809.316	29391
809.458	29490
809.6	29220
809.741	29375
809.883	29581
810.025	29642
810.166	29649
810.308	29615
810.45	29505
810.591	29649
810.733	29356
810.875	29315
811.016	29410
811.158	29318
811.299	29745
811.441	29368
811.582	29528
811.724	29349
811.865	29360
812.007	29570
812.148	29402
812.29	29520
812.431	29577
812.573	29691
812.714	29775
812.855	29939
812.997	30091
813.138	30144
813.279	30026
813.421	30038
813.562	29954
813.703	29798
813.845	29695
813.986	29387
814.127	29124
814.268	29166
814.41	29083
814.551	29170
814.692	29288
814.833	29052
814.974	29060
815.115	29113
815.256	29041
815.397	29003
815.539	28999
815.68	28923
815.821	28911
815.962	28900
816.103	29037
816.244	28782
816.385	28717
816.526	28687
816.666	28554
816.807	28371
816.948	28470
817.089	28588
817.23	28459
817.371	28607
817.512	28421
817.653	28344
817.793	28386
817.934	28295
818.075	28481
818.216	28428
818.356	28344
818.497	28303
818.638	28215
818.778	28303
818.919	28253
819.06	28348
819.2	28413
819.341	28421
819.481	28382
819.622	28493
819.762	28664
819.903	28622
820.043	28637
820.184	28694
820.324	28596
820.465	28721
820.605	28519
820.746	28668
820.886	28451
821.026	28493
821.167	28443
821.307	28596
821.447	28432
821.588	28352
821.728	28265
821.868	27994
822.008	27987
822.149	27918
822.289	27861
822.429	27610
822.569	27572
822.709	27561
822.849	27530
822.99	27370
823.13	27420
823.27	27424
823.41	27230
823.55	27157
823.69	27268
823.83	27222
823.97	27233
824.11	27218
824.25	27017
824.389	26979
824.529	27081
824.669	27161
824.809	27230
824.949	27123
825.089	27207
825.228	27230
825.368	27055
825.508	26982
825.648	26960
825.787	26937
825.927	26998
826.067	27005
826.206	26998
826.346	27146
826.485	27051
826.625	26982
826.765	27055
826.904	26967
827.044	26819
827.183	26830
827.323	26587
827.462	26754
827.601	26716
827.741	26708
827.88	26701
828.02	26655
828.159	26621
828.298	26667
828.437	26739
828.577	26701
828.716	26758
828.855	26499
828.994	26351
829.134	26324
829.273	26484
829.412	26328
829.551	26240
829.69	26320
829.829	26309
829.968	26473
830.107	26336
830.246	26332
830.385	26244
830.524	26187
830.663	26149
830.802	26176
830.941	25970
831.08	26046
831.219	26020
831.357	26058
831.496	26214
831.635	25982
831.774	26005
831.913	25837
832.051	25761
832.19	25856
832.329	25818
832.467	25738
832.606	25666
832.744	25662
832.883	25567
833.022	25666
833.16	25586
833.299	25674
833.437	25620
833.576	25719
833.714	25693
833.852	25689
833.991	25807
834.129	25814
834.267	25814
834.406	25731
834.544	25685
834.682	25689
834.821	25734
834.959	25917
835.097	25616
835.235	25822
835.373	25712
835.511	25742
835.65	25590
835.788	25605
835.926	25457
836.064	25301
836.202	25479
836.34	25571
836.478	25677
836.615	25518
836.753	25525
836.891	25685
837.029	25582
837.167	25430
837.305	25403
837.443	25384
837.58	25339
837.718	25411
837.856	25430
837.993	25236
838.131	25384
838.269	25255
838.406	25316
838.544	25088
838.681	25027
838.819	24901
838.956	24787
839.094	24787
839.231	24905
839.369	24989
839.506	25285
839.643	25114
839.781	24848
839.918	24802
840.055	24837
840.193	24810
840.33	24772
840.467	24802
840.604	24722
840.742	25031
840.879	24719
841.016	24669
841.153	24597
841.29	24764
841.427	24776
841.564	24814
841.701	24715
841.838	24620
841.975	24684
842.112	24719
842.249	24509
842.385	24486
842.522	24673
842.659	24601
842.796	24445
842.933	24418
843.069	24361
843.206	24369
843.343	24555
843.479	24585
843.616	24566
843.752	24292
843.889	24216
844.025	24467
844.162	24205
844.298	24376
844.435	24201
844.571	24152
844.708	24285
844.844	24414
844.98	24388
845.117	24399
845.253	24243
845.389	24144
845.525	24155
845.661	24098
845.798	24098
845.934	23984
846.07	24068
846.206	24030
846.342	24155
846.478	24083
846.614	23786
846.75	23687
846.886	23729
847.022	23817
847.158	23843
847.294	23745
847.429	23726
847.565	23608
847.701	23889
847.837	23455
847.972	23398
848.108	23406
848.244	23471
848.379	23341
848.515	23254
848.65	23258
848.786	23296
848.921	23261
849.057	23223
849.192	23433
849.328	23326
849.463	23284
849.598	23261
849.734	23124
849.869	23174
850.004	23056
850.14	23033
850.275	23197
850.41	22927
850.545	23052
850.68	23064
850.815	23037
850.95	22961
851.085	23250
851.22	23239
851.355	23060
851.49	23022
851.625	23079
851.76	23025
851.895	22805
852.03	22946
852.165	23079
852.299	23037
852.434	23162
852.569	22999
852.703	22930
852.838	23098
852.973	23140
853.107	23193
853.242	22946
853.376	22957
853.511	22816
853.645	22839
853.78	22927
853.914	22767
854.048	22911
854.183	22900
854.317	23006
854.451	23140
854.585	23025
854.72	22896
854.854	22858
854.988	22862
855.122	22919
855.256	22763
855.39	22797
855.524	22980
855.658	22942
855.792	22949
855.926	23044
856.06	22778
856.194	22828
856.327	22866
856.461	22862
856.595	22873
856.729	22927
856.862	22885
856.996	22854
857.13	22965
857.263	22923
857.397	22938
857.53	22797
857.664	22889
857.797	22881
857.931	23086
858.064	22858
858.197	23018
858.331	22847
858.464	22908
858.597	22736
858.731	22850
858.864	22847
858.997	22774
859.13	22786
859.263	22896
859.396	22984
859.529	22820
859.662	22782
859.795	22782
859.928	22885
860.061	22999
860.194	23170
860.327	22873
860.46	22923
860.592	22987
860.725	23159
860.858	22904
860.99	22850
861.123	22801
861.256	22835
861.388	22805
861.521	23554
861.653	22588
861.786	22733
861.918	22698
862.05	22790
862.183	22839
862.315	22786
862.447	22911
862.58	22740
862.712	22607
862.844	22557
862.976	22717
863.108	22615
863.24	22953
863.372	22580
863.504	22481
863.636	22516
863.768	22622
863.9	22565
864.032	22485
864.164	22538
864.296	22584
864.428	22763
864.559	22603
864.691	22649
864.823	22706
864.954	22596
865.086	22535
865.217	22474
865.349	22268
865.48	22550
865.612	22493
865.743	22592
865.875	22451
866.006	22413
866.137	22470
866.269	22363
866.4	22352
866.531	22348
866.662	22299
866.793	22398
866.924	22291
867.055	22390
867.186	22493
867.317	22390
867.448	22306
867.579	22382
867.71	22367
867.841	22314
867.972	22405
868.103	22424
868.233	22325
868.364	22306
868.495	22421
868.625	22637
868.756	22748
868.886	22424
869.017	22656
869.147	22649
869.278	22778
869.408	22736
869.539	22649
869.669	22641
869.799	22615
869.929	22839
870.06	22675
870.19	22965
870.32	22930
870.45	22896
870.58	22972
870.71	23060
870.84	23189
870.97	22930
871.1	23086
871.23	23239
871.36	23277
871.489	23162
871.619	23140
871.749	23174
871.879	23318
872.008	23326
872.138	23307
872.267	23159
872.397	23029
872.526	22972
872.656	23200
872.785	23041
872.915	23349
873.044	23197
873.173	23273
873.303	23364
873.432	23387
873.561	23223
873.69	23132
873.819	23193
873.948	23315
874.077	23265
874.206	23204
874.335	23189
874.464	23334
874.593	23604
874.722	23433
874.851	23459
874.979	23505
875.108	23543
875.237	23440
875.365	23387
875.494	23482
875.623	23482
875.751	23406
875.88	23554
876.008	23589
876.136	23630
876.265	23798
876.393	23988
876.521	23817
876.65	23893
876.778	23897
876.906	23828
877.034	23661
877.162	23893
877.29	23786
877.418	23710
877.546	23726
877.674	23813
877.802	23695
877.93	23882
878.058	23661
878.185	23661
878.313	23623
878.441	23680
878.568	23531
878.696	23722
878.824	23760
878.951	23885
879.079	23821
879.206	24068
879.333	23855
879.461	23840
879.588	23752
879.715	23965
879.842	24038
879.97	23950
880.097	23665
880.224	23634
880.351	23554
880.478	23687
880.605	23531
880.732	23589
880.859	23809
880.986	23638
881.112	23573
881.239	23562
881.366	23322
881.493	23376
881.619	23292
881.746	23109
881.872	23216
881.999	23102
882.125	23098
882.252	23353
882.378	23292
882.505	23197
882.631	23056
882.757	22892
882.883	22968
883.01	22976
883.136	22717
883.262	22774
883.388	22596
883.514	22869
883.64	22968
883.766	22786
883.892	22634
884.018	22626
884.143	22801
884.269	22778
884.395	22516
884.52	22424
884.646	22428
884.772	22344
884.897	22367
885.023	22504
885.148	22462
885.274	22668
885.399	22478
885.524	22405
885.65	22478
885.775	22512
885.9	22535
886.025	22611
886.15	22432
886.275	22382
886.4	22512
886.525	22447
886.65	22360
886.775	22417
886.9	22451
887.025	22611
887.149	22287
887.274	22306
887.399	22185
887.523	22375
887.648	22177
887.773	22246
887.897	22329
888.021	22223
888.146	22223
888.27	22386
888.395	22291
888.519	22200
888.643	22173
888.767	22291
888.891	22135
889.015	21994
889.139	22036
889.263	21930
889.387	22139
889.511	22204
889.635	21998
889.759	21998
889.883	22017
890.006	21945
890.13	21998
890.254	21922
890.377	21911
890.501	21736
890.624	21595
890.748	21846
890.871	21587
890.995	21717
891.118	21447
891.241	21610
891.364	21526
891.488	21755
891.611	21534
891.734	21561
891.857	21667
891.98	21492
892.103	21629
892.226	21553
892.349	21439
892.471	21317
892.594	21511
892.717	21557
892.839	21485
892.962	21519
893.085	21485
893.207	21389
893.33	21332
893.452	21359
893.575	21542
893.697	21378
893.819	21652
893.941	21644
894.064	21447
894.186	21306
894.308	21363
894.43	21504
894.552	21583
894.674	21496
894.796	21416
894.918	21492
895.04	21355
895.161	21504
895.283	21351
895.405	21340
895.526	21378
895.648	21329
895.769	21420
895.891	21389
896.012	21549
896.134	21435
896.255	21462
896.376	21344
896.498	21393
896.619	21389
896.74	21469
896.861	21481
896.982	21694
897.103	21823
897.224	21747
897.345	21667
897.466	21378
897.587	21656
897.708	21736
897.828	21610
897.949	21534
898.07	21420
898.19	21401
898.311	21709
898.431	21492
898.552	21648
898.672	21561
898.792	21679
898.913	21610
899.033	21477
899.153	21348
899.273	21275
899.393	21294
899.513	21264
899.633	21393
899.753	21378
899.873	21389
899.993	21241
900.113	21241
900.232	21317
900.352	21188
900.472	21157
900.591	21032
900.711	21173
900.83	21017
900.95	21192
901.069	21169
901.189	20994
901.308	20819
901.427	20670
901.546	20594
901.665	20632
901.784	20518
901.904	20473
902.023	20355
902.141	20267
902.26	20206
902.379	20301
902.498	20073
902.617	20069
902.735	20073
902.854	20176
902.973	20058
903.091	19898
903.21	19685
903.328	19757
903.446	19769
903.565	19533
903.683	19628
903.801	19403
903.919	19521
904.038	19499
904.156	19388
904.274	19457
904.392	19358
904.51	19263
904.627	19312
904.745	19472
904.863	19270
904.981	19168
905.098	19046
905.216	19137
905.334	19023
905.451	19061
905.569	18993
905.686	19065
905.803	18989
905.921	18745
906.038	18878
906.155	18753
906.272	18612
906.389	18707
906.506	18604
906.623	18681
906.74	18498
906.857	18407
906.974	18410
907.091	18585
907.208	18585
907.324	18525
907.441	18452
907.557	18266
907.674	18239
907.79	18296
907.907	18228
908.023	18270
908.139	18296
908.256	18266
908.372	18201
908.488	18155
908.604	18022
908.72	17870
908.836	17908
908.952	17901
909.068	17946
909.184	18060
909.3	18007
909.415	17977
909.531	17786
909.647	17661
909.762	17733
909.878	17642
909.993	17665
910.108	17493
910.224	17547
910.339	17600
910.454	17497
910.57	17395
910.685	17406
910.8	17676
910.915	17528
911.03	17444
911.145	17235
911.259	17273
911.374	17220
911.489	17067
911.604	17079
911.718	16957
911.833	16915
911.947	16858
912.062	16896
912.176	16892
912.291	16965
912.405	17075
912.519	17159
912.633	17155
912.748	16980
912.862	17006
912.976	16774
913.09	16641
913.204	16782
913.318	16767
913.431	16820
913.545	16801
913.659	16797
913.772	16653
913.886	16599
914	16500
914.113	16596
914.226	16584
914.34	16565
914.453	16375
914.566	16538
914.68	16318
914.793	16253
914.906	16204
915.019	16173
915.132	16071
915.245	16063
915.358	16192
915.47	16105
915.583	16124
915.696	16177
915.809	16154
915.921	16261
916.034	16017
916.146	16078
916.259	15960
916.371	16086
916.483	16150
916.595	15979
916.708	15968
916.82	15888
916.932	15793
917.044	15835
917.156	15812
917.268	15720
917.38	15808
917.491	15720
917.603	15743
917.715	15857
917.826	15781
917.938	15679
918.049	15568
918.161	15686
918.272	15842
918.384	15854
918.495	15614
918.606	15530
918.717	15492
918.828	15469
918.939	15473
919.05	15393
919.161	15462
919.272	15340
919.383	15397
919.494	15534
919.604	15701
919.715	15447
919.826	15268
919.936	15412
920.047	15401
920.157	15317
920.267	15561
920.378	15317
920.488	15325
920.598	15625
920.708	15751
920.818	15568
920.928	15580
921.038	15663
921.148	15713
921.258	15363
921.368	15222
921.477	15123
921.587	15195
921.697	14982
921.806	15142
921.916	15013
922.025	14849
922.134	14765
922.244	14708
922.353	14765
922.462	14674
922.571	14613
922.68	14434
922.789	14317
922.898	14358
923.007	14332
923.116	14263
923.224	14362
923.333	14404
923.442	14164
923.55	14244
923.659	14199
923.767	14263
923.876	14138
923.984	14294
924.092	14145
924.201	14130
924.309	14172
924.417	14088
924.525	14092
924.633	14046
924.741	14933
924.849	13860
924.956	13970
925.064	13784
925.172	13803
925.279	13753
925.387	13894
925.494	13715
925.602	13849
925.709	13814
925.816	13674
925.924	13757
926.031	13830
926.138	13746
926.245	13670
926.352	13586
926.459	13700
926.566	13799
926.673	13628
926.779	13556
926.886	13586
926.993	13354
927.099	13346
927.206	13187
927.312	13266
927.419	13278
927.525	13285
927.631	13343
927.737	13282
927.843	13187
927.95	13008
928.056	13202
928.162	13149
928.267	13129
928.373	13746
928.479	13156
928.585	12894
928.69	13069
928.796	13065
928.901	12943
929.007	12814
929.112	12935
929.218	12916
929.323	12844
929.428	12669
929.533	12932
929.638	12745
929.743	12711
929.848	12844
929.953	12779
930.058	12673
930.163	12490
930.267	12464
930.372	12635
930.477	12391
930.581	12654
930.685	12486
930.79	12323
930.894	12460
930.998	12304
931.103	12422
931.207	12155
931.311	11950
931.415	11958
931.519	11764
931.623	11756
